# AuFCC111UCD_GLY
# h[nm],U(h)[kJ/mol]
0.149999999999999994,87.253983597877081024
0.150999999999999995,83.484431987210285797
0.151999999999999996,80.137737203091617744
0.152999999999999997,76.880712919780805237
0.153999999999999998,73.644811512705487644
0.154999999999999999,70.455539364614992337
0.156000000000000000,67.354013174184359514
0.157000000000000001,64.367404007017597678
0.158000000000000002,61.503190881425531700
0.159000000000000002,58.753323466140365383
0.160000000000000003,56.101087810551440782
0.161000000000000004,53.527338692398942044
0.162000000000000005,51.014889426573098774
0.163000000000000006,48.550931451750230394
0.164000000000000007,46.127832677458975752
0.165000000000000008,43.742808782341178642
0.166000000000000009,41.396940267901896959
0.167000000000000010,39.093915866337567877
0.168000000000000010,36.838772541016524542
0.169000000000000011,34.636800274338618522
0.170000000000000012,32.492697234374517734
0.171000000000000013,30.410000351256222473
0.172000000000000014,28.390776083311994427
0.173000000000000015,26.435532623385675777
0.174000000000000016,24.543303944126499516
0.175000000000000017,22.711854136080436461
0.176000000000000018,20.937954279653929746
0.177000000000000018,19.217691126245899369
0.178000000000000019,17.546775317599252020
0.179000000000000020,15.920825486114679848
0.180000000000000021,14.335612551092811628
0.181000000000000022,12.787255405178118650
0.182000000000000023,11.272364774097468398
0.183000000000000024,9.788136307565416416
0.184000000000000025,8.332397007431662672
0.185000000000000026,6.903611071671948096
0.186000000000000026,5.500852309633988746
0.187000000000000027,4.123750650440939580
0.188000000000000028,2.772420098199272154
0.189000000000000029,1.447374941465301212
0.190000000000000030,0.149440233940871192
0.191000000000000031,-1.120338362146729771
0.192000000000000032,-2.360781253364179211
0.193000000000000033,-3.570654956378983336
0.194000000000000034,-4.748743245938653601
0.195000000000000034,-5.893907961218570080
0.196000000000000035,-7.005138723677147183
0.197000000000000036,-8.081591406198789684
0.198000000000000037,-9.122615665381848871
0.199000000000000038,-10.127772211934860991
0.200000000000000039,-11.096840757468054761
0.201000000000000040,-12.029819750867384087
0.202000000000000041,-12.926919116329699477
0.203000000000000042,-13.788547240643168834
0.204000000000000042,-14.615293441642899452
0.205000000000000043,-15.407907094349273081
0.206000000000000044,-16.167274506416330127
0.207000000000000045,-16.894394529237182212
0.208000000000000046,-17.590353773148681427
0.209000000000000047,-18.256302171138067081
0.210000000000000048,-18.893429510558981121
0.211000000000000049,-19.502943430768290511
0.212000000000000050,-20.086049269454363753
0.213000000000000050,-20.643932034006603260
0.214000000000000051,-21.177740678093616822
0.215000000000000052,-21.688574778549547517
0.216000000000000053,-22.177473634072914166
0.217000000000000054,-22.645407745064506599
0.218000000000000055,-23.093272582788628711
0.219000000000000056,-23.521884515316905606
0.220000000000000057,-23.931978726618645226
0.221000000000000058,-24.324208942792857613
0.222000000000000058,-24.699148764842721704
0.223000000000000059,-25.057294399585742894
0.224000000000000060,-25.399068578308249045
0.225000000000000061,-25.724825455675450314
0.226000000000000062,-26.034856288315097572
0.227000000000000063,-26.329395702589387440
0.228000000000000064,-26.608628373610550000
0.229000000000000065,-26.872695951876629294
0.230000000000000066,-27.121704089413714911
0.231000000000000066,-27.355729433502840919
0.232000000000000067,-27.574826472504391006
0.233000000000000068,-27.779034134606810369
0.234000000000000069,-27.968382056218665355
0.235000000000000070,-28.142896451953667736
0.236000000000000071,-28.302605532540535904
0.237000000000000072,-28.447544430387203818
0.238000000000000073,-28.577759604843958385
0.239000000000000073,-28.693312710383800379
0.240000000000000074,-28.794283920925415998
0.241000000000000075,-28.880774712358238787
0.242000000000000076,-28.952910113013793136
0.243000000000000077,-29.010840438398265206
0.244000000000000078,-29.054742532010219946
0.245000000000000079,-29.084820538573495696
0.246000000000000080,-29.101306239590922331
0.247000000000000081,-29.104458983840277853
0.248000000000000081,-29.094565247367732752
0.249000000000000082,-29.071937858763313045
0.250000000000000111,-29.036914926105119150
0.251000000000000112,-28.989858502007564311
0.252000000000000113,-28.931153022780023321
0.253000000000000114,-28.861203556859841513
0.254000000000000115,-28.780433896499015844
0.255000000000000115,-28.689284525211583343
0.256000000000000116,-28.588210491789702417
0.257000000000000117,-28.477679219819464151
0.258000000000000118,-28.358168279618713115
0.259000000000000119,-28.230163147422253189
0.260000000000000120,-28.094154974490425758
0.261000000000000121,-27.950638386647121081
0.262000000000000122,-27.800109332593553546
0.263000000000000123,-27.643062997216105714
0.264000000000000123,-27.479991794033413299
0.265000000000000124,-27.311383448924239303
0.266000000000000125,-27.137719185360616336
0.267000000000000126,-26.959472019547622068
0.268000000000000127,-26.777105172154183066
0.269000000000000128,-26.591070601711738419
0.270000000000000129,-26.401807663264968085
0.271000000000000130,-26.209741894483084224
0.272000000000000131,-26.015283930181691829
0.273000000000000131,-25.818828545063507107
0.274000000000000132,-25.620753823458862541
0.275000000000000133,-25.421420453932313421
0.276000000000000134,-25.221171145813531922
0.277000000000000135,-25.020330164008139917
0.278000000000000136,-24.819202977838376256
0.279000000000000137,-24.618076019152642431
0.280000000000000138,-24.417216544519369847
0.281000000000000139,-24.216872595978777838
0.282000000000000139,-24.017273054561137258
0.283000000000000140,-23.818627780584829878
0.284000000000000141,-23.621127834616899577
0.285000000000000142,-23.424945772906923480
0.286000000000000143,-23.230236011085985126
0.287000000000000144,-23.037135249951166571
0.288000000000000145,-22.845762957227446321
0.289000000000000146,-22.656221899307062984
0.290000000000000147,-22.468598717107745699
0.291000000000000147,-22.282964540360797656
0.292000000000000148,-22.099375634833318571
0.293000000000000149,-21.917874077202675664
0.294000000000000150,-21.738488452530937423
0.295000000000000151,-21.561234569530984828
0.296000000000000152,-21.386116189068172133
0.297000000000000153,-21.213125761602867669
0.298000000000000154,-21.042245169543399186
0.299000000000000155,-20.873446470746991110
0.300000000000000155,-20.706692639673317302
0.301000000000000156,-20.541938302961888496
0.302000000000000157,-20.379130466466733651
0.303000000000000158,-20.218209231040297880
0.304000000000000159,-20.059108494610704554
0.305000000000000160,-19.901756638341314698
0.306000000000000161,-19.746077194899189777
0.307000000000000162,-19.591989497087780592
0.308000000000000163,-19.439409305318029908
0.309000000000000163,-19.288249412602340271
0.310000000000000164,-19.138420225955126597
0.311000000000000165,-18.989830323272677504
0.312000000000000166,-18.842386984944120343
0.313000000000000167,-18.695996699612926761
0.314000000000000168,-18.550565643666082849
0.315000000000000169,-18.406000134174774985
0.316000000000000170,-18.262207055147097634
0.317000000000000171,-18.119094257079474630
0.318000000000000171,-17.976570929909513552
0.319000000000000172,-17.834547949580020543
0.320000000000000173,-17.692938198520472781
0.321000000000000174,-17.551656860440527197
0.322000000000000175,-17.410621689909099530
0.323000000000000176,-17.269753257263566582
0.324000000000000177,-17.128975169456204242
0.325000000000000178,-16.988214267499991195
0.326000000000000179,-16.847400801224146960
0.327000000000000179,-16.706468582090309383
0.328000000000000180,-16.565355114854831697
0.329000000000000181,-16.424001708891729834
0.330000000000000182,-16.282353570012453758
0.331000000000000183,-16.140359873637251553
0.332000000000000184,-15.997973820184569149
0.333000000000000185,-15.855152673553401854
0.334000000000000186,-15.711857783576888892
0.335000000000000187,-15.568054593325422630
0.336000000000000187,-15.423712632134044753
0.337000000000000188,-15.278805495221371658
0.338000000000000189,-15.133310810758256792
0.339000000000000190,-14.987210195231110532
0.340000000000000191,-14.840489197930271104
0.341000000000000192,-14.693137235377117022
0.342000000000000193,-14.545147516484016492
0.343000000000000194,-14.396516959221610676
0.344000000000000195,-14.247246099545311182
0.345000000000000195,-14.097338993310454924
0.346000000000000196,-13.946803111881033388
0.347000000000000197,-13.795649232112117133
0.348000000000000198,-13.643891321360934299
0.349000000000000199,-13.491546418154797493
0.350000000000000200,-13.338634509118453053
0.351000000000000201,-13.185178402736159597
0.352000000000000202,-13.031203600497509143
0.353000000000000203,-12.876738165949083381
0.354000000000000203,-12.721812592147493604
0.355000000000000204,-12.566459667982909920
0.356000000000000205,-12.410714343816238170
0.357000000000000206,-12.254613596847221402
0.358000000000000207,-12.098196296605296496
0.359000000000000208,-11.941503070930696850
0.360000000000000209,-11.784576172788415960
0.361000000000000210,-11.627459348234488345
0.362000000000000210,-11.470197705830489809
0.363000000000000211,-11.312837587780247617
0.364000000000000212,-11.155426443040676432
0.365000000000000213,-10.998012702637764093
0.366000000000000214,-10.840645657398566115
0.367000000000000215,-10.683375338290284517
0.368000000000000216,-10.526252399539085758
0.369000000000000217,-10.369328004682918376
0.370000000000000218,-10.212653715695601875
0.371000000000000218,-10.056281385302863640
0.372000000000000219,-9.900263052595231983
0.373000000000000220,-9.744650842027777315
0.374000000000000221,-9.589496865882445320
0.375000000000000222,-9.434853130255159925
0.376000000000000223,-9.280771444617149868
0.377000000000000224,-9.127303334987908912
0.378000000000000225,-8.974499960745685456
0.379000000000000226,-8.822412035090930971
0.380000000000000226,-8.671089749167924410
0.381000000000000227,-8.520582699840321794
0.382000000000000228,-8.370939821108020595
0.383000000000000229,-8.222209319144088369
0.384000000000000230,-8.074438610923161619
0.385000000000000231,-7.927674266405868586
0.386000000000000232,-7.781961954237081258
0.387000000000000233,-7.637346390910048299
0.388000000000000234,-7.493871293342993845
0.389000000000000234,-7.351579334809953181
0.390000000000000235,-7.210512104162809521
0.391000000000000236,-7.070710068277985094
0.392000000000000237,-6.932212537657036933
0.393000000000000238,-6.795057635107818683
0.394000000000000239,-6.659282267429500912
0.395000000000000240,-6.524922100022688021
0.396000000000000241,-6.392011534343632562
0.397000000000000242,-6.260583688119616852
0.398000000000000242,-6.130670378241455332
0.399000000000000243,-6.002302106247593194
0.400000000000000244,-5.875508046313346888
0.401000000000000245,-5.750316035658616265
0.402000000000000246,-5.626752567286511741
0.403000000000000247,-5.504842784965282121
0.404000000000000248,-5.384610480366307073
0.405000000000000249,-5.266078092270666033
0.406000000000000250,-5.149266707757563566
0.407000000000000250,-5.034196065288336186
0.408000000000000251,-4.920884559600474439
0.409000000000000252,-4.809349248327195347
0.410000000000000253,-4.699605860258764700
0.411000000000000254,-4.591668805163323874
0.412000000000000255,-4.485551185085874693
0.413000000000000256,-4.381264807045696763
0.414000000000000257,-4.278820197053651242
0.415000000000000258,-4.178226615372650166
0.416000000000000258,-4.079492072945901882
0.417000000000000259,-3.982623348919326567
0.418000000000000260,-3.887626009186300191
0.419000000000000261,-3.794504425884408505
0.420000000000000262,-3.703261797776066455
0.421000000000000263,-3.613900171446332799
0.422000000000000264,-3.526420463253341353
0.423000000000000265,-3.440822481968486279
0.424000000000000266,-3.357104952045653956
0.425000000000000266,-3.275265537460367860
0.426000000000000267,-3.195300866061882683
0.427000000000000268,-3.117206554383098016
0.428000000000000269,-3.040977232855053281
0.429000000000000270,-2.966606571374714285
0.430000000000000271,-2.894087305176623826
0.431000000000000272,-2.823411260960896563
0.432000000000000273,-2.754569383231888047
0.433000000000000274,-2.687551760803740031
0.434000000000000274,-2.622347653430774805
0.435000000000000275,-2.558945518522572460
0.436000000000000276,-2.497333037905320019
0.437000000000000277,-2.437497144592682297
0.438000000000000278,-2.379424049531322805
0.439000000000000279,-2.323099268287741825
0.440000000000000280,-2.268507647644775638
0.441000000000000281,-2.215633392077747121
0.442000000000000282,-2.164460090081873567
0.443000000000000282,-2.114970740323901310
0.444000000000000283,-2.067147777592688307
0.445000000000000284,-2.020973098524748046
0.446000000000000285,-1.976428087082148677
0.447000000000000286,-1.933493639761856953
0.448000000000000287,-1.892150190516494801
0.449000000000000288,-1.852377735368251788
0.450000000000000289,-1.814155856698644431
0.451000000000000290,-1.777463747198173127
0.452000000000000290,-1.742280233461128036
0.453000000000000291,-1.708583799211895293
0.454000000000000292,-1.676352608150290635
0.455000000000000293,-1.645564526404425409
0.456000000000000294,-1.616197144580794332
0.457000000000000295,-1.588227799402086582
0.458000000000000296,-1.561633594924400681
0.459000000000000297,-1.536391423326233241
0.460000000000000298,-1.512477985262737468
0.461000000000000298,-1.489869809779352350
0.462000000000000299,-1.468543273780003933
0.463000000000000300,-1.448474621045563904
0.464000000000000301,-1.429639980799257026
0.465000000000000302,-1.412015385816241198
0.466000000000000303,-1.395576790075430784
0.467000000000000304,-1.380300085952044231
0.468000000000000305,-1.366161120950341257
0.469000000000000306,-1.353135713976211685
0.470000000000000306,-1.341199671150127726
0.471000000000000307,-1.330328801161352770
0.472000000000000308,-1.320498930164921925
0.473000000000000309,-1.311685916223210624
0.474000000000000310,-1.303865663294555333
0.475000000000000311,-1.297014134771716121
0.476000000000000312,-1.291107366573355675
0.477000000000000313,-1.286121479792111000
0.478000000000000314,-1.282032692903233073
0.479000000000000314,-1.278817333538029510
0.480000000000000315,-1.276451849826671037
0.481000000000000316,-1.274912821315259182
0.482000000000000317,-1.274176969462254894
0.483000000000000318,-1.274221167719657766
0.484000000000000319,-1.275022451204513851
0.485000000000000320,-1.276558025966639365
0.486000000000000321,-1.278805277858478195
0.487000000000000322,-1.281741781013339132
0.488000000000000322,-1.285345305938347504
0.489000000000000323,-1.289593827228575851
0.490000000000000324,-1.294465530909004514
0.491000000000000325,-1.299938821411043222
0.492000000000000326,-1.305992328190419993
0.493000000000000327,-1.312604911993383361
0.494000000000000328,-1.319755670778228307
0.495000000000000329,-1.327423945299178953
0.496000000000000330,-1.335589324359778285
0.497000000000000330,-1.344231649742891888
0.498000000000000331,-1.353331020824600550
0.499000000000000332,-1.362867798879059844
0.500000000000000333,-1.372822611081677469
0.501000000000000334,-1.383176354217763526
0.502000000000000335,-1.393910198103871068
0.503000000000000336,-1.405005588729053123
0.504000000000000337,-1.416444251123206488
0.505000000000000338,-1.428208191959658535
0.506000000000000338,-1.440279701899110476
0.507000000000000339,-1.452641357682033618
0.508000000000000340,-1.465276023976539221
0.509000000000000341,-1.478166854988664181
0.510000000000000342,-1.491297295842072046
0.511000000000000343,-1.504651083733934414
0.512000000000000344,-1.518212248873860082
0.513000000000000345,-1.531965115212521988
0.514000000000000346,-1.545894300966685453
0.515000000000000346,-1.559984718947144966
0.516000000000000347,-1.574221576696075875
0.517000000000000348,-1.588590376440202290
0.518000000000000349,-1.603076914866065961
0.519000000000000350,-1.617667282723588063
0.520000000000000351,-1.632347864264139803
0.521000000000000352,-1.647105336518999819
0.522000000000000353,-1.661926668424245745
0.523000000000000353,-1.676799119797859117
0.524000000000000354,-1.691710240174751689
0.525000000000000355,-1.706647867505385552
0.526000000000000356,-1.721600126723462854
0.527000000000000357,-1.736555428188108152
0.528000000000000358,-1.751502466005926850
0.529000000000000359,-1.766430216237985018
0.530000000000000360,-1.781327934997015250
0.531000000000000361,-1.796185156439668473
0.532000000000000361,-1.810991690658815712
0.533000000000000362,-1.825737621480602257
0.534000000000000363,-1.840413304171000464
0.535000000000000364,-1.855009363056359106
0.536000000000000365,-1.869516689062476589
0.537000000000000366,-1.883926437176505875
0.538000000000000367,-1.898230023835984825
0.539000000000000368,-1.912419124249095770
0.540000000000000369,-1.926485669650253474
0.541000000000000369,-1.940421844494897741
0.542000000000000370,-1.954220083597404622
0.543000000000000371,-1.967873069215777537
0.544000000000000372,-1.981373728086828212
0.545000000000000373,-1.994715228415312236
0.546000000000000374,-2.007890976820539741
0.547000000000000375,-2.020894615243724601
0.548000000000000376,-2.033720017819390158
0.549000000000000377,-2.046361287713923005
0.550000000000000377,-2.058812753934371020
0.551000000000000378,-2.071068968110453490
0.552000000000000379,-2.083124701252621502
0.553000000000000380,-2.094974940488998350
0.554000000000000381,-2.106614885783873792
0.555000000000000382,-2.118039946640368765
0.556000000000000383,-2.129245738789788955
0.557000000000000384,-2.140228080870111960
0.558000000000000385,-2.150982991095982122
0.559000000000000385,-2.161506683922475691
0.560000000000000386,-2.171795566704807889
0.561000000000000387,-2.181846236356167701
0.562000000000000388,-2.191655476005666792
0.563000000000000389,-2.201220251658392080
0.564000000000000390,-2.210537708859441786
0.565000000000000391,-2.219605169363807029
0.566000000000000392,-2.228420127813803830
0.567000000000000393,-2.236980248425754603
0.568000000000000393,-2.245283361687541834
0.569000000000000394,-2.253327461068586945
0.570000000000000395,-2.261110699743716257
0.571000000000000396,-2.268631387332342264
0.572000000000000397,-2.275887986654343997
0.573000000000000398,-2.282879110503912568
0.574000000000000399,-2.289603518442605345
0.575000000000000400,-2.296060113612824249
0.576000000000000401,-2.302247939572795499
0.577000000000000401,-2.308166177154158838
0.578000000000000402,-2.313814141343176978
0.579000000000000403,-2.319191278186516936
0.580000000000000404,-2.324297161722530536
0.581000000000000405,-2.329131490938918692
0.582000000000000406,-2.333694086757544195
0.583000000000000407,-2.337984889047236781
0.584000000000000408,-2.342003953665264593
0.585000000000000409,-2.345751449528162613
0.586000000000000409,-2.349227655712587737
0.587000000000000410,-2.352432958586770262
0.588000000000000411,-2.355367848973121792
0.589000000000000412,-2.358032919342543554
0.590000000000000413,-2.360428861040875237
0.591000000000000414,-2.362556461547983044
0.592000000000000415,-2.364416601769837367
0.593000000000000416,-2.366010253363997062
0.594000000000000417,-2.367338476098835187
0.595000000000000417,-2.368402415246785520
0.596000000000000418,-2.369203299011927832
0.597000000000000419,-2.369742435992130858
0.598000000000000420,-2.370021212675982092
0.599000000000000421,-2.370041090974688736
0.600000000000000422,-2.369803605789122525
0.601000000000000423,-2.369310362612121690
0.602000000000000424,-2.368563035166182829
0.603000000000000425,-2.367563363076637284
0.604000000000000425,-2.366313149580323572
0.605000000000000426,-2.364814259269856223
0.606000000000000427,-2.363068615873476386
0.607000000000000428,-2.361078200070477084
0.608000000000000429,-2.358845047342200907
0.609000000000000430,-2.356371245858540853
