# AuFCC111UCD_CS-387-AC
# h[nm],U(h)[kJ/mol]
0.149999999999999994,123.237275676763857746
0.150999999999999995,116.823973920738282573
0.151999999999999996,113.944078001041617654
0.152999999999999997,111.740914662963362503
0.153999999999999998,109.211658992559435433
0.154999999999999999,106.207647934289639124
0.156000000000000000,102.900849368787362437
0.157000000000000001,99.522630547217744379
0.158000000000000002,96.254616827463323148
0.159000000000000002,93.199029726130532936
0.160000000000000003,90.386150466606025589
0.161000000000000004,87.795394914084425864
0.162000000000000005,85.377906868552273068
0.163000000000000006,83.075254852303913822
0.164000000000000007,80.832524465250429557
0.165000000000000008,78.605992461498900070
0.166000000000000009,76.366395662526358024
0.167000000000000010,74.099038509335812819
0.168000000000000010,71.801907335941535848
0.169000000000000011,69.482749757497103360
0.170000000000000012,67.155831522260115207
0.171000000000000013,64.838851821418401755
0.172000000000000014,62.550304347649309022
0.173000000000000015,60.307422123165110861
0.174000000000000016,58.124737376097343144
0.175000000000000017,56.013217529711610609
0.176000000000000018,53.979897285777099114
0.177000000000000018,52.027907533973369425
0.178000000000000019,50.156797949249181556
0.179000000000000020,48.363056330845530795
0.180000000000000021,46.640739844874971709
0.181000000000000022,44.982148284097590363
0.182000000000000023,43.378485093600666289
0.183000000000000024,41.820466805496138818
0.184000000000000025,40.298854823771407041
0.185000000000000026,38.804894766725801958
0.186000000000000026,37.330657670857419816
0.187000000000000027,35.869284347315833372
0.188000000000000028,34.415139243928337009
0.189000000000000029,32.963883553131715587
0.190000000000000030,31.512479296564453790
0.191000000000000031,30.059136987833973365
0.192000000000000032,28.603219485404416389
0.193000000000000033,27.145114028965089403
0.194000000000000034,25.686083403517329771
0.195000000000000034,24.228105860252448167
0.196000000000000035,22.773711973903552064
0.197000000000000036,21.325825134547475415
0.198000000000000037,19.887610933384920031
0.199000000000000038,18.462339359969391239
0.200000000000000039,17.053262517245933338
0.201000000000000040,15.663509500214189529
0.202000000000000041,14.295999182015554752
0.203000000000000042,12.953370906952446973
0.204000000000000042,11.637932496226145673
0.205000000000000043,10.351624517577642237
0.206000000000000044,9.095999440390999169
0.207000000000000045,7.872214077657720743
0.208000000000000046,6.681033589578315279
0.209000000000000047,5.522845274903602331
0.210000000000000048,4.397680390644453929
0.211000000000000049,3.305242304944561393
0.212000000000000050,2.244939389536482643
0.213000000000000050,1.215921186605158244
0.214000000000000051,0.217116530863905949
0.215000000000000052,-0.752727536524420482
0.216000000000000053,-1.695007066246108307
0.217000000000000054,-2.611223557754654756
0.218000000000000055,-3.502948069161985423
0.219000000000000056,-4.371787631014917963
0.220000000000000057,-5.219354382165158235
0.221000000000000058,-6.047237725355464555
0.222000000000000058,-6.856979692477622734
0.223000000000000059,-7.650053614976471295
0.224000000000000060,-8.427846113476972434
0.225000000000000061,-9.191642351967391988
0.226000000000000062,-9.942614445126377376
0.227000000000000063,-10.681812861814007576
0.228000000000000064,-11.410160632422284621
0.229000000000000065,-12.128450141707521226
0.230000000000000066,-12.837342270879293693
0.231000000000000066,-13.537367642087968278
0.232000000000000067,-14.228929714041104404
0.233000000000000068,-14.912309478350632475
0.234000000000000069,-15.587671511480134967
0.235000000000000070,-16.255071146010227068
0.236000000000000071,-16.914462536622469457
0.237000000000000072,-17.565707410052638693
0.238000000000000073,-18.208584303681742966
0.239000000000000073,-18.842798113898126644
0.240000000000000074,-19.467989792426511286
0.241000000000000075,-20.083746046087508574
0.242000000000000076,-20.689608912605212510
0.243000000000000077,-21.285085101851535683
0.244000000000000078,-21.869655008086414938
0.245000000000000079,-22.442781314155510586
0.246000000000000080,-23.003917123110312559
0.247000000000000081,-23.552513566231091602
0.248000000000000081,-24.088026848894973142
0.249000000000000082,-24.609924707109861686
0.250000000000000111,-25.117692257817143542
0.251000000000000112,-25.610837235259253930
0.252000000000000113,-26.088894613839908487
0.253000000000000114,-26.551430625003803243
0.254000000000000115,-26.998046181785952058
0.255000000000000115,-27.428379729870744796
0.256000000000000116,-27.842109548325840507
0.257000000000000117,-28.238955526692812725
0.258000000000000118,-28.618680447891268415
0.259000000000000119,-28.981090808492563582
0.260000000000000120,-29.326037209406781159
0.261000000000000121,-29.653414350964407475
0.262000000000000122,-29.963160666827690193
0.263000000000000123,-30.255257631189749645
0.264000000000000123,-30.529728773372902140
0.265000000000000124,-30.786638433269835957
0.266000000000000125,-31.026090290134419547
0.267000000000000126,-31.248225696066022294
0.268000000000000127,-31.453221844186327161
0.269000000000000128,-31.641289800016199507
0.270000000000000129,-31.812672422958922169
0.271000000000000130,-31.967642203115339328
0.272000000000000131,-32.106499036922450330
0.273000000000000131,-32.229567963346525516
0.274000000000000132,-32.337196880594198944
0.275000000000000133,-32.429754261549867067
0.276000000000000134,-32.507626884420936619
0.277000000000000135,-32.571217593386620592
0.278000000000000136,-32.620943102414059922
0.279000000000000137,-32.657231853834488788
0.280000000000000138,-32.680521941771267791
0.281000000000000139,-32.691259109085407886
0.282000000000000139,-32.689894825157452374
0.283000000000000140,-32.676884450559363415
0.284000000000000141,-32.652685493489094881
0.285000000000000142,-32.617755961743668536
0.286000000000000143,-32.572552812993663451
0.287000000000000144,-32.517530505192226542
0.288000000000000145,-32.453139648103899617
0.289000000000000146,-32.379825756168727935
0.290000000000000147,-32.298028102225245561
0.291000000000000147,-32.208178670996503001
0.292000000000000148,-32.110701210694813312
0.293000000000000149,-32.006010380618981515
0.294000000000000150,-31.894510992198540578
0.295000000000000151,-31.776597340580860163
0.296000000000000152,-31.652652623551933431
0.297000000000000153,-31.523048444330925122
0.298000000000000154,-31.388144394573124885
0.299000000000000155,-31.248287713757150641
0.300000000000000155,-31.103813021012616247
0.301000000000000156,-30.955042115362566335
0.302000000000000157,-30.802283840306749596
0.303000000000000158,-30.645834008654254887
0.304000000000000159,-30.485975383523282289
0.305000000000000160,-30.322977711460218586
0.306000000000000161,-30.157097803685424253
0.307000000000000162,-29.988579661548214972
0.308000000000000163,-29.817654642364100681
0.309000000000000163,-29.644541661912818142
0.310000000000000164,-29.469447429993088861
0.311000000000000165,-29.292566715556922929
0.312000000000000166,-29.114082638082102505
0.313000000000000167,-28.934166981983235445
0.314000000000000168,-28.752980531008557108
0.315000000000000169,-28.570673419720275632
0.316000000000000170,-28.387385499308795289
0.317000000000000171,-28.203246715144899781
0.318000000000000171,-28.018377493627674824
0.319000000000000172,-27.832889136039330680
0.320000000000000173,-27.646884217268983264
0.321000000000000174,-27.460456987416478114
0.322000000000000175,-27.273693774433631631
0.323000000000000176,-27.086673386102130934
0.324000000000000177,-26.899467509786312291
0.325000000000000178,-26.712141108532563294
0.326000000000000179,-26.524752812216952691
0.327000000000000179,-26.337355302566834325
0.328000000000000180,-26.149995691001258535
0.329000000000000181,-25.962715888349855220
0.330000000000000182,-25.775552965617134049
0.331000000000000183,-25.588539505063792490
0.332000000000000184,-25.401703940973078488
0.333000000000000185,-25.215070889563328649
0.334000000000000186,-25.028661467594339740
0.335000000000000187,-24.842493599296574303
0.336000000000000187,-24.656582311328957502
0.337000000000000188,-24.470940015541479795
0.338000000000000189,-24.285576779385547042
0.339000000000000190,-24.100500583875877680
0.340000000000000191,-23.915717569064199211
0.341000000000000192,-23.731232267037487560
0.342000000000000193,-23.547047822500182690
0.343000000000000194,-23.363166201044290204
0.344000000000000195,-23.179588385249303428
0.345000000000000195,-22.996314558790821536
0.346000000000000196,-22.813344278767246465
0.347000000000000197,-22.630676636483109121
0.348000000000000198,-22.448310406952522555
0.349000000000000199,-22.266244187407785660
0.350000000000000200,-22.084476525117807455
0.351000000000000201,-21.903006034836838722
0.352000000000000202,-21.721831506217721852
0.353000000000000203,-21.540952001535497828
0.354000000000000203,-21.360366944075796169
0.355000000000000204,-21.180076197549634998
0.356000000000000205,-21.000080136901225103
0.357000000000000206,-20.820379710878533785
0.358000000000000207,-20.640976496737923895
0.359000000000000208,-20.461872747454300736
0.360000000000000209,-20.283071431806892093
0.361000000000000210,-20.104576267708054615
0.362000000000000210,-19.926391749138936405
0.363000000000000211,-19.748523167051011740
0.364000000000000212,-19.570976624586823078
0.365000000000000213,-19.393759046966806636
0.366000000000000214,-19.216878186381805449
0.367000000000000215,-19.040342622223061397
0.368000000000000216,-18.864161756973068407
0.369000000000000217,-18.688345808071765930
0.370000000000000218,-18.512905796063268582
0.371000000000000218,-18.337853529318628887
0.372000000000000219,-18.163201585620406320
0.373000000000000220,-17.988963290884566248
0.374000000000000221,-17.815152695285000561
0.375000000000000222,-17.641784547035548769
0.376000000000000223,-17.468874264074095493
0.377000000000000224,-17.296437903882740272
0.378000000000000225,-17.124492131667611972
0.379000000000000226,-16.953054187111490592
0.380000000000000226,-16.782141849902380670
0.381000000000000227,-16.611773404230394391
0.382000000000000228,-16.441967602436012186
0.383000000000000229,-16.272743627982372061
0.384000000000000230,-16.104121057914532855
0.385000000000000231,-15.936119824959760649
0.386000000000000232,-15.768760179412780076
0.387000000000000233,-15.602062650941576294
0.388000000000000234,-15.436048010440032385
0.389000000000000234,-15.270737232045672016
0.390000000000000235,-15.106151455431799491
0.391000000000000236,-14.942311948476071137
0.392000000000000237,-14.779240070399069396
0.393000000000000238,-14.616957235459603126
0.394000000000000239,-14.455484877285702083
0.395000000000000240,-14.294844413913835979
0.396000000000000241,-14.135057213601921688
0.397000000000000242,-13.976144561475399186
0.398000000000000242,-13.818127627059748619
0.399000000000000243,-13.661027432746788435
0.400000000000000244,-13.504864823236435001
0.401000000000000245,-13.349660435990978513
0.402000000000000246,-13.195434672733062698
0.403000000000000247,-13.042207672014308528
0.404000000000000248,-12.889999282877008469
0.405000000000000249,-12.738829039626946127
0.406000000000000250,-12.588716137731301714
0.407000000000000250,-12.439679410852054531
0.408000000000000251,-12.291737309021492308
0.409000000000000252,-12.144907877963390774
0.410000000000000253,-11.999208739559941606
0.411000000000000254,-11.854657073461982719
0.412000000000000255,-11.711269599837063282
0.413000000000000256,-11.569062563247623387
0.414000000000000257,-11.428051717648909147
0.415000000000000258,-11.288252312494494234
0.416000000000000258,-11.149679079934990966
0.417000000000000259,-11.012346223093768316
0.418000000000000260,-10.876267405402083810
0.419000000000000261,-10.741455740974050315
0.420000000000000262,-10.607923786001084210
0.421000000000000263,-10.475683531143802796
0.422000000000000264,-10.344746394898375996
0.423000000000000265,-10.215123217913500753
0.424000000000000266,-10.086824258233180629
0.425000000000000266,-9.959859187439787931
0.426000000000000267,-9.834237087671230171
0.427000000000000268,-9.709966449485623485
0.428000000000000269,-9.587055170546268101
0.429000000000000270,-9.465510555099623247
0.430000000000000271,-9.345339314218339410
0.431000000000000272,-9.226547566781700738
0.432000000000000273,-9.109140841165260127
0.433000000000000274,-8.993124077611842182
0.434000000000000274,-8.878501631255659277
0.435000000000000275,-8.765277275771799381
0.436000000000000276,-8.653454207623301642
0.437000000000000277,-8.543035050878021508
0.438000000000000278,-8.434021862568227945
0.439000000000000279,-8.326416138565694069
0.440000000000000280,-8.220218819945536382
0.441000000000000281,-8.115430299812546266
0.442000000000000282,-8.012050430564006120
0.443000000000000282,-7.910078531563348392
0.444000000000000283,-7.809513397199753015
0.445000000000000284,-7.710353305308968785
0.446000000000000285,-7.612596025931180677
0.447000000000000286,-7.516238830382644842
0.448000000000000287,-7.421278500617658480
0.449000000000000288,-7.327711338858786227
0.450000000000000289,-7.235533177473103983
0.451000000000000290,-7.144739389073349045
0.452000000000000290,-7.055324896823151448
0.453000000000000291,-6.967284184926195501
0.454000000000000292,-6.880611309279826671
0.455000000000000293,-6.795299908274051504
0.456000000000000294,-6.711343213717755773
0.457000000000000295,-6.628734061874260064
0.458000000000000296,-6.547464904589197943
0.459000000000000297,-6.467527820494163748
0.460000000000000298,-6.388914526270206728
0.461000000000000298,-6.311616387955873542
0.462000000000000299,-6.235624432285137075
0.463000000000000300,-6.160929358040919013
0.464000000000000301,-6.087521547410863931
0.465000000000000302,-6.015391077332250980
0.466000000000000303,-5.944527730813688571
0.467000000000000304,-5.874921008221659413
0.468000000000000305,-5.806560138520818981
0.469000000000000306,-5.739434090457016246
0.470000000000000306,-5.673531583673065981
0.471000000000000307,-5.608841099747303716
0.472000000000000308,-5.545350893146009597
0.473000000000000309,-5.483049002080695900
0.474000000000000310,-5.421923259262278805
0.475000000000000311,-5.361961302544212771
0.476000000000000312,-5.303150585447521159
0.477000000000000313,-5.245478387560575051
0.478000000000000314,-5.188931824807538895
0.479000000000000314,-5.133497859579367883
0.480000000000000315,-5.079163310721769520
0.481000000000000316,-5.025914863375125385
0.482000000000000317,-4.973739078661461477
0.483000000000000318,-4.922622403214209186
0.484000000000000319,-4.872551178546629558
0.485000000000000320,-4.823511650255413841
0.486000000000000321,-4.775489977055959123
0.487000000000000322,-4.728472239646451136
0.488000000000000322,-4.682444449398039943
0.489000000000000323,-4.637392556868817906
0.490000000000000324,-4.593302460139442545
0.491000000000000325,-4.550160012968727408
0.492000000000000326,-4.507951032767596011
0.493000000000000327,-4.466661308390269980
0.494000000000000328,-4.426276607741621127
0.495000000000000329,-4.386782685199984044
0.496000000000000330,-4.348165288854906052
0.497000000000000330,-4.310410167559519223
0.498000000000000331,-4.273503077797508709
0.499000000000000332,-4.237429790364721782
0.500000000000000333,-4.202176096865803956
0.501000000000000334,-4.167727816026308929
0.502000000000000335,-4.134070799820935171
0.503000000000000336,-4.101190939418810188
0.504000000000000337,-4.069074170946684887
0.505000000000000338,-4.037706481071282383
0.506000000000000338,-4.007073912402024263
0.507000000000000339,-3.977162568715539415
0.508000000000000340,-3.947958620003497288
0.509000000000000341,-3.919448307345453575
0.510000000000000342,-3.891617947608386086
0.511000000000000343,-3.864453937974829500
0.512000000000000344,-3.837942760301574996
0.513000000000000345,-3.812070985310928251
0.514000000000000346,-3.786825276616730296
0.515000000000000346,-3.762192394587253297
0.516000000000000347,-3.738159200047287190
0.517000000000000348,-3.714712657821822805
0.518000000000000349,-3.691839840123567917
0.519000000000000350,-3.669527929786898568
0.520000000000000351,-3.647764223350694834
0.521000000000000352,-3.626536133992555477
0.522000000000000353,-3.605831194317068000
0.523000000000000353,-3.585637059000640114
0.524000000000000354,-3.565941507295664614
0.525000000000000355,-3.546732445396588496
0.526000000000000356,-3.527997908670616134
0.527000000000000357,-3.509726063755800318
0.528000000000000358,-3.491905210529175463
0.529000000000000359,-3.474523783947743194
0.530000000000000360,-3.457570355765002823
0.531000000000000361,-3.441033636125819584
0.532000000000000361,-3.424902475042354233
0.533000000000000362,-3.409165863753826020
0.534000000000000363,-3.393812935972858380
0.535000000000000364,-3.378832969021113630
0.536000000000000365,-3.364215384857002444
0.537000000000000366,-3.349949750998161058
0.538000000000000367,-3.336025781341364738
0.539000000000000368,-3.322433336882677057
0.540000000000000369,-3.309162426340368057
0.541000000000000369,-3.296203206683377740
0.542000000000000370,-3.283545983567887738
0.543000000000000371,-3.271181211684609735
0.544000000000000372,-3.259099495019442738
0.545000000000000373,-3.247291587029964344
0.546000000000000374,-3.235748390740353919
0.547000000000000375,-3.224460958757224827
0.548000000000000376,-3.213420493208861473
0.549000000000000377,-3.202618345610277029
0.550000000000000377,-3.192046016656497454
0.551000000000000378,-3.181695155946498765
0.552000000000000379,-3.171557561640089951
0.553000000000000380,-3.161625180050082751
0.554000000000000381,-3.151890105172006518
0.555000000000000382,-3.142344578153643653
0.556000000000000383,-3.132980986706523474
0.557000000000000384,-3.123791864461618495
0.558000000000000385,-3.114769890271331665
0.559000000000000385,-3.105907887459887551
0.560000000000000386,-3.097198823024132963
0.561000000000000387,-3.088635806786876437
0.562000000000000388,-3.080212090504613531
0.563000000000000389,-3.071921066931699862
0.564000000000000390,-3.063756268842781072
0.565000000000000391,-3.055711368015415541
0.566000000000000392,-3.047780174174690160
0.567000000000000393,-3.039956633901602423
0.568000000000000393,-3.032234829506996299
0.569000000000000394,-3.024608977872739413
0.570000000000000395,-3.017073429261827755
0.571000000000000396,-3.009622666099041055
0.572000000000000397,-3.002251301723787069
0.573000000000000398,-2.994954079116638468
0.574000000000000399,-2.987725869601145945
0.575000000000000400,-2.980561671522370393
0.576000000000000401,-2.973456608903602749
0.577000000000000401,-2.966405930082711695
0.578000000000000402,-2.959405006329450138
0.579000000000000403,-2.952449330445086950
0.580000000000000404,-2.945534515345693105
0.581000000000000405,-2.938656292630314137
0.582000000000000406,-2.931810511135296782
0.583000000000000407,-2.924993135475961292
0.584000000000000408,-2.918200244576794500
0.585000000000000409,-2.911428030191281380
0.586000000000000409,-2.904672795412539088
0.587000000000000410,-2.897930953175724245
0.588000000000000411,-2.891199024753356106
0.589000000000000412,-2.884473638244506422
0.590000000000000413,-2.877751527058823644
0.591000000000000414,-2.871029528396385810
0.592000000000000415,-2.864304581724267607
0.593000000000000416,-2.857573727250689366
0.594000000000000417,-2.850834104397656610
0.595000000000000417,-2.844082950272885935
0.596000000000000418,-2.837317598141801067
0.597000000000000419,-2.830535475900433973
0.598000000000000420,-2.823734104549902924
0.599000000000000421,-2.816911096673244685
0.600000000000000422,-2.810064154915270507
0.601000000000000423,-2.803191070466111601
0.602000000000000424,-2.796289721549108265
0.603000000000000425,-2.789358071913658588
0.604000000000000425,-2.782394169333620049
0.605000000000000426,-2.775396144111815566
0.606000000000000427,-2.768362207591266611
0.607000000000000428,-2.761290650673535740
0.608000000000000429,-2.754179842344882889
