# AuFCC111UCD_CS-7021-AC
# h[nm],U(h)[kJ/mol]
0.200000000000000011,45.998458444672060352
0.201000000000000012,39.882053789508525199
0.202000000000000013,36.386629415561174028
0.203000000000000014,34.100795247044644043
0.204000000000000015,32.232389453648046640
0.205000000000000016,30.380857334288265292
0.206000000000000016,28.382519720771568927
0.207000000000000017,26.207760775167610490
0.208000000000000018,23.894717113532511377
0.209000000000000019,21.508223812408054698
0.210000000000000020,19.115893743593865395
0.211000000000000021,16.775526435873310049
0.212000000000000022,14.529755162066299690
0.213000000000000023,12.405095199658578764
0.214000000000000024,10.413466385054286789
0.215000000000000024,8.554916367767955165
0.216000000000000025,6.820733714181872465
0.217000000000000026,5.196462480220919389
0.218000000000000027,3.664549980951045338
0.219000000000000028,2.206505674487393431
0.220000000000000029,0.804542555425017292
0.221000000000000030,-0.557271077539905679
0.222000000000000031,-1.892290621444606469
0.223000000000000032,-3.210932171994109297
0.224000000000000032,-4.520591916595714466
0.225000000000000033,-5.825776239450839888
0.226000000000000034,-7.128378604429815191
0.227000000000000035,-8.428048811433047405
0.228000000000000036,-9.722610206244713282
0.229000000000000037,-11.008490025309448868
0.230000000000000038,-12.281136786899681468
0.231000000000000039,-13.535406251105914777
0.232000000000000040,-14.765903877120809540
0.233000000000000040,-15.967276926205078880
0.234000000000000041,-17.134453475135906331
0.235000000000000042,-18.262828735613673814
0.236000000000000043,-19.348401353291553306
0.237000000000000044,-20.387863921436228054
0.238000000000000045,-21.378652918445389730
0.239000000000000046,-22.318963784384145299
0.240000000000000047,-23.207736994802143471
0.241000000000000048,-24.044620861436538206
0.242000000000000048,-24.829916465875932374
0.243000000000000049,-25.564509677341654026
0.244000000000000050,-26.249794670717342626
0.245000000000000051,-26.887592786325363647
0.246000000000000052,-27.480069989829143395
0.247000000000000053,-28.029655622237743984
0.248000000000000054,-28.538964592872027026
0.249000000000000055,-29.010724673482314984
0.250000000000000056,-29.447710106302213973
0.251000000000000056,-29.852682346072576536
0.252000000000000057,-30.228338416746701967
0.253000000000000058,-30.577267076495907361
0.254000000000000059,-30.901912747181263796
0.255000000000000060,-31.204546973080415029
0.256000000000000061,-31.487247024208947721
0.257000000000000062,-31.751881147583798537
0.258000000000000063,-32.000099890682449200
0.259000000000000064,-32.233332870661847380
0.260000000000000064,-32.452790336312787645
0.261000000000000065,-32.659468863204644151
0.262000000000000066,-32.854160532315049181
0.263000000000000067,-33.037464965281969853
0.264000000000000068,-33.209803622275288149
0.265000000000000069,-33.371435808735824935
0.266000000000000070,-33.522475882599657382
0.267000000000000071,-33.662911202177930647
0.268000000000000071,-33.792620404967713910
0.269000000000000072,-33.911391657986087012
0.270000000000000073,-34.018940569659562811
0.271000000000000074,-34.114927501004572719
0.272000000000000075,-34.198974059145776039
0.273000000000000076,-34.270678598652047242
0.274000000000000077,-34.329630595392735870
0.275000000000000078,-34.375423793422115182
0.276000000000000079,-34.407668057686528584
0.277000000000000079,-34.425999894105032695
0.278000000000000080,-34.430091623854409022
0.279000000000000081,-34.419659220608721739
0.280000000000000082,-34.394468838195741967
0.281000000000000083,-34.354342071824419236
0.282000000000000084,-34.299160008917553455
0.283000000000000085,-34.228866135875804844
0.284000000000000086,-34.143468175030122325
0.285000000000000087,-34.043038931843383921
0.286000000000000087,-33.927716236325125010
0.287000000000000088,-33.797702064848039072
0.288000000000000089,-33.653260929314498640
0.289000000000000090,-33.494717620117270940
0.290000000000000091,-33.322454387758639882
0.291000000000000092,-33.136907645514199316
0.292000000000000093,-32.938564272310181025
0.293000000000000094,-32.727957591175673713
0.294000000000000095,-32.505663094364940946
0.295000000000000095,-32.272293981640331140
0.296000000000000096,-32.028496573367959854
0.297000000000000097,-31.774945655100204078
0.298000000000000098,-31.512339805281037286
0.299000000000000099,-31.241396752683812110
0.300000000000000100,-30.962848805233118554
0.301000000000000101,-30.677438387025279809
0.302000000000000102,-30.385913715684967684
0.303000000000000103,-30.089024647711987370
0.304000000000000103,-29.787518715208886277
0.305000000000000104,-29.482137373355335797
0.306000000000000105,-29.173612474224569269
0.307000000000000106,-28.862662979027664534
0.308000000000000107,-28.549991917629665039
0.309000000000000108,-28.236283601207411209
0.310000000000000109,-27.922201091210247625
0.311000000000000110,-27.608383925337630416
0.312000000000000111,-27.295446099053293665
0.313000000000000111,-26.983974299207385883
0.314000000000000112,-26.674526384623710840
0.315000000000000113,-26.367630107017912877
0.316000000000000114,-26.063782064333430810
0.317000000000000115,-25.763446877499596610
0.318000000000000116,-25.467056580720516479
0.319000000000000117,-25.175010214678412268
0.320000000000000118,-24.887673611469374180
0.321000000000000119,-24.605379359668866357
0.322000000000000119,-24.328426937636621119
0.323000000000000120,-24.057083003002979638
0.324000000000000121,-23.791581826219221796
0.325000000000000122,-23.532125856091642646
0.326000000000000123,-23.278886405342085197
0.327000000000000124,-23.032004444435308699
0.328000000000000125,-22.791591492177719402
0.329000000000000126,-22.557730591911372642
0.330000000000000127,-22.330477362494498550
0.331000000000000127,-22.109861113667861332
0.332000000000000128,-21.895886015845231753
0.333000000000000129,-21.688532314832443149
0.334000000000000130,-21.487757582463956396
0.335000000000000131,-21.293497994646003235
0.336000000000000132,-21.105669628802456117
0.337000000000000133,-20.924169773233096237
0.338000000000000134,-20.748878241406277567
0.339000000000000135,-20.579658684718598494
0.340000000000000135,-20.416359897756940711
0.341000000000000136,-20.258817110593447808
0.342000000000000137,-20.106853263126595266
0.343000000000000138,-19.960280256951456579
0.344000000000000139,-19.818900180696420676
0.345000000000000140,-19.682506505201978086
0.346000000000000141,-19.550885245336850460
0.347000000000000142,-19.423816085648958563
0.348000000000000143,-19.301073467430871489
0.349000000000000143,-19.182427635142179412
0.350000000000000144,-19.067645640474079727
0.351000000000000145,-18.956492302664198490
0.352000000000000146,-18.848731123972338963
0.353000000000000147,-18.744125159510552692
0.354000000000000148,-18.642437840884390710
0.355000000000000149,-18.543433753345688331
0.356000000000000150,-18.446879366382837873
0.357000000000000151,-18.352543717880774210
0.358000000000000151,-18.260199052172644940
0.359000000000000152,-18.169621412476487876
0.360000000000000153,-18.080591188366216926
0.361000000000000154,-17.992893619066052224
0.362000000000000155,-17.906319253481960629
0.363000000000000156,-17.820664367994627497
0.364000000000000157,-17.735731343134851556
0.365000000000000158,-17.651329000346979825
0.366000000000000159,-17.567272900117330892
0.367000000000000159,-17.483385602805501691
0.368000000000000160,-17.399496893566510636
0.369000000000000161,-17.315443972791445759
0.370000000000000162,-17.231071613525195119
0.371000000000000163,-17.146232287342265010
0.372000000000000164,-17.060786260175337503
0.373000000000000165,-16.974601659599017012
0.374000000000000166,-16.887554515070718253
0.375000000000000167,-16.799528772625251349
0.376000000000000167,-16.710416285508177481
0.377000000000000168,-16.620116782216506124
0.378000000000000169,-16.528537813394443390
0.379000000000000170,-16.435594679006971575
0.380000000000000171,-16.341210337185259505
0.381000000000000172,-16.245315296106639380
0.382000000000000173,-16.147847490236792112
0.383000000000000174,-16.048752142225573891
0.384000000000000175,-15.947981611708602401
0.385000000000000175,-15.845495232226411986
0.386000000000000176,-15.741259137430947845
0.387000000000000177,-15.635246077706147716
0.388000000000000178,-15.527435228285586533
0.389000000000000179,-15.417811989905604975
0.390000000000000180,-15.306367782987518211
0.391000000000000181,-15.193099836297665917
0.392000000000000182,-15.078010970989007333
0.393000000000000183,-14.961109380883200970
0.394000000000000183,-14.842408409807807956
0.395000000000000184,-14.721926326759387393
0.396000000000000185,-14.599686099619702873
0.397000000000000186,-14.475715168110207642
0.398000000000000187,-14.350045216627682620
0.399000000000000188,-14.222711947563519530
0.400000000000000189,-14.093754855669180515
0.401000000000000190,-13.963217003991399423
0.402000000000000191,-13.831144801863464622
0.403000000000000191,-13.697587785401855953
0.404000000000000192,-13.562598400922748709
0.405000000000000193,-13.426231791658215897
0.406000000000000194,-13.288545588119589524
0.407000000000000195,-13.149599702423540037
0.408000000000000196,-13.009456126866089321
0.409000000000000197,-12.868178737000794953
0.410000000000000198,-12.725833099449465280
0.411000000000000199,-12.582486284647220742
0.412000000000000199,-12.438206684698236870
0.413000000000000200,-12.293063836494820151
0.414000000000000201,-12.147128250229197732
0.415000000000000202,-12.000471243405860022
0.416000000000000203,-11.853164780442096315
0.417000000000000204,-11.705281317924530526
0.418000000000000205,-11.556893655571695234
0.419000000000000206,-11.408074792935439135
0.420000000000000207,-11.258897791857650716
0.421000000000000207,-11.109435644684387157
0.422000000000000208,-10.959761148224730576
0.423000000000000209,-10.809946783429369432
0.424000000000000210,-10.660064600751367081
0.425000000000000211,-10.510186111140459531
0.426000000000000212,-10.360382182612145385
0.427000000000000213,-10.210722942323000595
0.428000000000000214,-10.061277684075291106
0.429000000000000214,-9.912114781165820787
0.430000000000000215,-9.763301604486834151
0.431000000000000216,-9.614904445780510400
0.432000000000000217,-9.466988445942408958
0.433000000000000218,-9.319617528264428685
0.434000000000000219,-9.172854336503039718
0.435000000000000220,-9.026760177654718831
0.436000000000000221,-8.881394969316954047
0.437000000000000222,-8.736817191510267477
0.438000000000000222,-8.593083842834470687
0.439000000000000223,-8.450250400830009667
0.440000000000000224,-8.308370786414066345
0.441000000000000225,-8.167497332259650022
0.442000000000000226,-8.027680754985443201
0.443000000000000227,-7.888970131023393506
0.444000000000000228,-7.751412876031257504
0.445000000000000229,-7.615054727717359029
0.446000000000000230,-7.479939731945409065
0.447000000000000230,-7.346110231987982964
0.448000000000000231,-7.213606860798219778
0.449000000000000232,-7.082468536170611451
0.450000000000000233,-6.952732458663263060
0.451000000000000234,-6.824434112155381982
0.452000000000000235,-6.697607266915949431
0.453000000000000236,-6.572283985061058154
0.454000000000000237,-6.448494628279969554
0.455000000000000238,-6.326267867711685255
0.456000000000000238,-6.205630695856649837
0.457000000000000239,-6.086608440410150145
0.458000000000000240,-5.969224779907110090
0.459000000000000241,-5.853501761069820120
0.460000000000000242,-5.739459817753624904
0.461000000000000243,-5.627117791387603596
0.462000000000000244,-5.516492952810589934
0.463000000000000245,-5.407601025405233131
0.464000000000000246,-5.300456209435985500
0.465000000000000246,-5.195071207499553978
0.466000000000000247,-5.091457250999245510
0.467000000000000248,-4.989624127557419797
0.468000000000000249,-4.889580209283389323
0.469000000000000250,-4.791332481816551692
0.470000000000000251,-4.694886574067774987
0.471000000000000252,-4.600246788584469115
0.472000000000000253,-4.507416132468007319
0.473000000000000254,-4.416396348774513925
0.474000000000000254,-4.327187948333033773
0.475000000000000255,-4.239790241917679836
0.476000000000000256,-4.154201372712983620
0.477000000000000257,-4.070418349014472525
0.478000000000000258,-3.988437077108722750
0.479000000000000259,-3.908252394280029129
0.480000000000000260,-3.829858101893093725
0.481000000000000261,-3.753246998503467324
0.482000000000000262,-3.678410912950228262
0.483000000000000262,-3.605340737387178418
0.484000000000000263,-3.534026460211552312
0.485000000000000264,-3.464457198851110142
0.486000000000000265,-3.396621232372875276
0.487000000000000266,-3.330506033878694261
0.488000000000000267,-3.266098302654847796
0.489000000000000268,-3.203383996045107374
0.490000000000000269,-3.142348361018176384
0.491000000000000270,-3.082975965402760643
0.492000000000000270,-3.025250728764854902
0.493000000000000271,-2.969155952903995477
0.494000000000000272,-2.914674351946556552
0.495000000000000273,-2.861788082016031964
0.496000000000000274,-2.810478770461741771
0.497000000000000275,-2.760727544628805319
0.498000000000000276,-2.712515060153907420
0.499000000000000277,-2.665821528772545967
0.500000000000000222,-2.620626745625013854
0.501000000000000334,-2.576910116049418775
0.502000000000000224,-2.534650681851666754
0.503000000000000336,-2.493827147042954273
0.504000000000000226,-2.454417903037191095
0.505000000000000338,-2.416401053301074686
0.506000000000000227,-2.379754437451401028
0.507000000000000339,-2.344455654794331600
0.508000000000000229,-2.310482087303154408
0.509000000000000341,-2.277810922031240359
0.510000000000000231,-2.246419172958365351
0.511000000000000343,-2.216283702268828648
0.512000000000000233,-2.187381241061141957
0.513000000000000345,-2.159688409489286975
0.514000000000000234,-2.133181736336721368
0.515000000000000346,-2.107837678024464090
0.516000000000000236,-2.083632637055763848
0.517000000000000348,-2.060542979899953941
0.518000000000000238,-2.038545054319016447
0.519000000000000350,-2.017615206140656259
0.520000000000000240,-1.997729795482371840
0.521000000000000352,-1.978865212431272225
0.522000000000000242,-1.960997892185007530
0.523000000000000353,-1.944104329659442243
0.524000000000000243,-1.928161093569152218
0.525000000000000355,-1.913144839987086288
0.526000000000000245,-1.899032325390212605
0.527000000000000357,-1.885800419198017552
0.528000000000000247,-1.873426115811294368
0.529000000000000359,-1.861886546158582068
0.530000000000000249,-1.851158988758144330
0.531000000000000361,-1.841220880303322982
0.532000000000000250,-1.832049825779513696
0.533000000000000362,-1.823623608120938488
0.534000000000000252,-1.815920197415731963
0.535000000000000364,-1.808917759667923564
0.536000000000000254,-1.802594665124886308
0.537000000000000366,-1.796929496179135555
0.538000000000000256,-1.791901054853266118
0.539000000000000368,-1.787488369876899741
0.540000000000000258,-1.783670703364691024
0.541000000000000369,-1.780427557104286462
0.542000000000000259,-1.777738678463299804
0.543000000000000371,-1.775584065924297850
0.544000000000000261,-1.773943974256875888
0.545000000000000373,-1.772798919335719869
0.546000000000000263,-1.772129682613761137
0.547000000000000375,-1.771917315259308623
0.548000000000000265,-1.772143141966076474
0.549000000000000377,-1.772788764445023535
0.550000000000000266,-1.773836064606705065
0.551000000000000378,-1.775267207443019801
0.552000000000000268,-1.777064643616920403
0.553000000000000380,-1.779211111768698839
0.554000000000000270,-1.781689640547390541
0.555000000000000382,-1.784483550375689287
0.556000000000000272,-1.787576454956712579
0.557000000000000384,-1.790952262530786099
0.558000000000000274,-1.794595176890489086
0.559000000000000385,-1.798489698161829908
0.560000000000000275,-1.802620623359549423
0.561000000000000387,-1.806973046724315690
0.562000000000000277,-1.811532359849424179
0.563000000000000389,-1.816284251604625366
0.564000000000000279,-1.821214707864444282
0.565000000000000391,-1.826310011048329685
0.566000000000000281,-1.831556739479719864
0.567000000000000393,-1.836941766571182910
0.568000000000000282,-1.842452259842421558
0.569000000000000394,-1.848075679778002911
0.570000000000000284,-1.853799778531361131
0.571000000000000396,-1.859612598481700685
0.572000000000000286,-1.865502470650065359
0.573000000000000398,-1.871458012980864449
0.574000000000000288,-1.877468128494907518
0.575000000000000400,-1.883522003320026839
0.576000000000000290,-1.889609104604958789
0.577000000000000401,-1.895719178322325060
0.578000000000000291,-1.901842246966194638
0.579000000000000403,-1.907968607149669538
0.580000000000000293,-1.914088827107800039
0.581000000000000405,-1.920193744111029943
0.582000000000000295,-1.926274461794084347
0.583000000000000407,-1.932322347405373675
0.584000000000000297,-1.938329028981510715
0.585000000000000409,-1.944286392451739953
0.586000000000000298,-1.950186578676659455
0.587000000000000410,-1.956021980425748596
0.588000000000000300,-1.961785239297866301
0.589000000000000412,-1.967469242588945733
0.590000000000000302,-1.973067120110843176
0.591000000000000414,-1.978572240965306817
0.592000000000000304,-1.983978210276791554
0.593000000000000416,-1.989278865887840642
0.594000000000000306,-1.994468275020546244
0.595000000000000417,-1.999540730907598318
0.596000000000000307,-2.004490749396139915
0.597000000000000419,-2.009313065527777997
0.598000000000000309,-2.014002630097800228
0.599000000000000421,-2.018554606196586665
0.600000000000000311,-2.022964365736180881
0.601000000000000423,-2.027227485964796738
0.602000000000000313,-2.031339745971950883
0.603000000000000425,-2.035297123186864177
0.604000000000000314,-2.039095789872610531
0.605000000000000426,-2.042732109618460967
0.606000000000000316,-2.046202633832737483
0.607000000000000428,-2.049504098238377647
0.608000000000000318,-2.052633419373437462
0.609000000000000430,-2.055587691098536229
0.610000000000000320,-2.058364181113200964
0.611000000000000432,-2.060960327483098986
0.612000000000000322,-2.063373735179859114
0.613000000000000433,-2.065602172635308431
0.614000000000000323,-2.067643568311743785
0.615000000000000435,-2.069496007289834072
0.616000000000000325,-2.071157727875644561
0.617000000000000437,-2.072627118228279386
0.618000000000000327,-2.073902713009446508
0.619000000000000439,-2.074983190056296500
0.620000000000000329,-2.075867367078774173
0.621000000000000441,-2.076554198382610572
0.622000000000000330,-2.077042771619153072
0.623000000000000442,-2.077332304562993226
0.624000000000000332,-2.077422141918447984
0.625000000000000444,-2.077311752155827751
0.626000000000000334,-2.077000724378328389
0.627000000000000446,-2.076488765220426469
0.628000000000000336,-2.075775695778534935
0.629000000000000448,-2.074861448574623957
0.630000000000000338,-2.073746064553497970
0.631000000000000449,-2.072429690114371947
0.632000000000000339,-2.070912574177315335
0.633000000000000451,-2.069195065285066359
0.634000000000000341,-2.067277608740769601
0.635000000000000453,-2.065160743782066710
0.636000000000000343,-2.062845100791895536
0.637000000000000455,-2.060331398546497716
0.638000000000000345,-2.057620441500795927
0.639000000000000457,-2.054713117111602205
0.640000000000000346,-2.051610393198805671
0.641000000000000458,-2.048313315344835406
0.642000000000000348,-2.044823004332532612
0.643000000000000460,-2.041140653621659418
0.644000000000000350,-2.037267526864132261
0.645000000000000462,-2.033204955458093544
0.646000000000000352,-2.028954336140897485
0.647000000000000464,-2.024517128621071471
0.648000000000000353,-2.019894853249248889
0.649000000000000465,-2.015089088728078792
0.650000000000000355,-2.010101469861116819
0.651000000000000467,-2.004933685340570371
0.652000000000000357,-1.999587475573934015
0.653000000000000469,-1.994064630549281958
0.654000000000000359,-1.988366987739268010
0.655000000000000471,-1.982496430043540814
0.656000000000000361,-1.976454883769527271
0.657000000000000473,-1.970244316651372340
0.658000000000000362,-1.963866735906854899
