# AuFCC111UCD_CS-11727-AC
# h[nm],U(h)[kJ/mol]
0.200000000000000011,40.173025698703462183
0.201000000000000012,34.140948745385507834
0.202000000000000013,31.237262988296627952
0.203000000000000014,29.737563067403904427
0.204000000000000015,28.679866819039926185
0.205000000000000016,27.582358562351124931
0.206000000000000016,26.252233114112819123
0.207000000000000017,24.659208011800917149
0.208000000000000018,22.854330689101622909
0.209000000000000019,20.919998899166621698
0.210000000000000020,18.941057661534596690
0.211000000000000021,16.989758991790750997
0.212000000000000022,15.119521173050623375
0.213000000000000023,13.363993622544938944
0.214000000000000024,11.739067674035990052
0.215000000000000024,10.246284167102668761
0.216000000000000025,8.876660070176402684
0.217000000000000026,7.614352269102141690
0.218000000000000027,6.439845090080398293
0.219000000000000028,5.332524951466699470
0.220000000000000029,4.272617388990785692
0.221000000000000030,3.242528215285796822
0.222000000000000031,2.227666117349278885
0.223000000000000032,1.216838956808894645
0.224000000000000032,0.202317845948829594
0.225000000000000033,-0.820343043140531414
0.226000000000000034,-1.852653407201398483
0.227000000000000035,-2.893635259388667169
0.228000000000000036,-3.940320289585821367
0.229000000000000037,-4.988255472149478287
0.230000000000000038,-6.031986974069766916
0.231000000000000039,-7.065501650751187412
0.232000000000000040,-8.082613097212638209
0.233000000000000040,-9.077285401778166118
0.234000000000000041,-10.043892551778714761
0.235000000000000042,-10.977415028594712965
0.236000000000000043,-11.873577679031228627
0.237000000000000044,-12.728934637025473009
0.238000000000000045,-13.540908059053290202
0.239000000000000046,-14.307787877450593328
0.240000000000000047,-15.028699798893224937
0.241000000000000048,-15.703548492086977006
0.242000000000000048,-16.332942412416880273
0.243000000000000049,-16.918106077841034818
0.244000000000000050,-17.460784900217433346
0.245000000000000051,-17.963146936574048596
0.246000000000000052,-18.427685191056170311
0.247000000000000053,-18.857123396212582378
0.248000000000000054,-19.254327549719441492
0.249000000000000055,-19.622224890943293474
0.250000000000000056,-19.963731477162959038
0.251000000000000056,-20.281689064096660502
0.252000000000000057,-20.578811608939076905
0.253000000000000058,-20.857641393560815146
0.254000000000000059,-21.120514506523125675
0.255000000000000060,-21.369535219814281390
0.256000000000000061,-21.606558643882507909
0.257000000000000062,-21.833180936574802189
0.258000000000000063,-22.050736271976422387
0.259000000000000064,-22.260299738084015075
0.260000000000000064,-22.462695322280602284
0.261000000000000065,-22.658508155679875529
0.262000000000000066,-22.848100217014721380
0.263000000000000067,-23.031628739794381744
0.264000000000000068,-23.209066619380813279
0.265000000000000069,-23.380224176350871801
0.266000000000000070,-23.544771696389837246
0.267000000000000071,-23.702262232801764696
0.268000000000000071,-23.852154223711995229
0.269000000000000072,-23.993833540717197650
0.270000000000000073,-24.126634647962998059
0.271000000000000074,-24.249860609526130872
0.272000000000000075,-24.362801737916559119
0.273000000000000076,-24.464752727064301041
0.274000000000000077,-24.555028159061915716
0.275000000000000078,-24.632976315082281360
0.276000000000000079,-24.697991257287668532
0.277000000000000079,-24.749523180288836244
0.278000000000000080,-24.787087057972865267
0.279000000000000081,-24.810269634524257043
0.280000000000000082,-24.818734827483027061
0.281000000000000083,-24.812227626011519988
0.282000000000000084,-24.790576579489808751
0.283000000000000085,-24.753694980447981777
0.284000000000000086,-24.701580851989540122
0.285000000000000087,-24.634315853578648614
0.286000000000000087,-24.552063220655192310
0.287000000000000088,-24.455064853295844784
0.288000000000000089,-24.343637667325737084
0.289000000000000090,-24.218169318159230130
0.290000000000000091,-24.079113403440434382
0.291000000000000092,-23.926984245480177549
0.292000000000000093,-23.762351348736661549
0.293000000000000094,-23.585833621337744859
0.294000000000000095,-23.398093443044935213
0.295000000000000095,-23.199830655250284650
0.296000000000000096,-22.991776541694207481
0.297000000000000097,-22.774687861696286006
0.298000000000000098,-22.549340990889572112
0.299000000000000099,-22.316526217812526767
0.300000000000000100,-22.077042238303000943
0.301000000000000101,-21.831690883500552758
0.302000000000000102,-21.581272111437915129
0.303000000000000103,-21.326579286713773342
0.304000000000000103,-21.068394767610286067
0.305000000000000104,-20.807485815260253759
0.306000000000000105,-20.544600835088605351
0.307000000000000106,-20.280465956749829104
0.308000000000000107,-20.015781955155937055
0.309000000000000108,-19.751221511928601871
0.310000000000000109,-19.487426813705035045
0.311000000000000110,-19.225007481166457524
0.312000000000000111,-18.964538820424429844
0.313000000000000111,-18.706560386478646052
0.314000000000000112,-18.451574846830432364
0.315000000000000113,-18.200047131981033743
0.316000000000000114,-17.952403858444547780
0.317000000000000115,-17.709033009040730633
0.318000000000000116,-17.470283854585694883
0.319000000000000117,-17.236467100648514617
0.320000000000000118,-17.007855242771036330
0.321000000000000119,-16.784683113438255475
0.322000000000000119,-16.567148604121371136
0.323000000000000120,-16.355413545877347303
0.324000000000000121,-16.149604732262652362
0.325000000000000122,-15.949815068690208264
0.326000000000000123,-15.756104832813182526
0.327000000000000124,-15.568503031044391705
0.328000000000000125,-15.387008836904545461
0.329000000000000126,-15.211593097523842033
0.330000000000000127,-15.042199895291030742
0.331000000000000127,-14.878748152341819022
0.332000000000000128,-14.721133266296103415
0.333000000000000129,-14.569228766384068052
0.334000000000000130,-14.422887979836710670
0.335000000000000131,-14.281945699152544194
0.336000000000000132,-14.146219841581887167
0.337000000000000133,-14.015513092890083513
0.338000000000000134,-13.889614528166237761
0.339000000000000135,-13.768301203131859012
0.340000000000000135,-13.651339710070377720
0.341000000000000136,-13.538487693142192470
0.342000000000000137,-13.429495318468269716
0.343000000000000138,-13.324106694956762809
0.344000000000000139,-13.222061242410541482
0.345000000000000140,-13.123095003988305862
0.346000000000000141,-13.026941900596417767
0.347000000000000142,-12.933334925264350801
0.348000000000000143,-12.842007276001345062
0.349000000000000143,-12.752693426047711611
0.350000000000000144,-12.665130130819964194
0.351000000000000145,-12.579057371206337379
0.352000000000000146,-12.494219233197688013
0.353000000000000147,-12.410364724140265480
0.354000000000000148,-12.327248526171169729
0.355000000000000149,-12.244631687646068130
0.356000000000000150,-12.162282253592707093
0.357000000000000151,-12.079975836423891167
0.358000000000000151,-11.997496128321326836
0.359000000000000152,-11.914635356857456117
0.360000000000000153,-11.831194685558442004
0.361000000000000154,-11.746984561227582944
0.362000000000000155,-11.661825009946785059
0.363000000000000156,-11.575545883755113508
0.364000000000000157,-11.487987060068642009
0.365000000000000158,-11.398998595956745916
0.366000000000000159,-11.308440839426733504
0.367000000000000159,-11.216184499892841941
0.368000000000000160,-11.122110680018696627
0.369000000000000161,-11.026110871123647073
0.370000000000000162,-10.928086914335926494
0.371000000000000163,-10.827950929658850754
0.372000000000000164,-10.725625215091296738
0.373000000000000165,-10.621042117912184111
0.374000000000000166,-10.514143880200007786
0.375000000000000167,-10.404882460614768291
0.376000000000000167,-10.293219334420498967
0.377000000000000168,-10.179125273673346186
0.378000000000000169,-10.062580109443111098
0.379000000000000170,-9.943572477876108096
0.380000000000000171,-9.822099551844109655
0.381000000000000172,-9.698166759859638830
0.382000000000000173,-9.571787493870937524
0.383000000000000174,-9.442982807482419361
0.384000000000000175,-9.311781106077598125
0.385000000000000175,-9.178217830252517473
0.386000000000000176,-9.042335133898264488
0.387000000000000177,-8.904181558202269642
0.388000000000000178,-8.763811702769185530
0.389000000000000179,-8.621285894994210608
0.390000000000000180,-8.476669858754666720
0.391000000000000181,-8.330034383419288702
0.392000000000000182,-8.181454994110348267
0.393000000000000183,-8.031011624089764211
0.394000000000000183,-7.878788290079048906
0.395000000000000184,-7.724872771262292659
0.396000000000000185,-7.569356292663179886
0.397000000000000186,-7.412333213530395426
0.398000000000000187,-7.253900721310939659
0.399000000000000188,-7.094158531738098183
0.400000000000000189,-6.933208595510350847
0.401000000000000190,-6.771154811988076005
0.402000000000000191,-6.608102750289061689
0.403000000000000191,-6.444159378118324177
0.404000000000000192,-6.279432798625641077
0.405000000000000193,-6.114031995543423470
0.406000000000000194,-5.948066586818897328
0.407000000000000195,-5.781646586918261832
0.408000000000000196,-5.614882177945480279
0.409000000000000197,-5.447883489686065062
0.410000000000000198,-5.280760388655251880
0.411000000000000199,-5.113622276201100547
0.412000000000000199,-4.946577895685829951
0.413000000000000200,-4.779735148743691653
0.414000000000000201,-4.613200920589656917
0.415000000000000202,-4.447080914331464463
0.416000000000000203,-4.281479494217324877
0.417000000000000204,-4.116499537732364544
0.418000000000000205,-3.952242296440144464
0.419000000000000206,-3.788807265449317896
0.420000000000000207,-3.626292061371047204
0.421000000000000207,-3.464792308619996763
0.422000000000000208,-3.304401533899270049
0.423000000000000209,-3.145211068699555135
0.424000000000000210,-2.987309959632785006
0.425000000000000211,-2.830784886412463841
0.426000000000000212,-2.675720087285286208
0.427000000000000213,-2.522197291712381606
0.428000000000000214,-2.370295660093069134
0.429000000000000214,-2.220091730319332157
0.430000000000000215,-2.071659370945572842
0.431000000000000216,-1.925069740755470438
0.432000000000000217,-1.780391254505023113
0.433000000000000218,-1.637689554620027410
0.434000000000000219,-1.497027488624825819
0.435000000000000220,-1.358465092079242709
0.436000000000000221,-1.222059576800767378
0.437000000000000222,-1.087865324149900781
0.438000000000000222,-0.955933883157982001
0.439000000000000223,-0.826313973278449021
0.440000000000000224,-0.699051491544721015
0.441000000000000225,-0.574189523920358047
0.442000000000000226,-0.451768360630289856
0.443000000000000227,-0.331825515264696058
0.444000000000000228,-0.214395747450973950
0.445000000000000229,-0.099511088892761432
0.446000000000000230,0.012799127420928823
0.447000000000000230,0.122508235029383378
0.448000000000000231,0.229592199025121735
0.449000000000000232,0.334029578474057731
0.450000000000000233,0.435801486410318017
0.451000000000000234,0.534891547580258475
0.452000000000000235,0.631285854105512856
0.453000000000000236,0.724972919229918689
0.454000000000000237,0.815943629310163177
0.455000000000000238,0.904191194205110294
0.456000000000000238,0.989711096213491737
0.457000000000000239,1.072501037704932880
0.458000000000000240,1.152560887583733429
0.459000000000000241,1.229892626720352267
0.460000000000000242,1.304500292479943147
0.461000000000000243,1.376389922472755600
0.462000000000000244,1.445569497645920354
0.463000000000000245,1.512048884831449280
0.464000000000000246,1.575839778860314011
0.465000000000000246,1.636955644347645178
0.466000000000000247,1.695411657249503490
0.467000000000000248,1.751224646286967612
0.468000000000000249,1.804413034328597787
0.469000000000000250,1.854996779818106178
0.470000000000000251,1.902997318329428200
0.471000000000000252,1.948437504327301895
0.472000000000000253,1.991341553207112813
0.473000000000000254,2.031734983683723517
0.474000000000000254,2.069644560595093274
0.475000000000000255,2.105098238182388393
0.476000000000000256,2.138125103904818580
0.477000000000000257,2.168755322843371136
0.478000000000000258,2.197020082744395975
0.479000000000000259,2.222951539750333438
0.480000000000000260,2.246582764861516868
0.481000000000000261,2.267947691169891922
0.482000000000000262,2.287081061902092927
0.483000000000000262,2.304018379306624453
0.484000000000000263,2.318795854416584312
0.485000000000000264,2.331450357716955413
0.486000000000000265,2.342019370742360884
0.487000000000000266,2.350540938628888465
0.488000000000000267,2.357053623641007345
0.489000000000000268,2.361596459691966743
0.490000000000000269,2.364208907874163490
0.491000000000000270,2.364930813013337740
0.492000000000000270,2.363802361258662721
0.493000000000000271,2.360864038718534008
0.494000000000000272,2.356156591150173174
0.495000000000000273,2.349720984709021021
0.496000000000000274,2.341598367762448785
0.497000000000000275,2.331830033770479371
0.498000000000000276,2.320457385234576009
0.499000000000000277,2.307521898714302466
0.500000000000000222,2.293065090909882198
0.501000000000000334,2.277128485807736080
0.502000000000000224,2.259753582884416634
0.503000000000000336,2.240981826363509732
0.504000000000000226,2.220854575518711904
0.505000000000000338,2.199413076015316104
0.506000000000000227,2.176698432281377382
0.507000000000000339,2.152751580898868866
0.508000000000000229,2.127613265004318244
0.509000000000000341,2.101324009687433936
0.510000000000000231,2.073924098375866443
0.511000000000000343,2.045453550193051306
0.512000000000000233,2.015952098275968218
0.513000000000000345,1.985459169038572780
0.514000000000000234,1.954013862366571264
0.515000000000000346,1.921654932728303011
0.516000000000000236,1.888420771186488212
0.517000000000000348,1.854349388294696199
0.518000000000000238,1.819478397862634766
0.519000000000000350,1.783845001573359124
0.520000000000000240,1.747485974435911915
0.521000000000000352,1.710437651056072594
0.522000000000000242,1.672735912708184669
0.523000000000000353,1.634416175190337217
0.524000000000000243,1.595513377445643588
0.525000000000000355,1.556061970931649885
0.526000000000000245,1.516095909720314827
0.527000000000000357,1.475648641310538300
0.528000000000000247,1.434753098135583826
0.529000000000000359,1.393441689747363821
0.530000000000000249,1.351746295659888020
0.531000000000000361,1.309698258833949414
0.532000000000000250,1.267328379785455317
0.533000000000000362,1.224666911299560290
0.534000000000000252,1.181743553733328067
0.535000000000000364,1.138587450889064767
0.536000000000000254,1.095227186441550149
0.537000000000000366,1.051690780901443301
0.538000000000000256,1.008005689098369739
0.539000000000000368,0.964198798166453264
0.540000000000000258,0.920296426016011693
0.541000000000000369,0.876324320274599833
0.542000000000000259,0.832307657681595869
0.543000000000000371,0.788271043919905212
0.544000000000000261,0.744238513869265206
0.545000000000000373,0.700233532265470693
0.546000000000000263,0.656278994750319034
0.547000000000000375,0.612397229296939516
0.548000000000000265,0.568609997996139649
0.549000000000000377,0.524938499188670749
0.550000000000000266,0.481403369929658542
0.551000000000000378,0.438024688770686066
0.552000000000000268,0.394821978846152499
0.553000000000000380,0.351814211250152664
0.554000000000000270,0.309019808690884301
0.555000000000000382,0.266456649409410828
0.556000000000000272,0.224142071350398708
0.557000000000000384,0.182092876572203188
0.558000000000000274,0.140325335884396940
0.559000000000000385,0.098855193700775348
0.560000000000000275,0.057697673096466597
0.561000000000000387,0.016867481057703283
0.562000000000000277,-0.023621186086494196
0.563000000000000389,-0.063754637061670991
0.564000000000000279,-0.103519679884491247
0.565000000000000391,-0.142903615948893198
0.566000000000000281,-0.181894233971438751
0.567000000000000393,-0.220479803805751162
0.568000000000000282,-0.258649070135096526
0.569000000000000394,-0.296391246052439161
0.570000000000000284,-0.333696006536464307
0.571000000000000396,-0.370553481832475551
0.572000000000000286,-0.406954250746092039
0.573000000000000398,-0.442889333858065892
0.574000000000000288,-0.478350186667752530
0.575000000000000400,-0.513328692673020059
0.576000000000000290,-0.547817156393591742
0.577000000000000401,-0.581808296345179721
0.578000000000000291,-0.615295237970941766
0.579000000000000403,-0.648271506537034803
0.580000000000000293,-0.680731019998459308
0.581000000000000405,-0.712668081841530410
0.582000000000000295,-0.744077373908549555
0.583000000000000407,-0.774953949210761661
0.584000000000000297,-0.805293224734676572
0.585000000000000409,-0.835090974247369111
0.586000000000000298,-0.864343321105498275
0.587000000000000410,-0.893046731073210531
0.588000000000000300,-0.921198005153291755
0.589000000000000412,-0.948794272436327857
0.590000000000000302,-0.975832982971894025
0.591000000000000414,-1.002311900666088551
0.592000000000000304,-1.028229096209170912
0.593000000000000416,-1.053582940037173454
0.594000000000000306,-1.078372095330944580
0.595000000000000417,-1.102595511056178923
0.596000000000000307,-1.126252415047491517
0.597000000000000419,-1.149342307139806563
0.598000000000000309,-1.171864952349887856
0.599000000000000421,-1.193820374110798666
0.600000000000000311,-1.215208847561961125
0.601000000000000423,-1.236030892897323596
0.602000000000000313,-1.256287268773865984
0.603000000000000425,-1.275978965782892383
0.604000000000000314,-1.295107199985912505
0.605000000000000426,-1.313673406517359199
0.606000000000000316,-1.331679233255742556
0.607000000000000428,-1.349126534565104008
0.608000000000000318,-1.366017365108320281
0.609000000000000430,-1.382353973733768004
0.610000000000000320,-1.398138797436654368
0.611000000000000432,-1.413374455396428031
0.612000000000000322,-1.428063743091276816
0.613000000000000433,-1.442209626490914554
0.614000000000000323,-1.455815236328565465
0.615000000000000435,-1.468883862453061351
0.616000000000000325,-1.481418948261780555
0.617000000000000437,-1.493424085215264929
0.618000000000000327,-1.504903007433972650
0.619000000000000439,-1.515859586377855672
0.620000000000000329,-1.526297825609141068
0.621000000000000441,-1.536221855638720157
0.622000000000000330,-1.545635928856499586
0.623000000000000442,-1.554544414545932174
0.624000000000000332,-1.562951793982880533
0.625000000000000444,-1.570862655619030379
0.626000000000000334,-1.578281690349779609
0.627000000000000446,-1.585213686866714156
0.628000000000000336,-1.591663527094540731
0.629000000000000448,-1.597636181712403847
0.630000000000000338,-1.603136705759365954
0.631000000000000449,-1.608170234323920145
0.632000000000000339,-1.612741978317205227
0.633000000000000451,-1.616857220329620315
0.634000000000000341,-1.620521310570505857
0.635000000000000453,-1.623739662890528734
0.636000000000000343,-1.626517750886235847
0.637000000000000455,-1.628861104086452460
0.638000000000000345,-1.630775304219854061
0.639000000000000457,-1.632265981563333579
0.640000000000000346,-1.633338811370456112
0.641000000000000458,-1.633999510379509079
0.642000000000000348,-1.634253833400414191
0.643000000000000460,-1.634107569979938557
0.644000000000000350,-1.633566541144454876
0.645000000000000462,-1.632636596219565250
0.646000000000000352,-1.631323609725854551
0.647000000000000464,-1.629633478350044795
0.648000000000000353,-1.627572117990732536
0.649000000000000465,-1.625145460877951198
0.650000000000000355,-1.622359452765767873
0.651000000000000467,-1.619220050197022642
0.652000000000000357,-1.615733217839478986
0.653000000000000469,-1.611904925892393647
0.654000000000000359,-1.607741147562803619
0.655000000000000471,-1.603247856610514832
0.656000000000000361,-1.598431024960979219
0.657000000000000473,-1.593296620385155737
0.658000000000000362,-1.587850604245435893
0.659000000000000474,-1.582098929306738011
0.660000000000000364,-1.576047537611839910
0.661000000000000476,-1.569702358420041133
0.662000000000000366,-1.563069306208221487
