# AuFCC111UCD_CS-62242-AC
# h[nm],U(h)[kJ/mol]
0.200000000000000011,43.358231682680894892
0.201000000000000012,37.856086327968455407
0.202000000000000013,35.056050577175327021
0.203000000000000014,33.462098490599750278
0.204000000000000015,32.244661489158112033
0.205000000000000016,30.992131337903828125
0.206000000000000016,29.543079418023012295
0.207000000000000017,27.875641828051648474
0.208000000000000018,26.036840096034950420
0.209000000000000019,24.099338132517935662
0.210000000000000020,22.136657580210229668
0.211000000000000021,20.210478553413814495
0.212000000000000022,18.365565638201992726
0.213000000000000023,16.629252032117491922
0.214000000000000024,15.013419202172315181
0.215000000000000024,13.517625353209229644
0.216000000000000025,12.132539031447507227
0.217000000000000026,10.843181446684658553
0.218000000000000027,9.631715442531149307
0.219000000000000028,8.479672464444742985
0.220000000000000029,7.369605086682750716
0.221000000000000030,6.286209113230026624
0.222000000000000031,5.216988692348712320
0.223000000000000032,4.152549464927249190
0.224000000000000032,3.086605047390984513
0.225000000000000033,2.015775719323816162
0.226000000000000034,0.939248197020310593
0.227000000000000035,-0.141646064417333767
0.228000000000000036,-1.223888128090086180
0.229000000000000037,-2.303229274859304176
0.230000000000000038,-3.374623634142607020
0.231000000000000039,-4.432618444784896639
0.232000000000000040,-5.471691420698447494
0.233000000000000040,-6.486530102089398397
0.234000000000000041,-7.472252234261905990
0.235000000000000042,-8.424569287167164688
0.236000000000000043,-9.339897374944470698
0.237000000000000044,-10.215421217438887425
0.238000000000000045,-11.049117555695508130
0.239000000000000046,-11.839744725787621604
0.240000000000000047,-12.586805027608509278
0.241000000000000048,-13.290486197206814012
0.242000000000000048,-13.951587785579295797
0.243000000000000049,-14.571437630568448540
0.244000000000000050,-15.151802934659164279
0.245000000000000051,-15.694799770881832757
0.246000000000000052,-16.202804162181941194
0.247000000000000053,-16.678367238347018287
0.248000000000000054,-17.124136383637452496
0.249000000000000055,-17.542783756712363896
0.250000000000000056,-17.936943096875108239
0.251000000000000056,-18.309155328250835026
0.252000000000000057,-18.661823134874516938
0.253000000000000058,-18.997174401600407379
0.254000000000000059,-19.317234193802164555
0.255000000000000060,-19.623804777803748323
0.256000000000000061,-19.918453058259700583
0.257000000000000062,-20.202504722570285622
0.258000000000000063,-20.477044330252020643
0.259000000000000064,-20.742920561620614706
0.260000000000000064,-21.000755840169148314
0.261000000000000065,-21.250959562052038621
0.262000000000000066,-21.493744199984934795
0.263000000000000067,-21.729143593984442617
0.264000000000000068,-21.957032794508691609
0.265000000000000069,-22.177148881979775297
0.266000000000000070,-22.389112248053201881
0.267000000000000071,-22.592447886423521197
0.268000000000000071,-22.786606302847715710
0.269000000000000072,-22.970983714180146507
0.270000000000000073,-23.144941263575933732
0.271000000000000074,-23.307823032913237427
0.272000000000000075,-23.458972683401249526
0.273000000000000076,-23.597748600950989584
0.274000000000000077,-23.723537464016420273
0.275000000000000078,-23.835766188210971706
0.276000000000000079,-23.933912234121933693
0.277000000000000079,-24.017512292511618455
0.278000000000000080,-24.086169384702522223
0.279000000000000081,-24.139558435633368561
0.280000000000000082,-24.177430393113471752
0.281000000000000083,-24.199614979486135269
0.282000000000000084,-24.206022171540876542
0.283000000000000085,-24.196642511394692576
0.284000000000000086,-24.171546355495941327
0.285000000000000087,-24.130882171187799656
0.286000000000000087,-24.074873990680320190
0.287000000000000088,-24.003818131091769317
0.288000000000000089,-23.918079286678207040
0.289000000000000090,-23.818086095709592342
0.290000000000000091,-23.704326279881392736
0.291000000000000092,-23.577341448867663587
0.292000000000000093,-23.437721656797755543
0.293000000000000094,-23.286099791229293743
0.294000000000000095,-23.123145868732734698
0.295000000000000095,-22.949561304615688329
0.296000000000000096,-22.766073217703830522
0.297000000000000097,-22.573428824545775484
0.298000000000000098,-22.372389970998000308
0.299000000000000099,-22.163727842932949841
0.300000000000000100,-21.948217891849672867
0.301000000000000101,-21.726635005489971064
0.302000000000000102,-21.499748948205951393
0.303000000000000103,-21.268320090806099643
0.304000000000000103,-21.033095444943615604
0.305000000000000104,-20.794805012808641465
0.306000000000000105,-20.554158458948680988
0.307000000000000106,-20.311842107466357987
0.308000000000000107,-20.068516264624470580
0.309000000000000108,-19.824812864016017500
0.310000000000000109,-19.581333428918018313
0.311000000000000110,-19.338647344230714964
0.312000000000000111,-19.097290428488648217
0.313000000000000111,-18.857763794804036195
0.314000000000000112,-18.620532988244299588
0.315000000000000113,-18.386027386038296783
0.316000000000000114,-18.154639846130354641
0.317000000000000115,-17.926726588938709739
0.318000000000000116,-17.702607296707210338
0.319000000000000117,-17.482565414548641769
0.320000000000000118,-17.266848637145933765
0.321000000000000119,-17.055669565088624751
0.322000000000000119,-16.849206514958716241
0.323000000000000120,-16.647604467528314132
0.324000000000000121,-16.450976138775935453
0.325000000000000122,-16.259403158855924687
0.326000000000000123,-16.072937344653638547
0.327000000000000124,-15.891602052115064936
0.328000000000000125,-15.715393595144650618
0.329000000000000126,-15.544282718506469365
0.330000000000000127,-15.378216112835058738
0.331000000000000127,-15.217117960553471434
0.332000000000000128,-15.060891502200174585
0.333000000000000129,-14.909420613376989095
0.334000000000000130,-14.762571383241056111
0.335000000000000131,-14.620193686169821845
0.336000000000000132,-14.482122738924079641
0.337000000000000133,-14.348180636317195535
0.338000000000000134,-14.218177859064004664
0.339000000000000135,-14.091914748129005019
0.340000000000000135,-13.969182940516489566
0.341000000000000136,-13.849766762044570356
0.342000000000000137,-13.733444573217880702
0.343000000000000138,-13.619990064859653245
0.344000000000000139,-13.509173500681509239
0.345000000000000140,-13.400762904458598967
0.346000000000000141,-13.294525189937417053
0.347000000000000142,-13.190227232034974492
0.348000000000000143,-13.087636878289874431
0.349000000000000143,-12.986523899899168555
0.350000000000000144,-12.886660882020350982
0.351000000000000145,-12.787824053335310026
0.352000000000000146,-12.689794055164094644
0.353000000000000147,-12.592356650681232111
0.354000000000000148,-12.495303375027152271
0.355000000000000149,-12.398432127322919882
0.356000000000000150,-12.301547705789378284
0.357000000000000151,-12.204462287342163762
0.358000000000000151,-12.106995853184105982
0.359000000000000152,-12.008976562046104419
0.360000000000000153,-11.910241072839269805
0.361000000000000154,-11.810634818574367699
0.362000000000000155,-11.710012233482023802
0.363000000000000156,-11.608236935329035333
0.364000000000000157,-11.505181864973268446
0.365000000000000158,-11.400729385234340540
0.366000000000000159,-11.294771341178933000
0.367000000000000159,-11.187209083930229170
0.368000000000000160,-11.077953460111727324
0.369000000000000161,-10.966924769026260122
0.370000000000000162,-10.854052689653627795
0.371000000000000163,-10.739276179525251820
0.372000000000000164,-10.622543347501512301
0.373000000000000165,-10.503811302439931552
0.374000000000000166,-10.383045979697797634
0.375000000000000167,-10.260221947365062434
0.376000000000000167,-10.135322194070242929
0.377000000000000168,-10.008337900146152322
0.378000000000000169,-9.879268193883095961
0.379000000000000170,-9.748119894535740571
0.380000000000000171,-9.614907243686007021
0.381000000000000172,-9.479651626499769890
0.382000000000000173,-9.342381284348400428
0.383000000000000174,-9.203131020199853296
0.384000000000000175,-9.061941898116204541
0.385000000000000175,-8.918860938127540550
0.386000000000000176,-8.773940807684761367
0.387000000000000177,-8.627239510827198643
0.388000000000000178,-8.478820076135127337
0.389000000000000179,-8.328750244472045594
0.390000000000000180,-8.177102157457822429
0.391000000000000181,-8.023952047550954703
0.392000000000000182,-7.869379930557410141
0.393000000000000183,-7.713469301323117477
0.394000000000000183,-7.556306833309936799
0.395000000000000184,-7.397982082698129958
0.396000000000000185,-7.238587197603992607
0.397000000000000186,-7.078216632949013487
0.398000000000000187,-6.916966871465888289
0.399000000000000188,-6.754936151278201351
0.400000000000000189,-6.592224200444168680
0.401000000000000190,-6.428931978809454328
0.402000000000000191,-6.265161427472331290
0.403000000000000191,-6.101015226122872726
0.404000000000000192,-5.936596558479847907
0.405000000000000193,-5.772008886011945172
0.406000000000000194,-5.607355730095253676
0.407000000000000195,-5.442740462726329831
0.408000000000000196,-5.278266105878786085
0.409000000000000197,-5.114035139562714605
0.410000000000000198,-4.950149318618710659
0.411000000000000199,-4.786709498252792017
0.412000000000000199,-4.623815468294610653
0.413000000000000200,-4.461565796139476348
0.414000000000000201,-4.300057678313821796
0.415000000000000202,-4.139386800584891724
0.416000000000000203,-3.979647206518156732
0.417000000000000204,-3.820931174369408545
0.418000000000000205,-3.663329102184384567
0.419000000000000206,-3.506929400965113963
0.420000000000000207,-3.351818395750043145
0.421000000000000207,-3.198080234444597103
0.422000000000000208,-3.045796804228545707
0.423000000000000209,-2.895047655358545580
0.424000000000000210,-2.745909932176294088
0.425000000000000211,-2.598458311126425890
0.426000000000000212,-2.452764945582600831
0.427000000000000213,-2.308899417275583676
0.428000000000000214,-2.166928694113320564
0.429000000000000214,-2.026917094179794709
0.430000000000000215,-1.888926255697264356
0.431000000000000216,-1.753015112734999548
0.432000000000000217,-1.619239876446250559
0.433000000000000218,-1.487654021615359978
0.434000000000000219,-1.358308278296728400
0.435000000000000220,-1.231250628328336649
0.436000000000000221,-1.106526306503626822
0.437000000000000222,-0.984177806187268578
0.438000000000000222,-0.864244889162473329
0.439000000000000223,-0.746764599499943893
0.440000000000000224,-0.631771281241350735
0.441000000000000225,-0.519296599693377825
0.442000000000000226,-0.409369566131959128
0.443000000000000227,-0.302016565719667895
0.444000000000000228,-0.197261388443475877
0.445000000000000229,-0.095125262883979572
0.446000000000000230,0.004373107368329532
0.447000000000000230,0.101217504829965277
0.448000000000000231,0.195394156949900866
0.449000000000000232,0.286891692814389976
0.450000000000000233,0.375701097897229996
0.451000000000000234,0.461815667016477582
0.452000000000000235,0.545230955653946525
0.453000000000000236,0.625944729788658671
0.454000000000000237,0.703956914390454380
0.455000000000000238,0.779269540715078035
0.456000000000000238,0.851886692536794277
0.457000000000000239,0.921814451449923467
0.458000000000000240,0.989060841365263954
0.459000000000000241,1.053635772322888631
0.460000000000000242,1.115550983737459090
0.461000000000000243,1.174819987187659676
0.462000000000000244,1.231458008856326058
0.463000000000000245,1.285481931723241988
0.464000000000000246,1.336910237607836560
0.465000000000000246,1.385762949154378587
0.466000000000000247,1.432061571847852433
0.467000000000000248,1.475829036144239881
0.468000000000000249,1.517089639794468869
0.469000000000000250,1.555868990437263566
0.470000000000000251,1.592193948531773096
0.471000000000000252,1.626092570696997752
0.472000000000000253,1.657594053520899946
0.473000000000000254,1.686728677898399198
0.474000000000000254,1.713527753953660859
0.475000000000000255,1.738023566598394520
0.476000000000000256,1.760249321774522091
0.477000000000000257,1.780239093425951324
0.478000000000000258,1.798027771241057504
0.479000000000000259,1.813651009204242159
0.480000000000000260,1.827145174991743115
0.481000000000000261,1.838547300244083305
0.482000000000000262,1.847895031744426264
0.483000000000000262,1.855226583529643536
0.484000000000000263,1.860580689957882727
0.485000000000000264,1.863996559754247384
0.486000000000000265,1.865513831053365434
0.487000000000000266,1.865172527455547735
0.488000000000000267,1.863013015110920989
0.489000000000000268,1.859075960843569630
0.490000000000000269,1.853402291326000206
0.491000000000000270,1.846033153311910979
0.492000000000000270,1.837009874933666964
0.493000000000000271,1.826373928068862229
0.494000000000000272,1.814166891778882018
0.495000000000000273,1.800430416820458346
0.496000000000000274,1.785206191230026107
0.497000000000000275,1.768535906978991878
0.498000000000000276,1.750461227696673561
0.499000000000000277,1.731023757456583212
0.500000000000000222,1.710265010620154458
0.501000000000000334,1.688226382731271347
0.502000000000000224,1.664949122453494024
0.503000000000000336,1.640474304541170270
0.504000000000000226,1.614842803834506624
0.505000000000000338,1.588095270267799952
0.506000000000000227,1.560272104879333099
0.507000000000000339,1.531413436810515893
0.508000000000000229,1.501559101281323638
0.509000000000000341,1.470748618528170182
0.510000000000000231,1.439021173690179234
0.511000000000000343,1.406415597628749570
0.512000000000000233,1.372970348665359275
0.513000000000000345,1.338723495221572746
0.514000000000000234,1.303712699345312753
0.515000000000000346,1.267975201106631644
0.516000000000000236,1.231547803846368527
0.517000000000000348,1.194466860260273489
0.518000000000000238,1.156768259301541812
0.519000000000000350,1.118487413883813675
0.520000000000000240,1.079659249367226348
0.521000000000000352,1.040318192809331688
0.522000000000000242,1.000498162963126880
0.523000000000000353,0.960232561003825702
0.524000000000000243,0.919554261966539555
0.525000000000000355,0.878495606876444901
0.526000000000000245,0.837088395553476139
0.527000000000000357,0.795363880073207241
0.528000000000000247,0.753352758866039030
0.529000000000000359,0.711085171436478203
0.530000000000000249,0.668590693684719128
0.531000000000000361,0.625898333812559882
0.532000000000000250,0.583036528796096243
0.533000000000000362,0.540033141407410655
0.534000000000000252,0.496915457768162205
0.535000000000000364,0.453710185417368295
0.536000000000000254,0.410443451876872256
0.537000000000000366,0.367140803697060980
0.538000000000000256,0.323827205966653209
0.539000000000000368,0.280527042269719862
0.540000000000000258,0.237264115074051318
0.541000000000000369,0.194061646534506860
0.542000000000000259,0.150942279696042181
0.543000000000000371,0.107928080080479910
0.544000000000000261,0.065040537642080870
0.545000000000000373,0.022300569076787853
0.546000000000000263,-0.020271479529444348
0.547000000000000375,-0.062655829727945450
0.548000000000000265,-0.104833267423980428
0.549000000000000377,-0.146785139297167438
0.550000000000000266,-0.188493348938757688
0.551000000000000378,-0.229940352719552044
0.552000000000000268,-0.271109155401144053
0.553000000000000380,-0.311983305503488295
0.554000000000000270,-0.352546890441058358
0.555000000000000382,-0.392784531439987150
0.556000000000000272,-0.432681378247837256
0.557000000000000384,-0.472223103647813058
0.558000000000000274,-0.511395897788577081
0.559000000000000385,-0.550186462340807481
0.560000000000000275,-0.588582004491114974
0.561000000000000387,-0.626570230783931925
0.562000000000000277,-0.664139340821342627
0.563000000000000389,-0.701278020830990112
0.564000000000000279,-0.737975437111426213
0.565000000000000391,-0.774221229364492447
0.566000000000000281,-0.810005503923539094
0.567000000000000393,-0.845318826886543251
0.568000000000000282,-0.880152217162422423
0.569000000000000394,-0.914497139439035545
0.570000000000000284,-0.948345497080600786
0.571000000000000396,-0.981689624962635343
0.572000000000000286,-1.014522282251555163
0.573000000000000398,-1.046836645136482558
0.574000000000000288,-1.078626299520019316
0.575000000000000400,-1.109885233674992699
0.576000000000000290,-1.140607830873430206
0.577000000000000401,-1.170788861994336516
0.578000000000000291,-1.200423478116089626
0.579000000000000403,-1.229507203099468926
0.580000000000000293,-1.258035926166789498
0.581000000000000405,-1.286005894482745715
0.582000000000000295,-1.313413705741855342
0.583000000000000407,-1.340256300767834974
0.584000000000000297,-1.366530956129338836
0.585000000000000409,-1.392235276776962571
0.586000000000000298,-1.417367188705598524
0.587000000000000410,-1.441924931646604069
0.588000000000000300,-1.465907051793549520
0.589000000000000412,-1.489312394565602826
0.590000000000000302,-1.512140097411979855
0.591000000000000414,-1.534389582661125351
0.592000000000000304,-1.556060550417793120
0.593000000000000416,-1.577152971511258439
0.594000000000000306,-1.597667080497578329
0.595000000000000417,-1.617603368718816270
0.596000000000000307,-1.636962577421771980
0.597000000000000419,-1.655745690938882575
0.598000000000000309,-1.673953929933607254
0.599000000000000421,-1.691588744712520853
0.600000000000000311,-1.708651808606275413
0.601000000000000423,-1.725145011421409524
0.602000000000000313,-1.741070452964745829
0.603000000000000425,-1.756430436642303805
0.604000000000000314,-1.771227463134085856
0.605000000000000426,-1.785464224146458889
0.606000000000000316,-1.799143596243323984
0.607000000000000428,-1.812268634757433716
0.608000000000000318,-1.824842567783010905
0.609000000000000430,-1.836868790250699934
0.610000000000000320,-1.848350858085790804
0.611000000000000432,-1.859292482450652262
0.612000000000000322,-1.869697524072049699
0.613000000000000433,-1.879569987654095886
0.614000000000000323,-1.888914016377408078
0.615000000000000435,-1.897733886484980870
0.616000000000000325,-1.906034001955170254
0.617000000000000437,-1.913818889262244527
0.618000000000000327,-1.921093192224644586
0.619000000000000439,-1.927861666941276919
0.620000000000000329,-1.934129176815930773
0.621000000000000441,-1.939900687669864565
0.622000000000000330,-1.945181262942651035
0.623000000000000442,-1.949976058981162552
0.624000000000000332,-1.954290320416592674
0.625000000000000444,-1.958129375629418023
0.626000000000000334,-1.961498632301985179
0.627000000000000446,-1.964403573058535191
0.628000000000000336,-1.966849751192312867
0.629000000000000448,-1.968842786479406470
0.630000000000000338,-1.970388361078884598
0.631000000000000449,-1.971492215518841462
0.632000000000000339,-1.972160144767810763
0.633000000000000451,-1.972397994391015930
0.634000000000000341,-1.972211656790926471
0.635000000000000453,-1.971607067531523372
0.636000000000000343,-1.970590201745583414
0.637000000000000455,-1.969167070624423532
0.638000000000000345,-1.967343717989289642
0.639000000000000457,-1.965126216943787751
0.640000000000000346,-1.962520666606538455
0.641000000000000458,-1.959533188923325397
0.642000000000000348,-1.956169925557922795
0.643000000000000460,-1.952437034860805110
0.644000000000000350,-1.948340688914920182
0.645000000000000462,-1.943887070657626115
0.646000000000000352,-1.939082371077986533
0.647000000000000464,-1.933932786488508970
0.648000000000000353,-1.928444515870426645
0.649000000000000465,-1.922623758291612361
0.650000000000000355,-1.916476710396247229
0.651000000000000467,-1.910009563965211710
0.652000000000000357,-1.903228503546396055
0.653000000000000469,-1.896139704153798622
0.654000000000000359,-1.888749329034657976
0.655000000000000471,-1.881063527503461952
0.656000000000000361,-1.873088432841986783
0.657000000000000473,-1.864830160264322245
0.658000000000000362,-1.856294804945935795
0.659000000000000474,-1.847488440115764963
0.660000000000000364,-1.838417115210366104
0.661000000000000476,-1.829086854089116532
0.662000000000000366,-1.819503653309497482
