# AuFCC111UCD_SERINEZWITTER
# h[nm],U(h)[kJ/mol]
0.200000000000000011,99.879886188863039820
0.201000000000000012,94.437068670856334052
0.202000000000000013,90.620715748484656160
0.203000000000000014,87.592003728850585276
0.204000000000000015,84.868815715150475398
0.205000000000000016,82.198007098221609112
0.206000000000000016,79.467679311381886009
0.207000000000000017,76.648169042638897963
0.208000000000000018,73.753400433404280534
0.209000000000000019,70.816468858725045266
0.210000000000000020,67.874994392272952837
0.211000000000000021,64.963031017782526533
0.212000000000000022,62.107244608726674073
0.213000000000000023,59.325756233935827311
0.214000000000000024,56.628547140287842865
0.215000000000000024,54.018683589602076722
0.216000000000000025,51.493878574280607552
0.217000000000000026,49.048089947123969523
0.218000000000000027,46.672980874436987619
0.219000000000000028,44.359153998442174327
0.220000000000000029,42.097126710519020776
0.221000000000000030,39.878050016933158872
0.222000000000000031,37.694193933737480506
0.223000000000000032,35.539232807518018831
0.224000000000000032,33.408367786163971402
0.225000000000000033,31.298323270618901404
0.226000000000000034,29.207251267911168213
0.227000000000000035,27.134573317176680973
0.228000000000000036,25.080784869651672864
0.229000000000000037,23.047242188505563831
0.230000000000000038,21.035947313973100137
0.231000000000000039,19.049342592975111899
0.232000000000000040,17.090122783787350613
0.233000000000000040,15.161069834828131420
0.234000000000000041,13.264913080927183131
0.235000000000000042,11.404215754775059111
0.236000000000000043,9.581287317060363407
0.237000000000000044,7.798120102575055057
0.238000000000000045,6.056348098051382856
0.239000000000000046,4.357225251000496513
0.240000000000000047,2.701620503080523594
0.241000000000000048,1.090026698666660909
0.242000000000000048,-0.477419401905768481
0.243000000000000049,-2.000908609220798606
0.244000000000000050,-3.480924672535840703
0.245000000000000051,-4.918205649952219538
0.246000000000000052,-6.313703126400748822
0.247000000000000053,-7.668540845827989116
0.248000000000000054,-8.983974052547678113
0.249000000000000055,-10.261350580389587250
0.250000000000000056,-11.502074492089279900
0.251000000000000056,-12.707572858407930383
0.252000000000000057,-13.879266078297863629
0.253000000000000058,-15.018541978386874547
0.254000000000000059,-16.126733791608781843
0.255000000000000060,-17.205101999768114496
0.256000000000000061,-18.254819931573287306
0.257000000000000062,-19.276962934294893159
0.258000000000000063,-20.272500881652117499
0.259000000000000064,-21.242293740692304027
0.260000000000000064,-22.187089894227661091
0.261000000000000065,-23.107526900824165494
0.262000000000000066,-24.004134369525122139
0.263000000000000067,-24.877338629689649707
0.264000000000000068,-25.727468885960593781
0.265000000000000069,-26.554764563032271951
0.266000000000000070,-27.359383563313507182
0.267000000000000071,-28.141411181695083599
0.268000000000000071,-28.900869444492297333
0.269000000000000072,-29.637726663458401788
0.270000000000000073,-30.351907019890511208
0.271000000000000074,-31.043300017740115493
0.272000000000000075,-31.711769667864416533
0.273000000000000076,-32.357163287772969795
0.274000000000000077,-32.979319822188237765
0.275000000000000078,-33.578077609262962255
0.276000000000000079,-34.153281535263332103
0.277000000000000079,-34.704789536869057542
0.278000000000000080,-35.232478424928544314
0.279000000000000081,-35.736249016556854485
0.280000000000000082,-36.216030573907993073
0.281000000000000083,-36.671784557856383913
0.282000000000000084,-37.103507713258430556
0.283000000000000085,-37.511234509527390912
0.284000000000000086,-37.895038966037745354
0.285000000000000087,-38.255035896482951330
0.286000000000000087,-38.591381609849051415
0.287000000000000088,-38.904274108238674046
0.288000000000000089,-39.193952823490853632
0.289000000000000090,-39.460697935491353405
0.290000000000000091,-39.704829315349869034
0.291000000000000092,-39.926705136328543233
0.292000000000000093,-40.126720194621739779
0.293000000000000094,-40.305303980891508786
0.294000000000000095,-40.462918541927315630
0.295000000000000095,-40.600056169990686783
0.296000000000000096,-40.717236955382333008
0.297000000000000097,-40.815006235588093375
0.298000000000000098,-40.893931972065651337
0.299000000000000099,-40.954602083371412391
0.300000000000000100,-40.997621760930108792
0.301000000000000101,-41.023610791353974037
0.302000000000000102,-41.033200906847440592
0.303000000000000103,-41.027033182914195208
0.304000000000000103,-41.005755500331112273
0.305000000000000104,-40.970020086187375341
0.306000000000000105,-40.920481146717960996
0.307000000000000106,-40.857792602696477502
0.308000000000000107,-40.782605936304129557
0.309000000000000108,-40.695568156660137049
0.310000000000000109,-40.597319889589613240
0.311000000000000110,-40.488493595717407914
0.312000000000000111,-40.369711919611809492
0.313000000000000111,-40.241586171457299770
0.314000000000000112,-40.104714941608541778
0.315000000000000113,-39.959682847365655789
0.316000000000000114,-39.807059410409081579
0.317000000000000115,-39.647398062534385588
0.318000000000000116,-39.481235276632062892
0.319000000000000117,-39.309089819254992904
0.320000000000000118,-39.131462120603131893
0.321000000000000119,-38.948833757326440264
0.322000000000000119,-38.761667043194186988
0.323000000000000120,-38.570404722398713204
0.324000000000000121,-38.375469760047003831
0.325000000000000122,-38.177265224239206987
0.326000000000000123,-37.976174254033409738
0.327000000000000124,-37.772560107545928076
0.328000000000000125,-37.566766284430990197
0.329000000000000126,-37.359116717017705867
0.330000000000000127,-37.149916024450682528
0.331000000000000127,-36.939449824281851420
0.332000000000000128,-36.727985096086506189
0.333000000000000129,-36.515770591827092062
0.334000000000000130,-36.303037287856696480
0.335000000000000131,-36.089998873640425359
0.336000000000000132,-35.876852272470472371
0.337000000000000133,-35.663778189660249041
0.338000000000000134,-35.450941683920007108
0.339000000000000135,-35.238492757838443481
0.340000000000000135,-35.026566963621839079
0.341000000000000136,-34.815286020469528694
0.342000000000000137,-34.604758440193258195
0.343000000000000138,-34.395080157914151187
0.344000000000000139,-34.186335164895595540
0.345000000000000140,-33.978596140790372715
0.346000000000000141,-33.771925082796052209
0.347000000000000142,-33.566373929422169908
0.348000000000000143,-33.361985176777032791
0.349000000000000143,-33.158792485478024048
0.350000000000000144,-32.956821276478891036
0.351000000000000145,-32.756089314289035030
0.352000000000000146,-32.556607276233229697
0.353000000000000147,-32.358379306565538513
0.354000000000000148,-32.161403554408103389
0.355000000000000149,-31.965672694633553874
0.356000000000000150,-31.771174430950310352
0.357000000000000151,-31.577891980581036080
0.358000000000000151,-31.385804540048230393
0.359000000000000152,-31.194887731695423838
0.360000000000000153,-31.005114030680068993
0.361000000000000154,-30.816453172273106986
0.362000000000000155,-30.628872539391728935
0.363000000000000156,-30.442337530376391896
0.364000000000000157,-30.256811907099837811
0.365000000000000158,-30.072258123566893318
0.366000000000000159,-29.888637635226967149
0.367000000000000159,-29.705911189278669582
0.368000000000000160,-29.524039096298331231
0.369000000000000161,-29.342981483569143819
0.370000000000000162,-29.162698530528551544
0.371000000000000163,-28.983150686787460870
0.372000000000000164,-28.804298873204345455
0.373000000000000165,-28.626104666524973652
0.374000000000000166,-28.448530468119184178
0.375000000000000167,-28.271539657364968434
0.376000000000000167,-28.095096730244261352
0.377000000000000168,-27.919167423725799182
0.378000000000000169,-27.743718826518215081
0.379000000000000170,-27.568719476781797795
0.380000000000000171,-27.394139447389068920
0.381000000000000172,-27.219950419324767665
0.382000000000000173,-27.046125743812780229
0.383000000000000174,-26.872640493753912949
0.384000000000000175,-26.699471505051217690
0.385000000000000175,-26.526597408392500910
0.386000000000000176,-26.353998652049831719
0.387000000000000177,-26.181657516245120831
0.388000000000000178,-26.009558119619327954
0.389000000000000179,-25.837686418329745663
0.390000000000000180,-25.666030198286108543
0.391000000000000181,-25.494579061021973132
0.392000000000000182,-25.323324403682583750
0.393000000000000183,-25.152259393594896153
0.394000000000000183,-24.981378937869404666
0.395000000000000184,-24.810679648467271363
0.396000000000000185,-24.640159803149327189
0.397000000000000186,-24.469819302707303876
0.398000000000000187,-24.299659624860574070
0.399000000000000188,-24.129683775185007732
0.400000000000000189,-23.959896235423901345
0.401000000000000190,-23.790302909514238650
0.402000000000000191,-23.620911067645401715
0.403000000000000191,-23.451729288650660976
0.404000000000000192,-23.282767401016634778
0.405000000000000193,-23.114036422779335567
0.406000000000000194,-22.945548500560910554
0.407000000000000195,-22.777316847985492387
0.408000000000000196,-22.609355683698339590
0.409000000000000197,-22.441680169197987027
0.410000000000000198,-22.274306346677516188
0.411000000000000199,-22.107251077057249233
0.412000000000000199,-21.940531978378498223
0.413000000000000200,-21.774167364715406592
0.414000000000000201,-21.608176185749659481
0.415000000000000202,-21.442577967141140505
0.416000000000000203,-21.277392751816897487
0.417000000000000204,-21.112641042289165938
0.418000000000000205,-20.948343744103826936
0.419000000000000206,-20.784522110510152970
0.420000000000000207,-20.621197688433483108
0.421000000000000207,-20.458392265823849954
0.422000000000000208,-20.296127820444262113
0.423000000000000209,-20.134426470155208477
0.424000000000000210,-19.973310424743491609
0.425000000000000211,-19.812801939336534218
0.426000000000000212,-19.652923269436570308
0.427000000000000213,-19.493696627602172811
0.428000000000000214,-19.335144141799158746
0.429000000000000214,-19.177287815436450558
0.430000000000000215,-19.020149489097512685
0.431000000000000216,-18.863750803973111658
0.432000000000000217,-18.708113166995779864
0.433000000000000218,-18.553257717672778426
0.434000000000000219,-18.399205296609711269
0.435000000000000220,-18.245976415713535346
0.436000000000000221,-18.093591230059992370
0.437000000000000222,-17.942069511407449767
0.438000000000000222,-17.791430623336133010
0.439000000000000223,-17.641693497989106021
0.440000000000000224,-17.492876614388830347
0.441000000000000225,-17.344997978300970232
0.442000000000000226,-17.198075103615273918
0.443000000000000227,-17.052124995211176639
0.444000000000000228,-16.907164133274754647
0.445000000000000229,-16.763208459031783804
0.446000000000000230,-16.620273361860615324
0.447000000000000230,-16.478373667747725051
0.448000000000000231,-16.337523629047613127
0.449000000000000232,-16.197736915508045286
0.450000000000000233,-16.059026606521399572
0.451000000000000234,-15.921405184561757906
0.452000000000000235,-15.784884529767783334
0.453000000000000236,-15.649475915630537415
0.454000000000000237,-15.515190005745893131
0.455000000000000238,-15.382036851590559223
0.456000000000000238,-15.250025891281527635
0.457000000000000239,-15.119165949278075445
0.458000000000000240,-14.989465236986777796
0.459000000000000241,-14.860931354229020229
0.460000000000000242,-14.733571291532275183
0.461000000000000243,-14.607391433205616948
0.462000000000000244,-14.482397561161530319
0.463000000000000245,-14.358594859445616976
0.464000000000000246,-14.235987919437445015
0.465000000000000246,-14.114580745685628926
0.466000000000000247,-13.994376762341326881
0.467000000000000248,-13.875378820155003012
0.468000000000000249,-13.757589204002062644
0.469000000000000250,-13.641009640903664746
0.470000000000000251,-13.525641308510040872
0.471000000000000252,-13.411484844014074369
0.472000000000000253,-13.298540353464369801
0.473000000000000254,-13.186807421447213073
0.474000000000000254,-13.076285121108156773
0.475000000000000255,-12.966972024484714865
0.476000000000000256,-12.858866213122368549
0.477000000000000257,-12.751965288947342714
0.478000000000000258,-12.646266385370010354
0.479000000000000259,-12.541766178594107473
0.480000000000000260,-12.438460899107603552
0.481000000000000261,-12.336346343331834774
0.482000000000000262,-12.235417885406766558
0.483000000000000262,-12.135670489090696123
0.484000000000000263,-12.037098719753760889
0.485000000000000264,-11.939696756445474790
0.486000000000000265,-11.843458404017335184
0.487000000000000266,-11.748377105282244770
0.488000000000000267,-11.654445953193404151
0.489000000000000268,-11.561657703026273936
0.490000000000000269,-11.470004784547537469
0.491000000000000270,-11.379479314156332848
0.492000000000000270,-11.290073106983218310
0.493000000000000271,-11.201777688933564292
0.494000000000000272,-11.114584308662347922
0.495000000000000273,-11.028483949468318670
0.496000000000000274,-10.943467341096123846
0.497000000000000275,-10.859524971435430274
0.498000000000000276,-10.776647098107099865
0.499000000000000277,-10.694823759926801898
0.500000000000000222,-10.614044788237132266
0.501000000000000334,-10.534299818099963630
0.502000000000000224,-10.455578299341336646
0.503000000000000336,-10.377869507441506158
0.504000000000000226,-10.301162554263799009
0.505000000000000338,-10.225446398615787302
0.506000000000000227,-10.150709856637540440
0.507000000000000339,-10.076941612011413696
0.508000000000000229,-10.004130225989030123
0.509000000000000341,-9.932264147230942086
0.510000000000000231,-9.861331721455533383
0.511000000000000343,-9.791321200893289500
0.512000000000000233,-9.722220753543991734
0.513000000000000345,-9.654018472233712345
0.514000000000000234,-9.586702383469972943
0.515000000000000346,-9.520260456092511703
0.516000000000000236,-9.454680609718767670
0.517000000000000348,-9.389950722982364439
0.518000000000000238,-9.326058641564053175
0.519000000000000350,-9.262992186014189500
0.520000000000000240,-9.200739159366674969
0.521000000000000352,-9.139287354544098463
0.522000000000000242,-9.078624561554379468
0.523000000000000353,-9.018738574479275627
0.524000000000000243,-8.959617198255440229
0.525000000000000355,-8.901248255248795260
0.526000000000000245,-8.843619591623545162
0.527000000000000357,-8.786719083506664418
0.528000000000000247,-8.730534642949823620
0.529000000000000359,-8.675054223689850019
0.530000000000000249,-8.620265826709912815
0.531000000000000361,-8.566157505603019473
0.532000000000000250,-8.512717371740205152
0.533000000000000362,-8.459933599245266223
0.534000000000000252,-8.407794429778608247
0.535000000000000364,-8.356288177132492834
0.536000000000000254,-8.305403231640337225
0.537000000000000366,-8.255128064402388333
0.538000000000000256,-8.205451231330981088
0.539000000000000368,-8.156361377017576686
0.540000000000000258,-8.107847238425005543
0.541000000000000369,-8.059897648407323700
0.542000000000000259,-8.012501539060751909
0.543000000000000371,-7.965647944908279321
0.544000000000000261,-7.919326005921412559
0.545000000000000373,-7.873524970381863497
0.546000000000000263,-7.828234197586634302
0.547000000000000375,-7.783443160399327709
0.548000000000000265,-7.739141447651367578
0.549000000000000377,-7.695318766395820020
0.550000000000000266,-7.651964944017542791
0.551000000000000378,-7.609069930202563725
0.552000000000000268,-7.566623798770203635
0.553000000000000380,-7.524616749370986568
0.554000000000000270,-7.483039109053838622
0.555000000000000382,-7.441881333705533841
0.556000000000000272,-7.401134009366010957
0.557000000000000384,-7.360787853422320559
0.558000000000000274,-7.320833715684980980
0.559000000000000385,-7.281262579349368380
0.560000000000000275,-7.242065561845842936
0.561000000000000387,-7.203233915581355618
0.562000000000000277,-7.164759028575926614
0.563000000000000389,-7.126632424996985904
0.564000000000000279,-7.088845765594695258
0.565000000000000391,-7.051390848041262593
0.566000000000000281,-7.014259607177274702
0.567000000000000393,-6.977444115167990901
0.568000000000000282,-6.940936581572667130
0.569000000000000394,-6.904729353329523533
0.570000000000000284,-6.868814914659584936
0.571000000000000396,-6.833185886891864236
0.572000000000000286,-6.797835028212989350
0.573000000000000398,-6.762755233343658468
0.574000000000000288,-6.727939533144922102
0.575000000000000400,-6.693381094156795719
0.576000000000000290,-6.659073218071794642
0.577000000000000401,-6.625009341145964292
0.578000000000000291,-6.591183033549988579
0.579000000000000403,-6.557587998662681272
0.580000000000000293,-6.524218072309466265
0.581000000000000405,-6.491067221948021881
0.582000000000000295,-6.458129545803598326
0.583000000000000407,-6.425399271956115044
0.584000000000000297,-6.392870757381383662
0.585000000000000409,-6.360538486948533077
0.586000000000000298,-6.328397072375918420
0.587000000000000410,-6.296441251147371077
0.588000000000000300,-6.264665885391067057
0.589000000000000412,-6.233065960722797172
0.590000000000000302,-6.201636585055704032
0.591000000000000414,-6.170372987378346608
0.592000000000000304,-6.139270516502923769
0.593000000000000416,-6.108324639785420729
0.594000000000000306,-6.077530941819555999
0.595000000000000417,-6.046885123106077842
0.596000000000000307,-6.016382998699197238
0.597000000000000419,-5.986020496831663706
0.598000000000000309,-5.955793657520229267
0.599000000000000421,-5.925698631152775064
0.600000000000000311,-5.895731677058862807
0.601000000000000423,-5.865889162064901186
0.602000000000000313,-5.836167559035577490
0.603000000000000425,-5.806563445402608714
0.604000000000000314,-5.777073501682520984
0.605000000000000426,-5.747694509984267341
0.606000000000000316,-5.718423352508415825
0.607000000000000428,-5.689257010038620166
0.608000000000000318,-5.660192560426984265
0.609000000000000430,-5.631227177074046963
0.610000000000000320,-5.602358127404789556
0.611000000000000432,-5.573582771341431652
0.612000000000000322,-5.544898559774316560
0.613000000000000433,-5.516303033031553227
0.614000000000000323,-5.487793819348634194
0.615000000000000435,-5.459368633338739230
0.616000000000000325,-5.431025274464674979
0.617000000000000437,-5.402761625513304189
0.618000000000000327,-5.374575651073238980
0.619000000000000439,-5.346465396016544247
0.620000000000000329,-5.318428983985310055
0.621000000000000441,-5.290464615883637478
0.622000000000000330,-5.262570568375918967
0.623000000000000442,-5.234745192391858204
0.624000000000000332,-5.206986911639052806
0.625000000000000444,-5.179294221123591058
0.626000000000000334,-5.151665685679344797
0.627000000000000446,-5.124099938506412322
0.628000000000000336,-5.096595679719311711
0.629000000000000448,-5.069151674905350013
0.630000000000000338,-5.041766753693740277
0.631000000000000449,-5.014439808335747983
0.632000000000000339,-4.987169792296521464
0.633000000000000451,-4.959955718858752860
0.634000000000000341,-4.932796659738787781
0.635000000000000453,-4.905691743715360431
0.636000000000000343,-4.878640155271393830
0.637000000000000455,-4.851641133249168014
0.638000000000000345,-4.824693969519127990
0.639000000000000457,-4.797798007662597009
0.640000000000000346,-4.770952641668757543
0.641000000000000458,-4.744157314645979895
0.642000000000000348,-4.717411517547903443
0.643000000000000460,-4.690714787914293638
0.644000000000000350,-4.664066708627075286
0.645000000000000462,-4.637466906681482648
0.646000000000000352,-4.610915051972733103
0.647000000000000464,-4.584410856098116938
0.648000000000000353,-4.557954071174928679
0.649000000000000465,-4.531544488673987736
0.650000000000000355,-4.505181938269286590
0.651000000000000467,-4.478866286703421906
0.652000000000000357,-4.452597436669270436
0.653000000000000469,-4.426375325707635255
0.654000000000000359,-4.400199925121247801
0.655000000000000471,-4.374071238904859271
0.656000000000000361,-4.347989302691706470
0.657000000000000473,-4.321954182716170045
