# AuFCC111UCD_CYS-AC
# h[nm],U(h)[kJ/mol]
0.149999999999999994,121.179455211779810497
0.150999999999999995,114.377713250227813546
0.151999999999999996,110.287161387821541325
0.152999999999999997,106.775181778178151148
0.153999999999999998,103.108227285074832480
0.154999999999999999,99.183575958975865206
0.156000000000000000,95.126416315402920532
0.157000000000000001,91.097408556987872430
0.158000000000000002,87.215752943671887465
0.159000000000000002,83.541154183673953071
0.160000000000000003,80.082203176673402822
0.161000000000000004,76.813541476158377463
0.162000000000000005,73.693039422301637842
0.163000000000000006,70.675304045443240852
0.164000000000000007,67.720580559406243992
0.165000000000000008,64.799455863699606084
0.166000000000000009,61.894308627352828012
0.167000000000000010,58.998548587241884888
0.168000000000000010,56.114571784534902577
0.169000000000000011,53.251158917276960381
0.170000000000000012,50.420832203339038813
0.171000000000000013,47.637497478703259901
0.172000000000000014,44.914546815400548496
0.173000000000000015,42.263485005018381457
0.174000000000000016,39.693067070409746577
0.175000000000000017,37.208887255775422886
0.176000000000000018,34.813335867270396307
0.177000000000000018,32.505832548926768766
0.178000000000000019,30.283247702846455951
0.179000000000000020,28.140433521609622858
0.180000000000000021,26.070799275814568574
0.181000000000000022,24.066879796339755160
0.182000000000000023,22.120859974118896929
0.183000000000000024,20.225030627729317700
0.184000000000000025,18.372161761498080779
0.185000000000000026,16.555787870294530251
0.186000000000000026,14.770406570759643472
0.187000000000000027,13.011596614798628835
0.188000000000000028,11.276064506044399138
0.189000000000000029,9.561630761404366297
0.190000000000000030,7.867167607761059500
0.191000000000000031,6.192499832089427336
0.192000000000000032,4.538279838121336063
0.193000000000000033,2.905846898175144410
0.194000000000000034,1.297079284986439651
0.195000000000000034,-0.285753447198980992
0.196000000000000035,-1.840132192705042247
0.197000000000000036,-3.363419568455445763
0.198000000000000037,-4.852977530454476884
0.199000000000000038,-6.306269259334764676
0.200000000000000039,-7.720944215680677125
0.201000000000000040,-9.094906080738187626
0.202000000000000041,-10.426363957014240569
0.203000000000000042,-11.713867715236997213
0.204000000000000042,-12.956328752176494490
0.205000000000000043,-14.153027683168772910
0.206000000000000044,-15.303610650142132954
0.207000000000000045,-16.408075996874096347
0.208000000000000046,-17.466753063883192709
0.209000000000000047,-18.480274800468311724
0.210000000000000048,-19.449545794268424004
0.211000000000000049,-20.375707191106819494
0.212000000000000050,-21.260099829999280274
0.213000000000000050,-22.104226758652114171
0.214000000000000051,-22.909716130673466239
0.215000000000000052,-23.678285322788990896
0.216000000000000053,-24.411706953055766434
0.217000000000000054,-25.111777332760574666
0.218000000000000055,-25.780287747753096284
0.219000000000000056,-26.418998840962672148
0.220000000000000057,-27.029618257659070224
0.221000000000000058,-27.613781618947587759
0.222000000000000058,-28.173036806915821018
0.223000000000000059,-28.708831476280749939
0.224000000000000060,-29.222503651590777451
0.225000000000000061,-29.715275225092039335
0.226000000000000062,-30.188248137229898305
0.227000000000000063,-30.642402998318043927
0.228000000000000064,-31.078599895034169975
0.229000000000000065,-31.497581117972067943
0.230000000000000066,-31.899975545403300714
0.231000000000000066,-32.286304422651070922
0.232000000000000067,-32.656988285085205348
0.233000000000000068,-33.012354784830982624
0.234000000000000069,-33.352647196041566247
0.235000000000000070,-33.678033390299660255
0.236000000000000071,-33.988615091757935716
0.237000000000000072,-34.284437240454309404
0.238000000000000073,-34.565497311375082745
0.239000000000000073,-34.831754455895143963
0.240000000000000074,-35.083138350873312561
0.241000000000000075,-35.319557658658141008
0.242000000000000076,-35.540908018358329912
0.243000000000000077,-35.747079504798364269
0.244000000000000078,-35.937963506498093125
0.245000000000000079,-36.113458987713180193
0.246000000000000080,-36.273478112011140695
0.247000000000000081,-36.417951216021251071
0.248000000000000081,-36.546831131897562273
0.249000000000000082,-36.660096865701305546
0.250000000000000111,-36.757756646389537991
0.251000000000000112,-36.839850366444196084
0.252000000000000113,-36.906451440460998015
0.253000000000000114,-36.957668112306187425
0.254000000000000115,-36.993644244825567569
0.255000000000000115,-37.014559628624922993
0.256000000000000116,-37.020629848219066105
0.257000000000000117,-37.012105744943873731
0.258000000000000118,-36.989272516516521705
0.259000000000000119,-36.952448493092205695
0.260000000000000120,-36.901983629166167589
0.261000000000000121,-36.838257749776396111
0.262000000000000122,-36.761678588237678866
0.263000000000000123,-36.672679651137308099
0.264000000000000123,-36.571717944601516592
0.265000000000000124,-36.459271593946375845
0.266000000000000125,-36.335837386803106597
0.267000000000000126,-36.201928267691975805
0.268000000000000127,-36.058070809849780858
0.269000000000000128,-35.904802687920216897
0.270000000000000129,-35.742670172924469796
0.271000000000000130,-35.572225668762463613
0.272000000000000131,-35.394025307373304656
0.273000000000000131,-35.208626617624339872
0.274000000000000132,-35.016586281013509563
0.275000000000000133,-34.818457985373804320
0.276000000000000134,-34.614790385965520159
0.277000000000000135,-34.406125181643389510
0.278000000000000136,-34.192995312191634127
0.279000000000000137,-33.975923281436337220
0.280000000000000138,-33.755419609371884349
0.281000000000000139,-33.531981415274785263
0.282000000000000139,-33.306091132627038576
0.283000000000000140,-33.078215355625317784
0.284000000000000141,-32.848803816112969400
0.285000000000000142,-32.618288488933444569
0.286000000000000143,-32.387082822962739215
0.287000000000000144,-32.155581094430303324
0.288000000000000145,-31.924157878579126901
0.289000000000000146,-31.693167635238097546
0.290000000000000147,-31.462944403482644873
0.291000000000000147,-31.233801600233771723
0.292000000000000148,-31.006031917388089170
0.293000000000000149,-30.779907311876719689
0.294000000000000150,-30.555679082912519107
0.295000000000000151,-30.333578030600811815
0.296000000000000152,-30.113814690049526490
0.297000000000000153,-29.896579635121362628
0.298000000000000154,-29.682043846012341248
0.299000000000000155,-29.470359134919863919
0.300000000000000155,-29.261658624169843534
0.301000000000000156,-29.056057271306720224
0.302000000000000157,-28.853652435806132814
0.303000000000000158,-28.654524482245186334
0.304000000000000159,-28.458737414957351319
0.305000000000000160,-28.266339539402697056
0.306000000000000161,-28.077364145700329345
0.307000000000000162,-27.891830209992214407
0.308000000000000163,-27.709743109536788097
0.309000000000000163,-27.531095347663665507
0.310000000000000164,-27.355867284954854313
0.311000000000000165,-27.184027873252915697
0.312000000000000166,-27.015535389330363358
0.313000000000000167,-26.850338165284927783
0.314000000000000168,-26.688375312953297680
0.315000000000000169,-26.529577439858194055
0.316000000000000170,-26.373867354420678311
0.317000000000000171,-26.221160758380563038
0.318000000000000171,-26.071366924571016455
0.319000000000000172,-25.924389358390492077
0.320000000000000173,-25.780126441502964951
0.321000000000000174,-25.638472056477986882
0.322000000000000175,-25.499316191253846853
0.323000000000000176,-25.362545522470547610
0.324000000000000177,-25.228043976873632204
0.325000000000000178,-25.095693270136006703
0.326000000000000179,-24.965373422582029406
0.327000000000000179,-24.836963251426670496
0.328000000000000180,-24.710340839262748602
0.329000000000000181,-24.585383978641139890
0.330000000000000182,-24.461970592691873350
0.331000000000000183,-24.339979131830567383
0.332000000000000184,-24.219288946681700736
0.333000000000000185,-24.099780637431408081
0.334000000000000186,-23.981336379895214606
0.335000000000000187,-23.863840228652748010
0.336000000000000187,-23.747178397661432570
0.337000000000000188,-23.631239518813863754
0.338000000000000189,-23.515914878951925004
0.339000000000000190,-23.401098635891585786
0.340000000000000191,-23.286688014048756656
0.341000000000000192,-23.172583480288444946
0.342000000000000193,-23.058688900644405351
0.343000000000000194,-22.944911678579792635
0.344000000000000195,-22.831162875475619956
0.345000000000000195,-22.717357314048580719
0.346000000000000196,-22.603413665408801592
0.347000000000000197,-22.489254520475231658
0.348000000000000198,-22.374806446469779786
0.349000000000000199,-22.260000029211290951
0.350000000000000200,-22.144769901929013400
0.351000000000000201,-22.029054761310167265
0.352000000000000202,-21.912797371489407539
0.353000000000000203,-21.795944556679554438
0.354000000000000203,-21.678447183131975606
0.355000000000000204,-21.560260131102904069
0.356000000000000205,-21.441342257488436474
0.357000000000000206,-21.321656349776088035
0.358000000000000207,-21.201169071944253375
0.359000000000000208,-21.079850902924810896
0.360000000000000209,-20.957676068225520538
0.361000000000000210,-20.834622465290802751
0.362000000000000210,-20.710671583160394249
0.363000000000000211,-20.585808416965790002
0.364000000000000212,-20.460021377784809005
0.365000000000000213,-20.333302198354100909
0.366000000000000214,-20.205645835119767639
0.367000000000000215,-20.077050367085458760
0.368000000000000216,-19.947516891897567604
0.369000000000000217,-19.817049419586233228
0.370000000000000218,-19.685654764361757429
0.371000000000000218,-19.553342434845141895
0.372000000000000219,-19.420124523092699320
0.373000000000000220,-19.286015592754960579
0.374000000000000221,-19.151032566691114312
0.375000000000000222,-19.015194614341826451
0.376000000000000223,-18.878523039144919693
0.377000000000000224,-18.741041166260735906
0.378000000000000225,-18.602774230856613968
0.379000000000000226,-18.463749267183168001
0.380000000000000226,-18.323994998658879041
0.381000000000000227,-18.183541729163099632
0.382000000000000228,-18.042421235723232087
0.383000000000000229,-17.900666662766251847
0.384000000000000230,-17.758312418090714147
0.385000000000000231,-17.615394070702187435
0.386000000000000232,-17.471948250641119671
0.387000000000000233,-17.328012550920121271
0.388000000000000234,-17.183625431675253026
0.389000000000000234,-17.038826126624691426
0.390000000000000235,-16.893654551916533535
0.391000000000000236,-16.748151217437801108
0.392000000000000237,-16.602357140645878530
0.393000000000000238,-16.456313762974918546
0.394000000000000239,-16.310062868860061513
0.395000000000000240,-16.163646507414334508
0.396000000000000241,-16.017106916784804582
0.397000000000000242,-15.870486451206872403
0.398000000000000242,-15.723827510768938254
0.399000000000000243,-15.577172473892371585
0.400000000000000244,-15.430563632525764461
0.401000000000000245,-15.284043130046764958
0.402000000000000246,-15.137652901858922760
0.403000000000000247,-14.991434618666010792
0.404000000000000248,-14.845429632401863529
0.405000000000000249,-14.699678924788992518
0.406000000000000250,-14.554223058495505683
0.407000000000000250,-14.409102130856018320
0.408000000000000251,-14.264355730118827736
0.409000000000000252,-14.120022894178864803
0.410000000000000253,-13.976142071752557072
0.411000000000000254,-13.832751085948848058
0.412000000000000255,-13.689887100187897673
0.413000000000000256,-13.547586586417271093
0.414000000000000257,-13.405885295573336080
0.415000000000000258,-13.264818230234499907
0.416000000000000258,-13.124419619411096249
0.417000000000000259,-12.984722895415938382
0.418000000000000260,-12.845760672758473220
0.419000000000000261,-12.707564729004650061
0.420000000000000262,-12.570165987544266173
0.421000000000000263,-12.433594502206833710
0.422000000000000264,-12.297879443666872135
0.423000000000000265,-12.163049087579333118
0.424000000000000266,-12.029130804386065634
0.425000000000000266,-11.896151050733909216
0.426000000000000267,-11.764135362445632182
0.427000000000000268,-11.633108348985047087
0.428000000000000269,-11.503093689358163232
0.429000000000000270,-11.374114129392706829
0.430000000000000271,-11.246191480338854518
0.431000000000000272,-11.119346618734921250
0.432000000000000273,-10.993599487482285326
0.433000000000000274,-10.868969098074776625
0.434000000000000274,-10.745473533928471710
0.435000000000000275,-10.623129954758976368
0.436000000000000276,-10.501954601954116342
0.437000000000000277,-10.381962804890807917
0.438000000000000278,-10.263168988146350813
0.439000000000000279,-10.145586679555066212
0.440000000000000280,-10.029228519062435510
0.441000000000000281,-9.914106268330094451
0.442000000000000282,-9.800230821046209684
0.443000000000000282,-9.687612213896688473
0.444000000000000283,-9.576259638154210663
0.445000000000000284,-9.466181451842999195
0.446000000000000285,-9.357385192438421484
0.447000000000000286,-9.249877590062116184
0.448000000000000287,-9.143664581133855052
0.449000000000000288,-9.038751322443292935
0.450000000000000289,-8.935142205605391297
0.451000000000000290,-8.832840871864759080
0.452000000000000290,-8.731850227215360860
0.453000000000000291,-8.632172457803044097
0.454000000000000292,-8.533809045579699770
0.455000000000000293,-8.436760784178858330
0.456000000000000294,-8.341027794983773447
0.457000000000000295,-8.246609543360156280
0.458000000000000296,-8.153504855026728393
0.459000000000000297,-8.061711932538056402
0.460000000000000298,-7.971228371854922834
0.461000000000000298,-7.882051178978846551
0.462000000000000299,-7.794176786628173481
0.463000000000000300,-7.707601070934233078
0.464000000000000301,-7.622319368137128848
0.465000000000000302,-7.538326491261621243
0.466000000000000303,-7.455616746754498259
0.467000000000000304,-7.374183951065738540
0.468000000000000305,-7.294021447156920246
0.469000000000000306,-7.215122120920741899
0.470000000000000306,-7.137478417496903482
0.471000000000000307,-7.061082357469951276
0.472000000000000308,-6.985925552935951188
0.473000000000000309,-6.911999223425236316
0.474000000000000310,-6.839294211669534107
0.475000000000000311,-6.767800999202347789
0.476000000000000312,-6.697509721782422432
0.477000000000000313,-6.628410184630328494
0.478000000000000314,-6.560491877469550204
0.479000000000000314,-6.493743989363556679
0.480000000000000315,-6.428155423341212149
0.481000000000000316,-6.363714810803512201
0.482000000000000317,-6.300410525705075315
0.483000000000000318,-6.238230698504553473
0.484000000000000319,-6.177163229878489759
0.485000000000000320,-6.117195804193893416
0.486000000000000321,-6.058315902735093239
0.487000000000000322,-6.000510816681041248
0.488000000000000322,-5.943767659829646277
0.489000000000000323,-5.888073381066251777
0.490000000000000324,-5.833414776573675908
0.491000000000000325,-5.779778501781732913
0.492000000000000326,-5.727151083054452307
0.493000000000000327,-5.675518929113771982
0.494000000000000328,-5.624868342198569238
0.495000000000000329,-5.575185528958504833
0.496000000000000330,-5.526456611082266157
0.497000000000000330,-5.478667635660225521
0.498000000000000331,-5.431804585281804876
0.499000000000000332,-5.385853387868063891
0.500000000000000333,-5.340799926240360485
0.501000000000000334,-5.296630047426138965
0.502000000000000335,-5.253329571703107881
0.503000000000000336,-5.210884301383464035
0.504000000000000337,-5.169280029339692106
0.505000000000000338,-5.128502547274083945
0.506000000000000338,-5.088537653733958166
0.507000000000000339,-5.049371161874910641
0.508000000000000340,-5.010988906974590762
0.509000000000000341,-4.973376753699555231
0.510000000000000342,-4.936520603127992679
0.511000000000000343,-4.900406399531168411
0.512000000000000344,-4.865020136916613502
0.513000000000000345,-4.830347865336159785
0.514000000000000346,-4.796375696962081214
0.515000000000000346,-4.763089811934580808
0.516000000000000347,-4.730476463984076396
0.517000000000000348,-4.698521985831807690
0.518000000000000349,-4.667212794372170848
0.519000000000000350,-4.636535395640548174
0.520000000000000351,-4.606476389570248742
0.521000000000000352,-4.577022474542223662
0.522000000000000353,-4.548160451731405374
0.523000000000000353,-4.519877229253414619
0.524000000000000354,-4.492159826115491583
0.525000000000000355,-4.464995375975504999
0.526000000000000356,-4.438371130712889467
0.527000000000000357,-4.412274463815466952
0.528000000000000358,-4.386692873585976926
0.529000000000000359,-4.361613986172254265
0.530000000000000360,-4.337025558425017024
0.531000000000000361,-4.312915480587069972
0.532000000000000361,-4.289271778817885128
0.533000000000000362,-4.266082617557463763
0.534000000000000363,-4.243336301733302562
0.535000000000000364,-4.221021278814333755
0.536000000000000365,-4.199126140715710775
0.537000000000000366,-4.177639625558209779
0.538000000000000367,-4.156550619286040416
0.539000000000000368,-4.135848157146858384
0.540000000000000369,-4.115521425037625747
0.541000000000000369,-4.095559760720091980
0.542000000000000370,-4.075952654909538175
0.543000000000000371,-4.056689752240304259
0.544000000000000372,-4.037760852111828669
0.545000000000000373,-4.019155909418616446
0.546000000000000374,-4.000865035167675110
0.547000000000000375,-3.982878496986851591
0.548000000000000376,-3.965186719527501680
0.549000000000000377,-3.947780284764816905
0.550000000000000377,-3.930649932199093310
0.551000000000000378,-3.913786558961264372
0.552000000000000379,-3.897181219825851972
0.553000000000000380,-3.880825127134501340
0.554000000000000381,-3.864709650633215254
0.555000000000000382,-3.848826317226349936
0.556000000000000383,-3.833166810650319611
0.557000000000000384,-3.817722971070020233
0.558000000000000385,-3.802486794600834941
0.559000000000000385,-3.787450432759048802
0.560000000000000386,-3.772606191843471457
0.561000000000000387,-3.757946532251005944
0.562000000000000388,-3.743464067728825562
0.563000000000000389,-3.729151564565778010
0.564000000000000390,-3.715001940725591645
0.565000000000000391,-3.701008264924406710
0.566000000000000392,-3.687163755655063824
0.567000000000000393,-3.673461780160589996
0.568000000000000393,-3.659895853359176776
0.569000000000000394,-3.646459636723025532
0.570000000000000395,-3.633146937113245656
0.571000000000000396,-3.619951705572996836
0.572000000000000397,-3.606868036081073203
0.573000000000000398,-3.593890164267928178
0.574000000000000399,-3.581012466096269442
0.575000000000000400,-3.568229456508130060
0.576000000000000401,-3.555535788040387501
0.577000000000000401,-3.542926249410624617
0.578000000000000402,-3.530395764075139109
0.579000000000000403,-3.517939388760888964
0.580000000000000404,-3.505552311973139101
0.581000000000000405,-3.493229852480486564
0.582000000000000406,-3.480967457778858964
0.583000000000000407,-3.468760702536172857
0.584000000000000408,-3.456605287019121509
0.585000000000000409,-3.444497035503626847
0.586000000000000409,-3.432431894670426864
0.587000000000000410,-3.420405931987206660
0.588000000000000411,-3.408415334078623626
0.589000000000000412,-3.396456405085596320
0.590000000000000413,-3.384525565015110260
0.591000000000000414,-3.372619348081822288
0.592000000000000415,-3.360734401042638098
0.593000000000000416,-3.348867481525447776
0.594000000000000417,-3.337015456353165543
0.595000000000000417,-3.325175299864125744
0.596000000000000418,-3.313344092229910220
0.597000000000000419,-3.301519017771650688
0.598000000000000420,-3.289697363275723152
0.599000000000000421,-3.277876516309846444
0.600000000000000422,-3.266053963540449079
0.601000000000000423,-3.254227289052214367
0.602000000000000424,-3.242394172670621799
0.603000000000000425,-3.230552388288324916
0.604000000000000425,-3.218699802196108184
0.605000000000000426,-3.206834371419216900
0.606000000000000427,-3.194954142059760027
0.607000000000000428,-3.183057247645830312
