# AuFCC111UCD_1HPYRAZOLE-AC
# h[nm],U(h)[kJ/mol]
0.149999999999999994,92.379476072935972297
0.150999999999999995,88.373332138918499368
0.151999999999999996,85.012023808404620695
0.152999999999999997,81.805090680278254922
0.153999999999999998,78.618931179135103093
0.154999999999999999,75.459862614931580538
0.156000000000000000,72.369933107853015031
0.157000000000000001,69.383926530677754840
0.158000000000000002,66.517269036377143721
0.159000000000000002,63.767735412241833615
0.160000000000000003,61.121838049830593320
0.161000000000000004,58.561463885937143914
0.162000000000000005,56.068952829922508840
0.163000000000000006,53.630192482630945960
0.164000000000000007,51.235953071690040872
0.165000000000000008,48.881925278826656722
0.166000000000000009,46.567948294115922181
0.167000000000000010,44.296841804008899146
0.168000000000000010,42.073148870590173942
0.169000000000000011,39.901990846861579598
0.170000000000000012,37.788146152043751158
0.171000000000000013,35.735396947121444100
0.172000000000000014,33.746140994041518013
0.173000000000000015,31.821237165877846564
0.174000000000000016,29.960038253302844424
0.175000000000000017,28.160560002313850703
0.176000000000000018,26.419737343433219223
0.177000000000000018,24.733724824556581723
0.178000000000000019,23.098206300712366357
0.179000000000000020,21.508687524829824156
0.180000000000000021,19.960753478563269425
0.181000000000000022,18.450279520183567428
0.182000000000000023,16.973591430778903089
0.183000000000000024,15.527574132988281264
0.184000000000000025,14.109732291563542361
0.185000000000000026,12.718208313932738207
0.186000000000000026,11.351764623156606504
0.187000000000000027,10.009737659573378465
0.188000000000000028,8.691971060254758186
0.189000000000000029,7.398735030363783771
0.190000000000000030,6.130638198965416841
0.191000000000000031,4.888537361068467035
0.192000000000000032,3.673449541057305368
0.193000000000000033,2.486469841408078807
0.194000000000000034,1.328697616265702042
0.195000000000000034,0.201172666978195025
0.196000000000000035,-0.895177582740300459
0.197000000000000036,-1.959579600362635787
0.198000000000000037,-2.991444125688760280
0.199000000000000038,-3.990385997446378674
0.200000000000000039,-4.956234298837009611
0.201000000000000040,-5.889033898493138075
0.202000000000000041,-6.789039585834681034
0.203000000000000042,-7.656704054526128012
0.204000000000000042,-8.492660987080730806
0.205000000000000043,-9.297704449372089286
0.206000000000000044,-10.072765726627871175
0.207000000000000045,-10.818888631914580500
0.208000000000000046,-11.537204202420559440
0.209000000000000047,-12.228905574952060320
0.210000000000000048,-12.895223705681136295
0.211000000000000049,-13.537404474867098969
0.212000000000000050,-14.156687598517937232
0.213000000000000050,-14.754287658325987209
0.214000000000000051,-15.331377460477622066
0.215000000000000052,-15.889073844182201256
0.216000000000000053,-16.428425982520021620
0.217000000000000054,-16.950406151546513200
0.218000000000000055,-17.455902888228727932
0.219000000000000056,-17.945716413179980009
0.220000000000000057,-18.420556159559627218
0.221000000000000058,-18.881040224037214159
0.222000000000000058,-19.327696538442353358
0.223000000000000059,-19.760965550639905786
0.224000000000000060,-20.181204199307366309
0.225000000000000061,-20.588690968688638350
0.226000000000000062,-20.983631815145752597
0.227000000000000063,-21.366166766582217917
0.228000000000000064,-21.736377007789378979
0.229000000000000065,-22.094292278773743021
0.230000000000000066,-22.439898428533169294
0.231000000000000066,-22.773144983025282784
0.232000000000000067,-23.093952602741232738
0.233000000000000068,-23.402220321972212247
0.234000000000000069,-23.697832478205747009
0.235000000000000070,-23.980665255851896234
0.236000000000000071,-24.250592783467912028
0.237000000000000072,-24.507492737668300720
0.238000000000000073,-24.751251419862992265
0.239000000000000073,-24.981768283785775964
0.240000000000000074,-25.198959902421954382
0.241000000000000075,-25.402763372403100561
0.242000000000000076,-25.593139162222559690
0.243000000000000077,-25.770073417768998070
0.244000000000000078,-25.933579744722777605
0.245000000000000079,-26.083700492368883772
0.246000000000000080,-26.220507567418717798
0.247000000000000081,-26.344102809573065826
0.248000000000000081,-26.454617962875481396
0.249000000000000082,-26.552214278478679432
0.250000000000000111,-26.637081785353167618
0.251000000000000112,-26.709438265783877142
0.252000000000000113,-26.769527972302718410
0.253000000000000114,-26.817620122060958465
0.254000000000000115,-26.854007203626430567
0.255000000000000115,-26.879003129855554732
0.256000000000000116,-26.892941268901086715
0.257000000000000117,-26.896172383624296742
0.258000000000000118,-26.889062507735179253
0.259000000000000119,-26.871990784929664642
0.260000000000000120,-26.845347295168760837
0.261000000000000121,-26.809530890083909327
0.262000000000000122,-26.764947057328544844
0.263000000000000123,-26.712005831551454804
0.264000000000000123,-26.651119767567923446
0.265000000000000124,-26.582701989265888898
0.266000000000000125,-26.507164325825080198
0.267000000000000126,-26.424915544956053992
0.268000000000000127,-26.336359691096749458
0.269000000000000128,-26.241894534840334074
0.270000000000000129,-26.141910138317712153
0.271000000000000130,-26.036787539821801829
0.272000000000000131,-25.926897559641695068
0.273000000000000131,-25.812599727871837985
0.274000000000000132,-25.694241333873684141
0.275000000000000133,-25.572156596092259662
0.276000000000000134,-25.446665950063977135
0.277000000000000135,-25.318075451691949951
0.278000000000000136,-25.186676292204630556
0.279000000000000137,-25.052744420649258217
0.280000000000000138,-24.916540269297435373
0.281000000000000139,-24.778308576949637398
0.282000000000000139,-24.638278304814456021
0.283000000000000140,-24.496662639399595207
0.284000000000000141,-24.353659076679647910
0.285000000000000142,-24.209449581695679399
0.286000000000000143,-24.064200817685954092
0.287000000000000144,-23.918064438842399966
0.288000000000000145,-23.771177440827322869
0.289000000000000146,-23.623662563263906122
0.290000000000000147,-23.475628738528602213
0.291000000000000147,-23.327171581317919902
0.292000000000000148,-23.178373913633102177
0.293000000000000149,-23.029306320018328336
0.294000000000000150,-22.880027728099292972
0.295000000000000151,-22.730586009694825123
0.296000000000000152,-22.581018598011034726
0.297000000000000153,-22.431353116674124237
0.298000000000000154,-22.281608016609411038
0.299000000000000155,-22.131793217030274690
0.300000000000000155,-21.981910747057444411
0.301000000000000156,-21.831955384745764803
0.302000000000000157,-21.681915290550019648
0.303000000000000158,-21.531772632511753329
0.304000000000000159,-21.381504200694969597
0.305000000000000160,-21.231082008637454095
0.306000000000000161,-21.080473879816956639
0.307000000000000162,-20.929644017355659713
0.308000000000000163,-20.778553555401494179
0.309000000000000163,-20.627161090831570789
0.310000000000000164,-20.475423194119485970
0.311000000000000165,-20.323294898394706820
0.312000000000000166,-20.170730165899534825
0.313000000000000167,-20.017682331214597724
0.314000000000000168,-19.864104520780557550
0.315000000000000169,-19.709950048389050181
0.316000000000000170,-19.555172786451777256
0.317000000000000171,-19.399727512981932875
0.318000000000000171,-19.243570234338314151
0.319000000000000172,-19.086658483888207627
0.320000000000000173,-18.928951596842562566
0.321000000000000174,-18.770410961604387268
0.322000000000000175,-18.611000248050874717
0.323000000000000176,-18.450685613240722205
0.324000000000000177,-18.289435885100882473
0.325000000000000178,-18.127222724702509282
0.326000000000000179,-17.964020767784376176
0.327000000000000179,-17.799807746222931826
0.328000000000000180,-17.634564590183515520
0.329000000000000181,-17.468275511716448989
0.330000000000000182,-17.300928070584223661
0.331000000000000183,-17.132513223125080515
0.332000000000000184,-16.963025354970419301
0.333000000000000185,-16.792462298442885071
0.334000000000000186,-16.620825335465550410
0.335000000000000187,-16.448119186813876524
0.336000000000000187,-16.274351988538359848
0.337000000000000188,-16.099535256380118398
0.338000000000000189,-15.923683838992058526
0.339000000000000190,-15.746815860766687933
0.340000000000000191,-15.568952655057083589
0.341000000000000192,-15.390118688562012039
0.342000000000000193,-15.210341477626858619
0.343000000000000194,-15.029651497193473375
0.344000000000000195,-14.848082083109963136
0.345000000000000195,-14.665669328489693513
0.346000000000000196,-14.482451974784879667
0.347000000000000197,-14.298471298216430370
0.348000000000000198,-14.113770992176593921
0.349000000000000199,-13.928397046195527764
0.350000000000000200,-13.742397622037595184
0.351000000000000201,-13.555822927466739003
0.352000000000000202,-13.368725088194784334
0.353000000000000203,-13.181158018500170215
0.354000000000000203,-12.993177290978787042
0.355000000000000204,-12.804840005862976327
0.356000000000000205,-12.616204660319347397
0.357000000000000206,-12.427331018110937322
0.358000000000000207,-12.238279979984636014
0.359000000000000208,-12.049113455120870952
0.360000000000000209,-11.859894233958693022
0.361000000000000210,-11.670685862686633882
0.362000000000000210,-11.481552519667173939
0.363000000000000211,-11.292558894041125228
0.364000000000000212,-11.103770066737064681
0.365000000000000213,-10.915251394090713433
0.366000000000000214,-10.727068394259571704
0.367000000000000215,-10.539286636599209501
0.368000000000000216,-10.351971634149657930
0.369000000000000217,-10.165188739362820414
0.370000000000000218,-9.979003043185409538
0.371000000000000218,-9.793479277595952937
0.372000000000000219,-9.608681721679445786
0.373000000000000220,-9.424674111308746660
0.374000000000000221,-9.241519552488576039
0.375000000000000222,-9.059280438404563540
0.376000000000000223,-8.878018370208183185
0.377000000000000224,-8.697794081556684986
0.378000000000000225,-8.518667366916442774
0.379000000000000226,-8.340697013628084022
0.380000000000000226,-8.163940737722381158
0.381000000000000227,-7.988455123466908780
0.382000000000000228,-7.814295566615638400
0.383000000000000229,-7.641516221325760583
0.384000000000000230,-7.470169950699094841
0.385000000000000231,-7.300308280899251656
0.386000000000000232,-7.131981358789462710
0.387000000000000233,-6.965237913030878580
0.388000000000000234,-6.800125218576060782
0.389000000000000234,-6.636689064488264123
0.390000000000000235,-6.474973725012671544
0.391000000000000236,-6.315021933822886346
0.392000000000000237,-6.156874861362108042
0.393000000000000238,-6.000572095196458733
0.394000000000000239,-5.846151623294972843
0.395000000000000240,-5.693649820149159879
0.396000000000000241,-5.543101435643256636
0.397000000000000242,-5.394539586584874868
0.398000000000000242,-5.247995750804932413
0.399000000000000243,-5.103499763734818728
0.400000000000000244,-4.961079817368128531
0.401000000000000245,-4.820762461514551234
0.402000000000000246,-4.682572607252948771
0.403000000000000247,-4.546533532490994567
0.404000000000000248,-4.412666889539455184
0.405000000000000249,-4.280992714609383576
0.406000000000000250,-4.151529439141455669
0.407000000000000250,-4.024293902877604800
0.408000000000000251,-3.899301368586026939
0.409000000000000252,-3.776565538352100848
0.410000000000000253,-3.656098571348716852
0.411000000000000254,-3.537911103001301516
0.412000000000000255,-3.422012265464090319
0.413000000000000256,-3.308409709325997650
0.414000000000000257,-3.197109626465942878
0.415000000000000258,-3.088116773979502128
0.416000000000000258,-2.981434499100360735
0.417000000000000259,-2.877064765042056216
0.418000000000000260,-2.775008177687430244
0.419000000000000261,-2.675264013055035583
0.420000000000000262,-2.577830245474012294
0.421000000000000263,-2.482703576400676404
0.422000000000000264,-2.389879463812348170
0.423000000000000265,-2.299352152115755388
0.424000000000000266,-2.211114702509799024
0.425000000000000266,-2.125159023744040976
0.426000000000000267,-2.041475903216753096
0.427000000000000268,-1.960055038358210711
0.428000000000000269,-1.880885068247026837
0.429000000000000270,-1.803953605409345684
0.430000000000000271,-1.729247267752747508
0.431000000000000272,-1.656751710588654447
0.432000000000000273,-1.586451658699095102
0.433000000000000274,-1.518330938405570540
0.434000000000000274,-1.452372509599635375
0.435000000000000275,-1.388558497696826821
0.436000000000000276,-1.326870225477312148
0.437000000000000277,-1.267288244778448592
0.438000000000000278,-1.209792368006334717
0.439000000000000279,-1.154361699435071609
0.440000000000000280,-1.100974666264187718
0.441000000000000281,-1.049609049406356132
0.442000000000000282,-1.000242013979232292
0.443000000000000282,-0.952850139476607239
0.444000000000000283,-0.907409449595933948
0.445000000000000284,-0.863895441700518907
0.446000000000000285,-0.822283115896161099
0.447000000000000286,-0.782547003703703226
0.448000000000000287,-0.744661196309904572
0.449000000000000288,-0.708599372380759318
0.450000000000000289,-0.674334825422452933
0.451000000000000290,-0.641840490676462316
0.452000000000000290,-0.611088971536492886
0.453000000000000291,-0.582052565476132044
0.454000000000000292,-0.554703289477209371
0.455000000000000293,-0.529012904949871188
0.456000000000000294,-0.504952942136540517
0.457000000000000295,-0.482494723992751506
0.458000000000000296,-0.461609389539031967
0.459000000000000297,-0.442267916678663942
0.460000000000000298,-0.424441144477291199
0.461000000000000298,-0.408099794900923185
0.462000000000000299,-0.393214494009976323
0.463000000000000300,-0.379755792607464671
0.464000000000000301,-0.367694186340422557
0.465000000000000302,-0.357000135254201933
0.466000000000000303,-0.347644082800030507
0.467000000000000304,-0.339596474296712580
0.468000000000000305,-0.332827774848218572
0.469000000000000306,-0.327308486719140868
0.470000000000000306,-0.323009166170785178
0.471000000000000307,-0.319900439761071798
0.472000000000000308,-0.317953020111914064
0.473000000000000309,-0.317137721148156471
0.474000000000000310,-0.317425472812630449
0.475000000000000311,-0.318787335262301519
0.476000000000000312,-0.321194512550727673
0.477000000000000313,-0.324618365802532005
0.478000000000000314,-0.329030425885848077
0.479000000000000314,-0.334402405589020291
0.480000000000000315,-0.340706211308049567
0.481000000000000316,-0.347913954251673263
0.482000000000000317,-0.355997961171021893
0.483000000000000318,-0.364930784621170567
0.484000000000000319,-0.374685212761958597
0.485000000000000320,-0.385234278705801181
0.486000000000000321,-0.396551269420145736
0.487000000000000322,-0.408609734192583229
0.488000000000000322,-0.421383492666642823
0.489000000000000323,-0.434846642456382715
0.490000000000000324,-0.448973566348088049
0.491000000000000325,-0.463738939097372405
0.492000000000000326,-0.479117733830090764
0.493000000000000327,-0.495085228055498594
0.494000000000000328,-0.511617009300201375
0.495000000000000329,-0.528688980371350814
0.496000000000000330,-0.546277364257703679
0.497000000000000330,-0.564358708677013543
0.498000000000000331,-0.582909890278414222
0.499000000000000332,-0.601908118508182932
0.500000000000000333,-0.621330939147547001
0.501000000000000334,-0.641156237530952744
0.502000000000000335,-0.661362241453218980
0.503000000000000336,-0.681927523774043531
0.504000000000000337,-0.702831004728165842
0.505000000000000338,-0.724051953949506832
0.506000000000000338,-0.745569992217490318
0.507000000000000339,-0.767365092933723902
0.508000000000000340,-0.789417583337120199
0.509000000000000341,-0.811708145465403041
0.510000000000000342,-0.834217816870993056
0.511000000000000343,-0.856927991099011521
0.512000000000000344,-0.879820417935185950
0.513000000000000345,-0.902877203431226349
0.514000000000000346,-0.926080809715247200
0.515000000000000346,-0.949414054594600598
0.516000000000000347,-0.972860110958449376
0.517000000000000348,-0.996402505987284970
0.518000000000000349,-1.020025120176450528
0.519000000000000350,-1.043712186180597135
0.520000000000000351,-1.067448287486054470
0.521000000000000352,-1.091218356917638133
0.522000000000000353,-1.115007674986675967
0.523000000000000353,-1.138801868086652958
0.524000000000000354,-1.162586906542824927
0.525000000000000355,-1.186349102522102239
0.526000000000000356,-1.210075107809226447
0.527000000000000357,-1.233751911455292616
0.528000000000000358,-1.257366837304485285
0.529000000000000359,-1.280907541404657124
0.530000000000000360,-1.304362009307508341
0.531000000000000361,-1.327718553263737222
0.532000000000000361,-1.350965809318567912
0.533000000000000362,-1.374092734312877262
0.534000000000000363,-1.397088602795036660
0.535000000000000364,-1.419943003848441965
0.536000000000000365,-1.442645837839601874
0.537000000000000366,-1.465187313091517618
0.538000000000000367,-1.487557942486994689
0.539000000000000368,-1.509748540006337292
0.540000000000000369,-1.531750217203867726
0.541000000000000369,-1.553554379627464233
0.542000000000000370,-1.575152723185328174
0.543000000000000371,-1.596537230463941359
0.544000000000000372,-1.617700167001199674
0.545000000000000373,-1.638634077518441812
0.546000000000000374,-1.659331782115145426
0.547000000000000375,-1.679786372429806107
0.548000000000000376,-1.699991207770513046
0.549000000000000377,-1.719939911218557382
0.550000000000000377,-1.739626365708340616
0.551000000000000378,-1.759044710086759000
0.552000000000000379,-1.778189335155072826
0.553000000000000380,-1.797054879696266649
0.554000000000000381,-1.815636226490705329
0.555000000000000382,-1.833928498322886735
0.556000000000000383,-1.851927053981918814
0.557000000000000384,-1.869627484258298722
0.558000000000000385,-1.887025607939495586
0.559000000000000385,-1.904117467806700770
0.560000000000000386,-1.920899326635019833
0.561000000000000387,-1.937367663199384804
0.562000000000000388,-1.953519168288253782
0.563000000000000389,-1.969350740727184190
0.564000000000000390,-1.984859483414193715
0.565000000000000391,-2.000042699368861587
0.566000000000000392,-2.014897887796923470
0.567000000000000393,-2.029422740172095896
0.568000000000000393,-2.043615136336815574
0.569000000000000394,-2.057473140623463426
0.570000000000000395,-2.070994997997563480
0.571000000000000396,-2.084179130224439458
0.572000000000000397,-2.097024132060682611
0.573000000000000398,-2.109528767471755106
0.574000000000000399,-2.121691965876944863
0.575000000000000400,-2.133512818422920621
0.576000000000000401,-2.144990574286934848
0.577000000000000401,-2.156124637010788714
0.578000000000000402,-2.166914560866568973
0.579000000000000403,-2.177360047255069819
0.580000000000000404,-2.187460941137826964
0.581000000000000405,-2.197217227503610815
0.582000000000000406,-2.206629027870136817
0.583000000000000407,-2.215696596821782105
0.584000000000000408,-2.224420318583968381
0.585000000000000409,-2.232800703634841621
0.586000000000000409,-2.240838385354918749
0.587000000000000410,-2.248534116715175113
0.588000000000000411,-2.255888767004134543
0.589000000000000412,-2.262903318594422952
0.590000000000000413,-2.269578863749205144
0.591000000000000414,-2.275916601468913392
0.592000000000000415,-2.281917834378604404
0.593000000000000416,-2.287583965656267093
0.594000000000000417,-2.292916496002390225
0.595000000000000417,-2.297917020650963593
0.596000000000000418,-2.302587226422225797
0.597000000000000419,-2.306928888817253220
0.598000000000000420,-2.310943869154604258
0.599000000000000421,-2.314634111749085399
0.600000000000000422,-2.318001641132794610
0.601000000000000423,-2.321048559318442450
0.602000000000000424,-2.323777043105032636
0.603000000000000425,-2.326189341425919821
0.604000000000000425,-2.328287772739184192
0.605000000000000426,-2.330074722460339309
0.606000000000000427,-2.331552640437300816
0.607000000000000428,-2.332724038467503647
0.608000000000000429,-2.333591487857133551
0.609000000000000430,-2.334157617022269982
