# Ce-001_CYSSCA-AC
# h[nm],U(h)[kJ/mol]
0.149999999999999994,123.077692643698497932
0.150999999999999995,121.581889168226410902
0.151999999999999996,118.690684156869266985
0.152999999999999997,115.461072447479821790
0.153999999999999998,112.344738931353930411
0.154999999999999999,109.474446499087918028
0.156000000000000000,106.833973102900515073
0.157000000000000001,104.353508523440495992
0.158000000000000002,101.958768122993319594
0.159000000000000002,99.592521920763942944
0.160000000000000003,97.220628847093692571
0.161000000000000004,94.830164113941734172
0.162000000000000005,92.424214315092470429
0.163000000000000006,90.015941212853562092
0.164000000000000007,87.623257847704437040
0.165000000000000008,85.264688957487052789
0.166000000000000009,82.956538907444056008
0.167000000000000010,80.711250905808753942
0.168000000000000010,78.536733211116910525
0.169000000000000011,76.436398650148902334
0.170000000000000012,74.409678247028580245
0.171000000000000013,72.452805744765157669
0.172000000000000014,70.559713446919460011
0.173000000000000015,68.722923034564900036
0.174000000000000016,66.934353520119614700
0.175000000000000017,65.186000395500187210
0.176000000000000018,63.470464901564888294
0.177000000000000018,61.781330615168577935
0.178000000000000019,60.113397073104309243
0.179000000000000020,58.462787946966628283
0.180000000000000021,56.826955372959808699
0.181000000000000022,55.204603365104603085
0.182000000000000023,53.595552610597827936
0.183000000000000024,52.000567031322248113
0.184000000000000025,50.421159825344474825
0.185000000000000026,48.859393679554706580
0.186000000000000026,47.317686762758995656
0.187000000000000027,45.798633170021084027
0.188000000000000028,44.304843823513991197
0.189000000000000029,42.838811515799363860
0.190000000000000030,41.402801839278218665
0.191000000000000031,39.998770181199702733
0.192000000000000032,38.628303757037905086
0.193000000000000033,37.292586773140627088
0.194000000000000034,35.992386211985838429
0.195000000000000034,34.728055376886672434
0.196000000000000035,33.499552174498170132
0.197000000000000036,32.306469112194797333
0.198000000000000037,31.148072106112124402
0.199000000000000038,30.023345401517094189
0.200000000000000039,28.931040171964372831
0.201000000000000040,27.869724663805971687
0.202000000000000041,26.837834068842816748
0.203000000000000042,25.833718625073288422
0.204000000000000042,24.855688752036133593
0.205000000000000043,23.902056314736359610
0.206000000000000044,22.971171372806132638
0.207000000000000045,22.061454005836466763
0.208000000000000046,21.171421009948645064
0.209000000000000047,20.299707434311969223
0.210000000000000048,19.445083070190474217
0.211000000000000049,18.606464120754626634
0.212000000000000050,17.782920369414245698
0.213000000000000050,16.973678230273868905
0.214000000000000051,16.178120109123259596
0.215000000000000052,15.395780529872533648
0.216000000000000053,14.626339492204914805
0.217000000000000054,13.869613524025448115
0.218000000000000055,13.125544879450288249
0.219000000000000056,12.394189311829553191
0.220000000000000057,11.675702823631995741
0.221000000000000058,10.970327762729144894
0.222000000000000058,10.278378599245336034
0.223000000000000059,9.600227680033333044
0.224000000000000060,8.936291220109533029
0.225000000000000061,8.287015752972070715
0.226000000000000062,7.652865225378643110
0.227000000000000063,7.034308887466700355
0.228000000000000064,6.431810096504388063
0.229000000000000065,5.845816122382056612
0.230000000000000066,5.276749015407000698
0.231000000000000066,4.724997572162175530
0.232000000000000067,4.190910413178393412
0.233000000000000068,3.674790166922983214
0.234000000000000069,3.176888738056123707
0.235000000000000070,2.697403623932989269
0.236000000000000071,2.236475231794401441
0.237000000000000072,1.794185139822949804
0.238000000000000073,1.370555238068294601
0.239000000000000073,0.965547679975838458
0.240000000000000074,0.579065571693391234
0.241000000000000075,0.210954324295218598
0.242000000000000076,-0.138996406638388581
0.243000000000000077,-0.471050269191611803
0.244000000000000078,-0.785521324696330181
0.245000000000000079,-1.082770790120095583
0.246000000000000080,-1.363203481700737685
0.247000000000000081,-1.627264024776348350
0.248000000000000081,-1.875432890845470268
0.249000000000000082,-2.108222318670018414
0.250000000000000111,-2.326172171801907496
0.251000000000000112,-2.529845780359873064
0.252000000000000113,-2.719825810284153711
0.253000000000000114,-2.896710198715555240
0.254000000000000115,-3.061108189642686828
0.255000000000000115,-3.213636499578623074
0.256000000000000116,-3.354915638808267708
0.257000000000000117,-3.485566409718581671
0.258000000000000118,-3.606206599910109389
0.259000000000000119,-3.717447884208244346
0.260000000000000120,-3.819892946358071306
0.261000000000000121,-3.914132828104511130
0.262000000000000122,-4.000744510534611997
0.263000000000000123,-4.080288729989129948
0.264000000000000123,-4.153308028534651086
0.265000000000000124,-4.220325036917769168
0.266000000000000125,-4.281840986093084389
0.267000000000000126,-4.338334441815883125
0.268000000000000127,-4.390260255408890977
0.269000000000000128,-4.438048722637081944
0.270000000000000129,-4.482104941643987317
0.271000000000000130,-4.522808360103102387
0.272000000000000131,-4.560512501106348537
0.273000000000000131,-4.595544856834015590
0.274000000000000132,-4.628206938714894747
0.275000000000000133,-4.658774472577404957
0.276000000000000134,-4.687497727200515385
0.277000000000000135,-4.714601964684616675
0.278000000000000136,-4.740288001165728460
0.279000000000000137,-4.764732866579968196
0.280000000000000138,-4.788090552439317804
0.281000000000000139,-4.810492836893579316
0.282000000000000139,-4.832050176718675871
0.283000000000000140,-4.852852656278757948
0.284000000000000141,-4.872970983951599777
0.285000000000000142,-4.892457526975904969
0.286000000000000143,-4.911347376168841983
0.287000000000000144,-4.929659432466093172
0.288000000000000145,-4.947397507750361356
0.289000000000000146,-4.964551432951127552
0.290000000000000147,-4.981098166916138936
0.291000000000000147,-4.997002900067915476
0.292000000000000148,-5.012220147364665479
0.293000000000000149,-5.026694825580277026
0.294000000000000150,-5.040363310400749697
0.295000000000000151,-5.053154469302431728
0.296000000000000152,-5.064990666628129468
0.297000000000000153,-5.075788737710590581
0.298000000000000154,-5.085460929306194089
0.299000000000000155,-5.093915803995601621
0.300000000000000155,-5.101059106580966507
0.301000000000000156,-5.106794590860994631
0.302000000000000157,-5.111024805495798518
0.303000000000000158,-5.113651837982439829
0.304000000000000159,-5.114578016050215226
0.305000000000000160,-5.113706566051275715
0.306000000000000161,-5.110942228169006896
0.307000000000000162,-5.106191828492562479
0.308000000000000163,-5.099364808212619060
0.309000000000000163,-5.090373710381495442
0.310000000000000164,-5.079134624850107471
0.311000000000000165,-5.065567592146337894
0.312000000000000166,-5.049596967195026487
0.313000000000000167,-5.031151743898911732
0.314000000000000168,-5.010165841704451672
0.315000000000000169,-4.986578355366384940
0.316000000000000170,-4.960333769201665355
0.317000000000000171,-4.931382137187261705
0.318000000000000171,-4.899679230308520594
0.319000000000000172,-4.865186652606074524
0.320000000000000173,-4.827871927400098073
0.321000000000000174,-4.787708555192264015
0.322000000000000175,-4.744676044758543654
0.323000000000000176,-4.698759918950815795
0.324000000000000177,-4.649951696722707695
0.325000000000000178,-4.598248852885840066
0.326000000000000179,-4.543654757087918661
0.327000000000000179,-4.486178593483053589
0.328000000000000180,-4.425835262539676407
0.329000000000000181,-4.362645266402019217
0.330000000000000182,-4.296634579187070813
0.331000000000000183,-4.227834503563208557
0.332000000000000184,-4.156281514916523534
0.333000000000000185,-4.082017094369473575
0.334000000000000186,-4.005087551872546392
0.335000000000000187,-3.925543840544178043
0.336000000000000187,-3.843441363387621656
0.337000000000000188,-3.758839773465537437
0.338000000000000189,-3.671802768565092912
0.339000000000000190,-3.582397881337441081
0.340000000000000191,-3.490696265846432222
0.341000000000000192,-3.396772481413139921
0.342000000000000193,-3.300704274593470267
0.343000000000000194,-3.202572360078862257
0.344000000000000195,-3.102460201261858508
0.345000000000000195,-3.000453791162221329
0.346000000000000196,-2.896641434363061762
0.347000000000000197,-2.791113530561674771
0.348000000000000198,-2.683962360296284544
0.349000000000000199,-2.575281873366895624
0.350000000000000200,-2.465167480427713720
0.351000000000000201,-2.353715848187991178
0.352000000000000202,-2.241024698620043054
0.353000000000000203,-2.127192612535680816
0.354000000000000203,-2.012318837856471809
0.355000000000000204,-1.896503102869044666
0.356000000000000205,-1.779845434723652087
0.357000000000000206,-1.662445983402800254
0.358000000000000207,-1.544404851356713682
0.359000000000000208,-1.425821928974068342
0.360000000000000209,-1.306796736029199879
0.361000000000000210,-1.187428269221436405
0.362000000000000210,-1.067814855897970316
0.363000000000000211,-0.948054014028852921
0.364000000000000212,-0.828242318481245299
0.365000000000000213,-0.708475273619805446
0.366000000000000214,-0.588847192241374051
0.367000000000000215,-0.469451080834377532
0.368000000000000216,-0.350378531137100713
0.369000000000000217,-0.231719617953699858
0.370000000000000218,-0.113562803172833779
0.371000000000000218,0.004005154079265693
0.372000000000000219,0.120899281231190245
0.373000000000000220,0.237036470095216695
0.374000000000000221,0.352335548833238366
0.375000000000000222,0.466717348169683022
0.376000000000000223,0.580104761969064242
0.377000000000000224,0.692422802303246598
0.378000000000000225,0.803598649139770638
0.379000000000000226,0.913561694788291745
0.380000000000000226,1.022243583246978282
0.381000000000000227,1.129578244595043302
0.382000000000000228,1.235501924580986621
0.383000000000000229,1.339953209559040292
0.384000000000000230,1.442873046928880409
0.385000000000000231,1.544204761235031587
0.386000000000000232,1.643894066084063521
0.387000000000000233,1.741889072038245612
0.388000000000000234,1.838140290644747710
0.389000000000000234,1.932600634759294778
0.390000000000000235,2.025225415322943423
0.391000000000000236,2.115972334749467887
0.392000000000000237,2.204801477080128969
0.393000000000000238,2.291675295060679129
0.394000000000000239,2.376558594294093218
0.395000000000000240,2.459418514620268503
0.396000000000000241,2.540224508871823161
0.397000000000000242,2.618948319152667459
0.398000000000000242,2.695563950783308904
0.399000000000000243,2.770047644054126401
0.400000000000000244,2.842377843925030234
0.401000000000000245,2.912535167806349801
0.402000000000000246,2.980502371553252150
0.403000000000000247,3.046264313802194756
0.404000000000000248,3.109807918774676772
0.405000000000000249,3.171122137670148611
0.406000000000000250,3.230197908766361703
0.407000000000000250,3.287028116341835560
0.408000000000000251,3.341607548531658978
0.409000000000000252,3.393932854223987938
0.410000000000000253,3.444002499101272541
0.411000000000000254,3.491816720926263606
0.412000000000000255,3.537377484169541564
0.413000000000000256,3.580688434071413351
0.414000000000000257,3.621754850227655087
0.415000000000000258,3.660583599784794639
0.416000000000000258,3.697183090327298860
0.417000000000000259,3.731563222535325686
0.418000000000000260,3.763735342688419472
0.419000000000000261,3.793712195087059147
0.420000000000000262,3.821507874460547960
0.421000000000000263,3.847137778426577004
0.422000000000000264,3.870618560064465807
0.423000000000000265,3.891968080661020402
0.424000000000000266,3.911205362684619047
0.425000000000000266,3.928350543040482368
0.426000000000000267,3.943424826656771298
0.427000000000000268,3.956450440448467276
0.428000000000000269,3.967450587703134524
0.429000000000000270,3.976449402929936205
0.430000000000000271,3.983471907210589968
0.431000000000000272,3.988543964088413496
0.432000000000000273,3.991692236029085628
0.433000000000000274,3.992944141484326082
0.434000000000000274,3.992327812587346703
0.435000000000000275,3.989872053506668070
0.436000000000000276,3.985606299482729931
0.437000000000000277,3.979560576569524777
0.438000000000000278,3.971765462101576105
0.439000000000000279,3.962252045904486319
0.440000000000000280,3.951051892265481147
0.441000000000000281,3.938197002678581526
0.442000000000000282,3.923719779377141670
0.443000000000000282,3.907652989665075349
0.444000000000000283,3.890029731056217965
0.445000000000000284,3.870883397229941014
0.446000000000000285,3.850247644809653202
0.447000000000000286,3.828156360969256156
0.448000000000000287,3.804643631871548415
0.449000000000000288,3.779743711941108586
0.450000000000000289,3.753490993973040535
0.451000000000000290,3.725919980077883942
0.452000000000000290,3.697065253461808254
0.453000000000000291,3.666961451040248399
0.454000000000000292,3.635643236882137863
0.455000000000000293,3.603145276480987924
0.456000000000000294,3.569502211848193163
0.457000000000000295,3.534748637423157813
0.458000000000000296,3.498919076793975957
0.459000000000000297,3.462047960221871445
0.460000000000000298,3.424169602961645076
0.461000000000000298,3.385318184370130545
0.462000000000000299,3.345527727793662365
0.463000000000000300,3.304832081225370644
0.464000000000000301,3.263264898722391560
0.465000000000000302,3.220859622572759040
0.466000000000000303,3.177649466201177830
0.467000000000000304,3.133667397802690324
0.468000000000000305,3.088946124692645512
0.469000000000000306,3.043518078361282519
0.470000000000000306,2.997415400220863724
0.471000000000000307,2.950669928032923828
0.472000000000000308,2.903313183003219944
0.473000000000000309,2.855376357531502318
0.474000000000000310,2.806890303603279513
0.475000000000000311,2.757885521810327312
0.476000000000000312,2.708392150986993485
0.477000000000000313,2.658439958448676421
0.478000000000000314,2.608058330819342352
0.479000000000000314,2.557276265434463181
0.480000000000000315,2.506122362305970075
0.481000000000000316,2.454624816635656792
0.482000000000000317,2.402811411863548852
0.483000000000000318,2.350709513237702719
0.484000000000000319,2.298346061891982206
0.485000000000000320,2.245747569418369061
0.486000000000000321,2.192940112920430451
0.487000000000000322,2.139949330534653527
0.488000000000000322,2.086800417406390995
0.489000000000000323,2.033518122107374371
0.490000000000000324,1.980126743481679608
0.491000000000000325,1.926650127907317822
0.492000000000000326,1.873111666960632915
0.493000000000000327,1.819534295470920382
0.494000000000000328,1.765940489952696257
0.495000000000000329,1.712352267403353334
0.496000000000000330,1.658791184453958678
0.497000000000000330,1.605278336861189370
0.498000000000000331,1.551834359328543522
0.499000000000000332,1.498479425645222740
0.500000000000000333,1.445233249131040898
0.501000000000000334,1.392115083376189499
0.502000000000000335,1.339143723264642372
0.503000000000000336,1.286337506270353481
0.504000000000000337,1.233714314015388336
0.505000000000000338,1.181291574079579965
0.506000000000000338,1.129086262051274492
0.507000000000000339,1.077114903809051949
0.508000000000000340,1.025393578024501151
0.509000000000000341,0.973937918876310205
0.510000000000000342,0.922763118966126172
0.511000000000000343,0.871883932426871455
0.512000000000000344,0.821314678214394411
0.513000000000000345,0.771069243573587970
0.514000000000000346,0.721161087670155743
0.515000000000000346,0.671603245379673530
0.516000000000000347,0.622408331225535738
0.517000000000000348,0.573588543457750344
0.518000000000000349,0.525155668264646547
0.519000000000000350,0.477121084109898952
0.520000000000000351,0.429495766187238170
0.521000000000000352,0.382290290985692338
0.522000000000000353,0.335514840958207272
0.523000000000000353,0.289179209286697769
0.524000000000000354,0.243292804736956830
0.525000000000000355,0.197864656596732857
0.526000000000000356,0.152903419690825437
0.527000000000000357,0.108417379466941674
0.528000000000000358,0.064414457146335868
0.529000000000000359,0.020902214933620877
0.530000000000000360,-0.022112138720053520
0.531000000000000361,-0.064621743805717460
0.532000000000000361,-0.106620083402547430
0.533000000000000362,-0.148100978286066554
0.534000000000000363,-0.189058581503560225
0.535000000000000364,-0.229487372921424460
0.536000000000000365,-0.269382153749009867
0.537000000000000366,-0.308738041043409628
0.538000000000000367,-0.347550462199444743
0.539000000000000368,-0.385815149428961557
0.540000000000000369,-0.423528134233410458
0.541000000000000369,-0.460685741873498533
0.542000000000000370,-0.497284585839605775
0.543000000000000371,-0.533321562326491416
0.544000000000000372,-0.568793844715678620
0.545000000000000373,-0.603698878068745004
0.546000000000000374,-0.638034373634708718
0.547000000000000375,-0.671798303374414707
0.548000000000000376,-0.704988894504869457
0.549000000000000377,-0.737604624066188430
0.550000000000000377,-0.769644213513865250
0.551000000000000378,-0.801106623338777246
0.552000000000000379,-0.831991047717379528
0.553000000000000380,-0.862296909194344097
0.554000000000000381,-0.892023853399794620
0.555000000000000382,-0.921171743803240184
0.556000000000000383,-0.949740656506114944
0.557000000000000384,-0.977730875074826367
0.558000000000000385,-1.005142885416030696
0.559000000000000385,-1.031977370695849494
0.560000000000000386,-1.058235206304530829
0.561000000000000387,-1.083917454868104091
0.562000000000000388,-1.109025361308364488
0.563000000000000389,-1.133560347952556002
0.564000000000000390,-1.157524009693897016
0.565000000000000391,-1.180918109204178945
0.566000000000000392,-1.203744572199449969
0.567000000000000393,-1.226005482759795928
0.568000000000000393,-1.247703078704123447
0.569000000000000394,-1.268839747020831243
0.570000000000000395,-1.289418019355101253
0.571000000000000396,-1.309440567553546542
0.572000000000000397,-1.328910199266884806
0.573000000000000398,-1.347829853611196560
0.574000000000000399,-1.366202596888289378
0.575000000000000400,-1.384031618365696215
0.576000000000000401,-1.401320226116635093
0.577000000000000401,-1.418071842920378689
0.578000000000000402,-1.434290002223284954
0.579000000000000403,-1.449978344160761878
0.580000000000000404,-1.465140611640398216
0.581000000000000405,-1.479780646486388740
0.582000000000000406,-1.493902385645415665
0.583000000000000407,-1.507509857454013780
0.584000000000000408,-1.520607177967520984
0.585000000000000409,-1.533198547350524077
0.586000000000000409,-1.545288246328848425
0.587000000000000410,-1.556880632702959399
0.588000000000000411,-1.567980137922649897
0.589000000000000412,-1.578591263722938010
0.590000000000000413,-1.588718578820905503
0.591000000000000414,-1.598366715673337435
0.592000000000000415,-1.607540367294898687
0.593000000000000416,-1.616244284136565623
0.594000000000000417,-1.624483271024060871
0.595000000000000417,-1.632262184155922835
0.596000000000000418,-1.639585928160908868
0.597000000000000419,-1.646459453214347946
0.598000000000000420,-1.652887752213052952
0.599000000000000421,-1.658875858008390436
0.600000000000000422,-1.664428840697093293
0.601000000000000423,-1.669551804969322761
0.602000000000000424,-1.674249887513580060
0.603000000000000425,-1.678528254477964721
0.604000000000000425,-1.682392098987232298
0.605000000000000426,-1.685846638715222667
0.606000000000000427,-1.688897113512097592
0.607000000000000428,-1.691548783085810470
0.608000000000000429,-1.693806924737361941
0.609000000000000430,-1.695676831149147912
0.610000000000000431,-1.697163808225967019
0.611000000000000432,-1.698273172987989188
0.612000000000000433,-1.699010251515165937
0.613000000000000433,-1.699380376942485782
0.614000000000000434,-1.699388887505426826
0.615000000000000435,-1.699041124635017663
0.616000000000000436,-1.698342431101913075
0.617000000000000437,-1.697298149208836815
