# Ce-001_GLY-AC
# h[nm],U(h)[kJ/mol]
0.149999999999999994,128.754191402255941057
0.150999999999999995,126.752040370662896862
0.151999999999999996,123.670913135785937698
0.152999999999999997,120.381516828985738243
0.153999999999999998,117.231744441142609503
0.154999999999999999,114.306863246504349263
0.156000000000000000,111.577790508906019795
0.157000000000000001,108.980376940123136364
0.158000000000000002,106.453579151384474244
0.159000000000000002,103.954271047539535289
0.160000000000000003,101.459706198541283584
0.161000000000000004,98.964231468935977887
0.162000000000000005,96.474019029221395272
0.163000000000000006,94.001809208966164988
0.164000000000000007,91.562581470364960978
0.165000000000000008,89.170449551890385465
0.166000000000000009,86.836743470425233227
0.167000000000000010,84.569084715445271172
0.168000000000000010,82.371208825471214254
0.169000000000000011,80.243294791458197324
0.170000000000000012,78.182594093766311971
0.171000000000000013,76.184196006355918485
0.172000000000000014,74.241810053249878365
0.173000000000000015,72.348485982286845797
0.174000000000000016,70.497224123858700295
0.175000000000000017,68.681454083240808473
0.176000000000000018,66.895377893960144888
0.177000000000000018,65.134186016329707059
0.178000000000000019,63.394162033158316660
0.179000000000000020,61.672695683779672038
0.180000000000000021,59.968224982101546061
0.181000000000000022,58.280127422679967708
0.182000000000000023,56.608578365219408113
0.183000000000000024,54.954392122408947330
0.184000000000000025,53.318858442974580214
0.185000000000000026,51.703584251981645536
0.186000000000000026,50.110347862970158417
0.187000000000000027,48.540970519551386531
0.188000000000000028,46.997208112383269452
0.189000000000000029,45.480664267245352050
0.190000000000000030,43.992724701055621495
0.191000000000000031,42.534511767889398470
0.192000000000000032,41.106857429303694573
0.193000000000000033,39.710292440911111100
0.194000000000000034,38.345049307774552005
0.195000000000000034,37.011076484135244868
0.196000000000000035,35.708061340943849871
0.197000000000000036,34.435459564586672343
0.198000000000000037,33.192528853688131107
0.199000000000000038,31.978365024196676814
0.200000000000000039,30.791938896842736995
0.201000000000000040,29.632132610293915320
0.202000000000000041,28.497774266348205430
0.203000000000000042,27.387670061862603887
0.204000000000000042,26.300633290018186727
0.205000000000000043,25.235509797369722662
0.206000000000000044,24.191199661062551485
0.207000000000000045,23.166675002149400342
0.208000000000000046,22.160993976670262384
0.209000000000000047,21.173311087396381680
0.210000000000000048,20.202884037734555989
0.211000000000000049,19.249077407420799091
0.212000000000000050,18.311363469653020530
0.213000000000000050,17.389320493632375531
0.214000000000000051,16.482628887464265688
0.215000000000000052,15.591065536278790660
0.216000000000000053,14.714496681372807529
0.217000000000000054,13.852869670077671671
0.218000000000000055,13.006203884643658952
0.219000000000000056,12.174581133225304441
0.220000000000000057,11.358135758360639045
0.221000000000000058,10.557044689289181605
0.222000000000000058,9.771517634968008181
0.223000000000000059,9.001787585496350275
0.224000000000000060,8.248101761443470181
0.225000000000000061,7.510713123764555021
0.226000000000000062,6.789872531930285504
0.227000000000000063,6.085821614827461978
0.228000000000000064,5.398786398063760927
0.229000000000000065,4.728971712601511612
0.230000000000000066,4.076556393172247716
0.231000000000000066,3.441689260643260972
0.232000000000000067,2.824485870349130234
0.233000000000000068,2.225025998254594128
0.234000000000000069,1.643351828555344785
0.235000000000000070,1.079466799805105071
0.236000000000000071,0.533335061730212834
0.237000000000000072,0.004881491397477333
0.238000000000000073,-0.506007784816798312
0.239000000000000073,-0.999484418104094274
0.240000000000000074,-1.475736467719344081
0.241000000000000075,-1.934986689156955819
0.242000000000000076,-2.377490532662322575
0.243000000000000077,-2.803533902751350393
0.244000000000000078,-3.213430726965700757
0.245000000000000079,-3.607520379287596946
0.246000000000000080,-3.986165000566998629
0.247000000000000081,-4.349746755059367587
0.248000000000000081,-4.698665058804359695
0.249000000000000082,-5.033333812159015430
0.250000000000000111,-5.354178665387378189
0.251000000000000112,-5.661634342846455503
0.252000000000000113,-5.956142048036666026
0.253000000000000114,-6.238146968630335465
0.254000000000000115,-6.508095897585081779
0.255000000000000115,-6.766434983603014430
0.256000000000000116,-7.013607621530868030
0.257000000000000117,-7.250052490816867312
0.258000000000000118,-7.476201747854133828
0.259000000000000119,-7.692479375950571630
0.260000000000000120,-7.899299694770907543
0.261000000000000121,-8.097066029393559461
0.262000000000000122,-8.286169537611209890
0.263000000000000123,-8.466988192769667521
0.264000000000000123,-8.639885918280079125
0.265000000000000124,-8.805211868943207065
0.266000000000000125,-8.963299853384434357
0.267000000000000126,-9.114467891201790906
0.268000000000000127,-9.259017897868950797
0.269000000000000128,-9.397235489997685320
0.270000000000000129,-9.529389903241437310
0.271000000000000130,-9.655734014902130014
0.272000000000000131,-9.776504463175859527
0.273000000000000131,-9.891921854930604496
0.274000000000000132,-10.002191053940723720
0.275000000000000133,-10.107501541600209194
0.276000000000000134,-10.208027842290523068
0.277000000000000135,-10.303930005781875678
0.278000000000000136,-10.395354139291628215
0.279000000000000137,-10.482432982102753982
0.280000000000000138,-10.565286515952950097
0.281000000000000139,-10.644022604735486226
0.282000000000000139,-10.718737657400243535
0.283000000000000140,-10.789517308303370413
0.284000000000000141,-10.856437109621854376
0.285000000000000142,-10.919563230821577093
0.286000000000000143,-10.978953160540086742
0.287000000000000144,-11.034656406615788171
0.288000000000000145,-11.086715190361024597
0.289000000000000146,-11.135165131534197513
0.290000000000000147,-11.180035920815480921
0.291000000000000147,-11.221351976928257699
0.292000000000000148,-11.259133085874527325
0.293000000000000149,-11.293395020064400214
0.294000000000000150,-11.324150135418028285
0.295000000000000151,-11.351407944801488625
0.296000000000000152,-11.375175666425482390
0.297000000000000153,-11.395458746088070967
0.298000000000000154,-11.412261352378434864
0.299000000000000155,-11.425586844179198565
0.300000000000000155,-11.435438210009284177
0.301000000000000156,-11.441818478938277082
0.302000000000000157,-11.444731102977300452
0.303000000000000158,-11.444180311010141438
0.304000000000000159,-11.440171434473397127
0.305000000000000160,-11.432711205124704179
0.306000000000000161,-11.421808025356051886
0.307000000000000162,-11.407472211613558954
0.308000000000000163,-11.389716211577590954
0.309000000000000163,-11.368554795838349492
0.310000000000000164,-11.344005224871860804
0.311000000000000165,-11.316087392181119142
0.312000000000000166,-11.284823944517478722
0.313000000000000167,-11.250240380138183838
0.314000000000000168,-11.212365126088869260
0.315000000000000169,-11.171229595524579281
0.316000000000000170,-11.126868226100759429
0.317000000000000171,-11.079318500476576403
0.318000000000000171,-11.028620949977849364
0.319000000000000172,-10.974819142466612831
0.320000000000000173,-10.917959655458471246
0.321000000000000174,-10.858092035518861707
0.322000000000000175,-10.795268744955293982
0.323000000000000176,-10.729545096804713467
0.324000000000000177,-10.660979179094153935
0.325000000000000178,-10.589631769328974542
0.326000000000000179,-10.515566240137005138
0.327000000000000179,-10.438848456968200296
0.328000000000000180,-10.359546668719511686
0.329000000000000181,-10.277731392123399701
0.330000000000000182,-10.193475290704990144
0.331000000000000183,-10.106853049080132934
0.332000000000000184,-10.017941243331492274
0.333000000000000185,-9.926818208165601121
0.334000000000000186,-9.833563901518507677
0.335000000000000187,-9.738259767242571030
0.336000000000000187,-9.640988596472126915
0.337000000000000188,-9.541834388230650887
0.338000000000000189,-9.440882209808112435
0.339000000000000190,-9.338218057402965400
0.340000000000000191,-9.233928717489948923
0.341000000000000192,-9.128101629342733503
0.342000000000000193,-9.020824749107864804
0.343000000000000194,-8.912186415796414352
0.344000000000000195,-8.802275219528731043
0.345000000000000195,-8.691179872339546364
0.346000000000000196,-8.578989081821756457
0.347000000000000197,-8.465791427860661855
0.348000000000000198,-8.351675242684283518
0.349000000000000199,-8.236728494430273884
0.350000000000000200,-8.121038674406442226
0.351000000000000201,-8.004692688198689510
0.352000000000000202,-7.887776750758854760
0.353000000000000203,-7.770376285584252862
0.354000000000000203,-7.652575828081060294
0.355000000000000204,-7.534458933185410601
0.356000000000000205,-7.416108087298629137
0.357000000000000206,-7.297604624576673693
0.358000000000000207,-7.179028647598357793
0.359000000000000208,-7.060458952422834500
0.360000000000000209,-6.941972958033177932
0.361000000000000210,-6.823646640150546894
0.362000000000000210,-6.705554469391785233
0.363000000000000211,-6.587769353732674915
0.364000000000000212,-6.470362585229240793
0.365000000000000213,-6.353403790940348017
0.366000000000000214,-6.236960887986768398
0.367000000000000215,-6.121100042674222586
0.368000000000000216,-6.005885633601307561
0.369000000000000217,-5.891380218666968815
0.370000000000000218,-5.777644505886891935
0.371000000000000218,-5.664737327923241139
0.372000000000000219,-5.552715620228100057
0.373000000000000220,-5.441634402697220985
0.374000000000000221,-5.331546764727661092
0.375000000000000222,-5.222503853570120924
0.376000000000000223,-5.114554865864843869
0.377000000000000224,-5.007747042248136715
0.378000000000000225,-4.902125664915274683
0.379000000000000226,-4.797734058024720305
0.380000000000000226,-4.694613590828111249
0.381000000000000227,-4.592803683410108029
0.382000000000000228,-4.492341814922578003
0.383000000000000229,-4.393263534197858533
0.384000000000000230,-4.295602472626494084
0.385000000000000231,-4.199390359186068622
0.386000000000000232,-4.104657037508589568
0.387000000000000233,-4.011430484875502245
0.388000000000000234,-3.919736833030884604
0.389000000000000234,-3.829600390705263813
0.390000000000000235,-3.741043667744122558
0.391000000000000236,-3.654087400737642266
0.392000000000000237,-3.568750580049887766
0.393000000000000238,-3.485050478148453923
0.394000000000000239,-3.403002679137494546
0.395000000000000240,-3.322621109399878314
0.396000000000000241,-3.243918069256550130
0.397000000000000242,-3.166904265553802666
0.398000000000000242,-3.091588845091911786
0.399000000000000243,-3.017979428811103482
0.400000000000000244,-2.946082146653582701
0.401000000000000245,-2.875901673023284921
0.402000000000000246,-2.807441262767375711
0.403000000000000247,-2.740702787606577040
0.404000000000000248,-2.675686772944021019
0.405000000000000249,-2.612392434985105982
0.406000000000000250,-2.550817718103460585
0.407000000000000250,-2.490959332390966896
0.408000000000000251,-2.432812791332267466
0.409000000000000252,-2.376372449547084820
0.410000000000000253,-2.321631540545980421
0.411000000000000254,-2.268582214448030321
0.412000000000000255,-2.217215575611198641
0.413000000000000256,-2.167521720128864349
0.414000000000000257,-2.119489773148170997
0.415000000000000258,-2.073107925968502130
0.416000000000000258,-2.028363472880454932
0.417000000000000259,-1.985242847708200475
0.418000000000000260,-1.943731660020147078
0.419000000000000261,-1.903814730975093683
0.420000000000000262,-1.865476128773138953
0.421000000000000263,-1.828699203682683461
0.422000000000000264,-1.793466622616732398
0.423000000000000265,-1.759760403233773474
0.424000000000000266,-1.727561947540384280
0.425000000000000266,-1.696852074974293245
0.426000000000000267,-1.667611054948670457
0.427000000000000268,-1.639818638839901865
0.428000000000000269,-1.613454091402788837
0.429000000000000270,-1.588496221598691971
0.430000000000000271,-1.564923412823624904
0.431000000000000272,-1.542713652524738022
0.432000000000000273,-1.521844561195049739
0.433000000000000274,-1.502293420737598417
0.434000000000000274,-1.484037202191477389
0.435000000000000275,-1.467052592813384404
0.436000000000000276,-1.451316022509577808
0.437000000000000277,-1.436803689614145618
0.438000000000000278,-1.423491586010620313
0.439000000000000279,-1.411355521594960249
0.440000000000000280,-1.400371148078889849
0.441000000000000281,-1.390513982133426252
0.442000000000000282,-1.381759427873499257
0.443000000000000282,-1.374082798685031914
0.444000000000000283,-1.367459338397053914
0.445000000000000284,-1.361864241801767905
0.446000000000000285,-1.357272674526364353
0.447000000000000286,-1.353659792261107109
0.448000000000000287,-1.351000759348543578
0.449000000000000288,-1.349270766739578686
0.450000000000000289,-1.348445049322436473
0.451000000000000290,-1.348498902631157348
0.452000000000000290,-1.349407698940730871
0.453000000000000291,-1.351146902756301227
0.454000000000000292,-1.353692085704417680
0.455000000000000293,-1.357018940834521681
0.456000000000000294,-1.361103296339310376
0.457000000000000295,-1.365921128702832998
0.458000000000000296,-1.371448575285533211
0.459000000000000297,-1.377661946355602796
0.460000000000000298,-1.384537736576374911
0.461000000000000298,-1.392052635959492246
0.462000000000000299,-1.400183540293997719
0.463000000000000300,-1.408907561061410352
0.464000000000000301,-1.418202034847184878
0.465000000000000302,-1.428044532258912369
0.466000000000000303,-1.438412866361847620
0.467000000000000304,-1.449285100642264457
0.468000000000000305,-1.460639556509389703
0.469000000000000306,-1.472454820346527971
0.470000000000000306,-1.484709750122143568
0.471000000000000307,-1.497383481571581632
0.472000000000000308,-1.510455433960208760
0.473000000000000309,-1.523905315438632835
0.474000000000000310,-1.537713128000664398
0.475000000000000311,-1.551859172054756542
0.476000000000000312,-1.566324050619350983
0.477000000000000313,-1.581088673152794666
0.478000000000000314,-1.596134259028174851
0.479000000000000314,-1.611442340663499895
0.480000000000000315,-1.626994766317451324
0.481000000000000316,-1.642773702560933913
0.482000000000000317,-1.658761636434447073
0.483000000000000318,-1.674941377301262024
0.484000000000000319,-1.691296058406233982
0.485000000000000320,-1.707809138149974704
0.486000000000000321,-1.724464401087950849
0.487000000000000322,-1.741245958663972804
0.488000000000000322,-1.758138249687366539
0.489000000000000323,-1.775126040563006269
0.490000000000000324,-1.792194425283232917
0.491000000000000325,-1.809328825190505530
0.492000000000000326,-1.826514988519508664
0.493000000000000327,-1.843738989727283784
0.494000000000000328,-1.860987228619775946
0.495000000000000329,-1.878246429283043195
0.496000000000000330,-1.895503638827181536
0.497000000000000330,-1.912746225950949341
0.498000000000000331,-1.929961879334763708
0.499000000000000332,-1.947138605869689343
0.500000000000000333,-1.964264728729886667
0.501000000000000334,-1.981328885295711162
0.502000000000000335,-1.998320024934594930
0.503000000000000336,-2.015227406646624697
0.504000000000000337,-2.032040596581611069
0.505000000000000338,-2.048749465434192452
0.506000000000000338,-2.065344185723463788
0.507000000000000339,-2.081815228963382669
0.508000000000000340,-2.098153362730054372
0.509000000000000341,-2.114349647631878604
0.510000000000000342,-2.130395434188305348
0.511000000000000343,-2.146282359622888158
0.512000000000000344,-2.162002344576073654
0.513000000000000345,-2.177547589743049183
0.514000000000000346,-2.192910572441886696
0.515000000000000346,-2.208084043116897988
0.516000000000000347,-2.223061021782152924
0.517000000000000348,-2.237834794409872874
0.518000000000000349,-2.252398909268248595
0.519000000000000350,-2.266747173213131905
0.520000000000000351,-2.280873647937929238
0.521000000000000352,-2.294772646185805787
0.522000000000000353,-2.308438727928242340
0.523000000000000353,-2.321866696513837702
0.524000000000000354,-2.335051594791105245
0.525000000000000355,-2.347988701208891804
0.526000000000000356,-2.360673525897895253
0.527000000000000357,-2.373101806736688246
0.528000000000000358,-2.385269505405502422
0.529000000000000359,-2.397172803430840826
0.530000000000000360,-2.408808098224023642
0.531000000000000361,-2.420171999116486283
0.532000000000000361,-2.431261323394690699
0.533000000000000362,-2.442073092337242457
0.534000000000000363,-2.452604527256865286
0.535000000000000364,-2.462853045549646680
0.536000000000000365,-2.472816256753923803
0.537000000000000366,-2.482491958621086514
0.538000000000000367,-2.491878133200429613
0.539000000000000368,-2.500972942940175692
0.540000000000000369,-2.509774726806570655
0.541000000000000369,-2.518281996423005875
0.542000000000000370,-2.526493432230899394
0.543000000000000371,-2.534407879674091646
0.544000000000000372,-2.542024345408362418
0.545000000000000373,-2.549341993537597162
0.546000000000000374,-2.556360141878093462
0.547000000000000375,-2.563078258252362129
0.548000000000000376,-2.569495956813776516
0.549000000000000377,-2.575612994403253531
0.550000000000000377,-2.581429266939181399
0.551000000000000378,-2.586944805841649320
0.552000000000000379,-2.592159774492055924
0.553000000000000380,-2.597074464729021592
0.554000000000000381,-2.601689293381512780
0.555000000000000382,-2.606004798840074521
0.556000000000000383,-2.610021637666849692
0.557000000000000384,-2.613740581245228345
0.558000000000000385,-2.617162512469701330
0.559000000000000385,-2.620288422476608314
0.560000000000000386,-2.623119407416274917
0.561000000000000387,-2.625656665267137146
0.562000000000000388,-2.627901492692230168
0.563000000000000389,-2.629855281938554779
0.564000000000000390,-2.631519517779599582
0.565000000000000391,-2.632895774501441188
0.566000000000000392,-2.633985712932654266
0.567000000000000393,-2.634791077518306324
0.568000000000000393,-2.635313693438230409
0.569000000000000394,-2.635555463769770235
0.570000000000000395,-2.635518366695142944
0.571000000000000396,-2.635204452753455051
0.572000000000000397,-2.634615842137552288
0.573000000000000398,-2.633754722035646534
0.574000000000000399,-2.632623344017768652
0.575000000000000400,-2.631224021467028162
0.576000000000000401,-2.629559127055595358
0.577000000000000401,-2.627631090265402314
0.578000000000000402,-2.625442394953366065
0.579000000000000403,-2.622995576961066000
0.580000000000000404,-2.620293221768738245
0.581000000000000405,-2.617337962193349910
0.582000000000000406,-2.614132476130628824
0.583000000000000407,-2.610679484340768575
0.584000000000000408,-2.606981748277649391
0.585000000000000409,-2.603042067961241823
0.586000000000000409,-2.598863279892977829
0.587000000000000410,-2.594448255013798832
0.588000000000000411,-2.589799896704534365
0.589000000000000412,-2.584921138828364828
0.590000000000000413,-2.579814943814957573
0.591000000000000414,-2.574484300785993884
0.592000000000000415,-2.568932223721712482
0.593000000000000416,-2.563161749668070755
0.594000000000000417,-2.557175936984178222
0.595000000000000417,-2.550977863629628750
0.596000000000000418,-2.544570625491241245
0.597000000000000419,-2.537957334748939697
0.598000000000000420,-2.531141118280209934
0.599000000000000421,-2.524125116102821753
0.600000000000000422,-2.516912479855321294
0.601000000000000423,-2.509506371314867756
0.602000000000000424,-2.501909960951981926
0.603000000000000425,-2.494126426521763307
0.604000000000000425,-2.486158951691073149
0.605000000000000426,-2.478010724701280587
0.606000000000000427,-2.469684937066102037
0.607000000000000428,-2.461184782303981855
0.608000000000000429,-2.452513454704715379
0.609000000000000430,-2.443674148129624690
0.610000000000000431,-2.434670054845030851
0.611000000000000432,-2.425504364388364031
0.612000000000000433,-2.416180262466531836
