# Ce-001_HIDSCA-JS
# h[nm],U(h)[kJ/mol]
0.149999999999999994,126.804454708924737361
0.150999999999999995,124.282711908952663293
0.151999999999999996,120.758736347612583018
0.152999999999999997,117.074457517969406695
0.153999999999999998,113.563747705413931044
0.154999999999999999,110.304062281224787512
0.156000000000000000,107.260985080950916881
0.157000000000000001,104.366137592755279684
0.158000000000000002,101.554999618177816956
0.159000000000000002,98.781716860016643977
0.160000000000000003,96.021602861789077110
0.161000000000000004,93.267826921617498215
0.162000000000000005,90.526041149459004487
0.163000000000000006,87.808963547933117866
0.164000000000000007,85.131867922336255106
0.165000000000000008,82.509305781029794957
0.166000000000000009,79.953042813968451696
0.167000000000000010,77.471026651666051066
0.168000000000000010,75.067142612408432001
0.169000000000000011,72.741513849483069976
0.170000000000000012,70.491132338218676523
0.171000000000000013,68.310649458048061433
0.172000000000000014,66.193199003858381957
0.173000000000000015,64.131165649972672327
0.174000000000000016,62.116845601617249883
0.175000000000000017,60.142972667389230423
0.176000000000000018,58.203102587498939613
0.177000000000000018,56.291862005866370566
0.178000000000000019,54.405077040397692656
0.179000000000000020,52.539801065359050369
0.180000000000000021,50.694263066693089570
0.181000000000000022,48.867757622240439730
0.182000000000000023,47.060495897430698164
0.183000000000000024,45.273434586486146713
0.184000000000000025,43.508096887560384403
0.185000000000000026,41.766396679572906692
0.186000000000000026,40.050474275531215085
0.187000000000000027,38.362549592962878364
0.188000000000000028,36.704796379847550725
0.189000000000000029,35.079239294422706053
0.190000000000000030,33.487674159335483637
0.191000000000000031,31.931610574345892672
0.192000000000000032,30.412235244067140627
0.193000000000000033,28.930393818230214720
0.194000000000000034,27.486588709414490950
0.195000000000000034,26.080990205364049217
0.196000000000000035,24.713458190744695742
0.197000000000000036,23.383571901071370291
0.198000000000000037,22.090665318538043493
0.199000000000000038,20.833866059210045307
0.200000000000000039,19.612135871619983618
0.201000000000000040,18.424311150625435118
0.202000000000000041,17.269142153686885877
0.203000000000000042,16.145329879159305619
0.204000000000000042,15.051559820341799067
0.205000000000000043,13.986532039945847927
0.206000000000000044,12.948987214385018873
0.207000000000000045,11.937728474548459090
0.208000000000000046,10.951639019438275113
0.209000000000000047,9.989695602124143647
0.210000000000000048,9.050978085475827939
0.211000000000000049,8.134675340119688514
0.212000000000000050,7.240087811351685332
0.213000000000000050,6.366627117796689994
0.214000000000000051,5.513813064916426754
0.215000000000000052,4.681268463471890406
0.216000000000000053,3.868712139048768428
0.217000000000000054,3.075950505900777898
0.218000000000000055,2.302868058611069468
0.219000000000000056,1.549417110163707534
0.220000000000000057,0.815607076487735005
0.221000000000000058,0.101493576722115370
0.222000000000000058,-0.592832413534151170
0.223000000000000059,-1.267255150924097906
0.224000000000000060,-1.921644281587890690
0.225000000000000061,-2.555864424083536868
0.226000000000000062,-3.169784063979074862
0.227000000000000063,-3.763283673052962630
0.228000000000000064,-4.336262990768561032
0.229000000000000065,-4.888647428073022994
0.230000000000000066,-5.420393573536534504
0.231000000000000066,-5.931493799393853905
0.232000000000000067,-6.421979980216998563
0.233000000000000068,-6.891926349824989195
0.234000000000000069,-7.341451532737851338
0.235000000000000070,-7.770719795148323783
0.236000000000000071,-8.179941567169285221
0.237000000000000072,-8.569373293183929263
0.238000000000000073,-8.939316670645615304
0.239000000000000073,-9.290117339814646158
0.240000000000000074,-9.622163087848289109
0.241000000000000075,-9.935881630534154851
0.242000000000000076,-10.231738033931767617
0.243000000000000077,-10.510231836405338868
0.244000000000000078,-10.771893929125297973
0.245000000000000079,-11.017283250210098799
0.246000000000000080,-11.246983344385494519
0.247000000000000081,-11.461598836455911155
0.248000000000000081,-11.661751863101471827
0.249000000000000082,-11.848078503613775680
0.250000000000000111,-12.021225246233795403
0.251000000000000112,-12.181845522813407712
0.252000000000000113,-12.330596340642362208
0.253000000000000114,-12.468135036502138391
0.254000000000000115,-12.595116174367783302
0.255000000000000115,-12.712188604700855876
0.256000000000000116,-12.819992699986531903
0.257000000000000117,-12.919157778079926047
0.258000000000000118,-13.010299722051746230
0.259000000000000119,-13.094018802569840076
0.260000000000000120,-13.170897706422980633
0.261000000000000121,-13.241499772585660466
0.262000000000000122,-13.306367435237314467
0.263000000000000123,-13.366020871377770618
0.264000000000000123,-13.420956849119409782
0.265000000000000124,-13.471647771373776337
0.266000000000000125,-13.518540908479431906
0.267000000000000126,-13.562057812325676309
0.268000000000000127,-13.602593903704422118
0.269000000000000128,-13.640518223956618726
0.270000000000000129,-13.676173341459824329
0.271000000000000130,-13.709875403117237624
0.272000000000000131,-13.741914320744490041
0.273000000000000131,-13.772554082096934991
0.274000000000000132,-13.802033176226322198
0.275000000000000133,-13.830565122890959628
0.276000000000000134,-13.858339095856734957
0.277000000000000135,-13.885520630109061457
0.278000000000000136,-13.912252403237825860
0.279000000000000137,-13.938655081550678005
0.280000000000000138,-13.964828221806135033
0.281000000000000139,-13.990851219829526286
0.282000000000000139,-14.016784297675503268
0.283000000000000140,-14.042669521423132295
0.284000000000000141,-14.068531842129029741
0.285000000000000142,-14.094380152914638415
0.286000000000000143,-14.120208355621077345
0.287000000000000144,-14.145996430924412834
0.288000000000000145,-14.171711506263459768
0.289000000000000146,-14.197308916385344091
0.290000000000000147,-14.222733251761431106
0.291000000000000147,-14.247919390562350017
0.292000000000000148,-14.272793510306266640
0.293000000000000149,-14.297274075704967444
0.294000000000000150,-14.321272799628520289
0.295000000000000151,-14.344695574488696366
0.296000000000000152,-14.367443371703265242
0.297000000000000153,-14.389413107247596812
0.298000000000000154,-14.410498471625430739
0.299000000000000155,-14.430590722897715494
0.300000000000000155,-14.449579441696197790
0.301000000000000156,-14.467353247417509721
0.302000000000000157,-14.483800475043910438
0.303000000000000158,-14.498809812268603991
0.304000000000000159,-14.512270896817478061
0.305000000000000160,-14.524074874054880624
0.306000000000000161,-14.534114915140611046
0.307000000000000162,-14.542286696167218807
0.308000000000000163,-14.548488838853566918
0.309000000000000163,-14.552623313501815261
0.310000000000000164,-14.554595805041685708
0.311000000000000165,-14.554316043088718402
0.312000000000000166,-14.551698097033058943
0.313000000000000167,-14.546660637252561088
0.314000000000000168,-14.539127163609686377
0.315000000000000169,-14.529026202446360116
0.316000000000000170,-14.516291473335595441
0.317000000000000171,-14.500862026883487133
0.318000000000000171,-14.482682354901308841
0.319000000000000172,-14.461702474285687003
0.320000000000000173,-14.437877985954949978
0.321000000000000174,-14.411170110193486593
0.322000000000000175,-14.381545699753278456
0.323000000000000176,-14.348977232053220732
0.324000000000000177,-14.313442781803406234
0.325000000000000178,-14.274925975363123243
0.326000000000000179,-14.233415928119393712
0.327000000000000179,-14.188907166146270455
0.328000000000000180,-14.141399533376452169
0.329000000000000181,-14.090898085484559132
0.330000000000000182,-14.037412971646702431
0.331000000000000183,-13.980959305305185936
0.332000000000000184,-13.921557025028230115
0.333000000000000185,-13.859230746515748933
0.334000000000000186,-13.794009606761147069
0.335000000000000187,-13.725927101337850544
0.336000000000000187,-13.655020915737356546
0.337000000000000188,-13.581332751642941403
0.338000000000000189,-13.504908148981096261
0.339000000000000190,-13.425796304550143390
0.340000000000000191,-13.344049887983095104
0.341000000000000192,-13.259724855760723017
0.342000000000000193,-13.172880263948638202
0.343000000000000194,-13.083578080292465273
0.344000000000000195,-12.991882996264546790
0.345000000000000195,-12.897862239617420954
0.346000000000000196,-12.801585387960562556
0.347000000000000197,-12.703124183840250438
0.348000000000000198,-12.602552351766464156
0.349000000000000199,-12.499945417595531794
0.350000000000000200,-12.395380530644080963
0.351000000000000201,-12.288936288876810110
0.352000000000000202,-12.180692567479772137
0.353000000000000203,-12.070730351100610989
0.354000000000000203,-11.959131570008459278
0.355000000000000204,-11.845978940398603996
0.356000000000000205,-11.731355809040945104
0.357000000000000206,-11.615346002446074181
0.358000000000000207,-11.498033680698892312
0.359000000000000208,-11.379503196087506822
0.360000000000000209,-11.259838956633339890
0.361000000000000210,-11.139125294608451355
0.362000000000000210,-11.017446340106962666
0.363000000000000211,-10.894885899719554345
0.364000000000000212,-10.771527340343318713
0.365000000000000213,-10.647453478143347638
0.366000000000000214,-10.522746472667964923
0.367000000000000215,-10.397487726105685724
0.368000000000000216,-10.271757787659428374
0.369000000000000217,-10.145636263001621913
0.370000000000000218,-10.019201728763235337
0.371000000000000218,-9.892531651999501463
0.372000000000000219,-9.765702314566286901
0.373000000000000220,-9.638788742332529580
0.374000000000000221,-9.511864639146816458
0.375000000000000222,-9.385002325469088191
0.376000000000000223,-9.258272681572714546
0.377000000000000224,-9.131745095216352581
0.378000000000000225,-9.005487413680549835
0.379000000000000226,-8.879565900059521510
0.380000000000000226,-8.754045193695228377
0.381000000000000227,-8.628988274637370282
0.382000000000000228,-8.504456432010739420
0.383000000000000229,-8.380509236168981246
0.384000000000000230,-8.257204514512087812
0.385000000000000231,-8.134598330844053038
0.386000000000000232,-8.012744968145822710
0.387000000000000233,-7.891696914638468563
0.388000000000000234,-7.771504853011177438
0.389000000000000234,-7.652217652689088823
0.390000000000000235,-7.533882365016026483
0.391000000000000236,-7.416544221228423162
0.392000000000000237,-7.300246633097185800
0.393000000000000238,-7.185031196116018926
0.394000000000000239,-7.070937695115551591
0.395000000000000240,-6.958004112184747569
0.396000000000000241,-6.846266636782556425
0.397000000000000242,-6.735759677924738398
0.398000000000000242,-6.626515878333046672
0.399000000000000243,-6.518566130435989869
0.400000000000000244,-6.411939594112638474
0.401000000000000245,-6.306663716073814818
0.402000000000000246,-6.202764250776867883
0.403000000000000247,-6.100265282773256637
0.404000000000000248,-5.999189250390719153
0.405000000000000249,-5.899556970654402654
0.406000000000000250,-5.801387665354097223
0.407000000000000250,-5.704698988167534957
0.408000000000000251,-5.609507052752381817
0.409000000000000252,-5.515826461722542540
0.410000000000000253,-5.423670336426919647
0.411000000000000254,-5.333050347451889550
0.412000000000000255,-5.243976745771307790
0.413000000000000256,-5.156458394470800677
0.414000000000000257,-5.070502800975719815
0.415000000000000258,-4.986116149715089207
0.416000000000000258,-4.903303335156360632
0.417000000000000259,-4.822067995148657360
0.418000000000000260,-4.742412544514744255
0.419000000000000261,-4.664338208834567290
0.420000000000000262,-4.587845058365856765
0.421000000000000263,-4.512932042049724757
0.422000000000000264,-4.439597021551681344
0.423000000000000265,-4.367836805290885138
0.424000000000000266,-4.297647182413028233
0.425000000000000266,-4.229022956664169719
0.426000000000000267,-4.161957980125501777
0.427000000000000268,-4.096445186771008551
0.428000000000000269,-4.032476625812165594
0.429000000000000270,-3.970043494796007710
0.430000000000000271,-3.909136172424779510
0.431000000000000272,-3.849744251067523493
0.432000000000000273,-3.791856568935704441
0.433000000000000274,-3.735461241897007678
0.434000000000000274,-3.680545694903080367
0.435000000000000275,-3.627096693008815542
0.436000000000000276,-3.575100371962481205
0.437000000000000277,-3.524542268347494733
0.438000000000000278,-3.475407349258349932
0.439000000000000279,-3.427680041494663321
0.440000000000000280,-3.381344260258669632
0.441000000000000281,-3.336383437343002356
0.442000000000000282,-3.292780548796959472
0.443000000000000282,-3.250518142060529136
0.444000000000000283,-3.209578362556984477
0.445000000000000284,-3.169942979735807409
0.446000000000000285,-3.131593412558841383
0.447000000000000286,-3.094510754423901222
0.448000000000000287,-3.058675797520692186
0.449000000000000288,-3.024069056615280360
0.450000000000000289,-2.990670792259982225
0.451000000000000290,-2.958461033426616815
0.452000000000000290,-2.927419599561830399
0.453000000000000291,-2.897526122064026488
0.454000000000000292,-2.868760065182197394
0.455000000000000293,-2.841100746337645422
0.456000000000000294,-2.814527355870336756
0.457000000000000295,-2.789018976212142231
0.458000000000000296,-2.764554600490002123
0.459000000000000297,-2.741113150562422440
0.460000000000000298,-2.718673494493434095
0.461000000000000298,-2.697214463468466050
0.462000000000000299,-2.676714868157248350
0.463000000000000300,-2.657153514529063010
0.464000000000000301,-2.638509219126319749
0.465000000000000302,-2.620760823802586792
0.466000000000000303,-2.603887209931731839
0.467000000000000304,-2.587867312094970451
0.468000000000000305,-2.572680131253149760
0.469000000000000306,-2.558304747411604296
0.470000000000000306,-2.544720331785384815
0.471000000000000307,-2.531906158472722712
0.472000000000000308,-2.519841615644966559
0.473000000000000309,-2.508506216261181088
0.474000000000000310,-2.497879608315988431
0.475000000000000311,-2.487941584629230984
0.476000000000000312,-2.478672092186211984
0.477000000000000313,-2.470051241037340084
0.478000000000000314,-2.462059312766121888
0.479000000000000314,-2.454676768534566289
0.480000000000000315,-2.447884256714957019
0.481000000000000316,-2.441662620117242000
0.482000000000000317,-2.435992902821058959
0.483000000000000318,-2.430856356621646341
0.484000000000000319,-2.426234447098730485
0.485000000000000320,-2.422108859317636309
0.486000000000000321,-2.418461503171664084
0.487000000000000322,-2.415274518374925350
0.488000000000000322,-2.412530279114647236
0.489000000000000323,-2.410211398372039682
0.490000000000000324,-2.408300731920648197
0.491000000000000325,-2.406781382011142334
0.492000000000000326,-2.405636700751334622
0.493000000000000327,-2.404850293190246013
0.494000000000000328,-2.404406020114866038
0.495000000000000329,-2.404288000568209238
0.496000000000000330,-2.404480614097155300
0.497000000000000330,-2.404968502738485725
0.498000000000000331,-2.405736572751383306
0.499000000000000332,-2.406769996104588749
0.500000000000000333,-2.408054211726294636
0.501000000000000334,-2.409574926524688188
0.502000000000000335,-2.411318116187018745
0.503000000000000336,-2.413270025764867821
0.504000000000000337,-2.415417170053205886
0.505000000000000338,-2.417746333770697920
0.506000000000000338,-2.420244571548575863
0.507000000000000339,-2.422899207735269567
0.508000000000000340,-2.425697836023846587
0.509000000000000341,-2.428628318909201944
0.510000000000000342,-2.431678786981762208
0.511000000000000343,-2.434837638064376808
0.512000000000000344,-2.438093536198886024
0.513000000000000345,-2.441435410488753455
0.514000000000000346,-2.444852453804032599
0.515000000000000346,-2.448334121354693416
0.516000000000000347,-2.451870129138338239
0.517000000000000348,-2.455450452268127748
0.518000000000000349,-2.459065323186553798
0.519000000000000350,-2.462705229770658644
0.520000000000000351,-2.466360913334120220
0.521000000000000352,-2.470023366531454379
0.522000000000000353,-2.473683831169485536
0.523000000000000353,-2.477333795931138116
0.524000000000000354,-2.480964994016386704
0.525000000000000355,-2.484569400705148645
0.526000000000000356,-2.488139230846708294
0.527000000000000357,-2.491666936280225286
0.528000000000000358,-2.495145203190641592
0.529000000000000359,-2.498566949404247506
0.530000000000000360,-2.501925321628045928
0.531000000000000361,-2.505213692636901524
0.532000000000000361,-2.508425658412351655
0.533000000000000362,-2.511555035236844979
0.534000000000000363,-2.514595856747062541
0.535000000000000364,-2.517542370949835906
0.536000000000000365,-2.520389037204093352
0.537000000000000366,-2.523130523172148365
0.538000000000000367,-2.525761701743493681
0.539000000000000368,-2.528277647934261019
0.540000000000000369,-2.530673635765255280
0.541000000000000369,-2.532945135121512426
0.542000000000000370,-2.535087808596128145
0.543000000000000371,-2.537097508321042305
0.544000000000000372,-2.538970272787405946
0.545000000000000373,-2.540702323657966222
0.546000000000000374,-2.542290062573910436
0.547000000000000375,-2.543730067958454022
0.548000000000000376,-2.545019091819431090
0.549000000000000377,-2.546154056552960121
0.550000000000000377,-2.547132051750269799
0.551000000000000378,-2.547950331009662506
0.552000000000000379,-2.548606308755460681
0.553000000000000380,-2.549097557065758135
0.554000000000000381,-2.549421802510713153
0.555000000000000382,-2.549576923003026518
0.556000000000000383,-2.549560944662149886
0.557000000000000384,-2.549372038693805909
0.558000000000000385,-2.549008518286159486
0.559000000000000385,-2.548468835524106080
0.560000000000000386,-2.547751578322881905
0.561000000000000387,-2.546855467382318938
0.562000000000000388,-2.545779353162858083
0.563000000000000389,-2.544522212884472001
0.564000000000000390,-2.543083147549516365
0.565000000000000391,-2.541461378990544251
0.566000000000000392,-2.539656246943995388
0.567000000000000393,-2.537667206150662658
0.568000000000000393,-2.535493823483748521
0.569000000000000394,-2.533135775105319620
0.570000000000000395,-2.530592843651894519
0.571000000000000396,-2.527864915449787198
0.572000000000000397,-2.524951977760951927
0.573000000000000398,-2.521854116059820683
0.574000000000000399,-2.518571511341743729
0.575000000000000400,-2.515104437463514309
0.576000000000000401,-2.511453258516441966
0.577000000000000401,-2.507618426232438580
0.578000000000000402,-2.503600477423448822
0.579000000000000403,-2.499400031454609206
0.580000000000000404,-2.495017787751461213
0.581000000000000405,-2.490454523341477433
0.582000000000000406,-2.485711090430156922
0.583000000000000407,-2.480788414011907861
0.584000000000000408,-2.475687489515920436
0.585000000000000409,-2.470409380487136541
0.586000000000000409,-2.464955216302504137
0.587000000000000410,-2.459326189922592665
0.588000000000000411,-2.453523555678605028
0.589000000000000412,-2.447548627094922047
0.590000000000000413,-2.441402774747101212
0.591000000000000414,-2.435087424155413238
0.592000000000000415,-2.428604053713857347
0.593000000000000416,-2.421954192654603766
0.594000000000000417,-2.415139419047825253
0.595000000000000417,-2.408161357836837713
0.596000000000000418,-2.401021678908383805
0.597000000000000419,-2.393722095198064004
0.598000000000000420,-2.386264360830625098
0.599000000000000421,-2.378650269295088826
0.600000000000000422,-2.370881651654465738
0.601000000000000423,-2.362960374789897067
0.602000000000000424,-2.354888339679040321
0.603000000000000425,-2.346667479708471671
0.604000000000000425,-2.338299759019867086
0.605000000000000426,-2.329787170889757064
0.606000000000000427,-2.321131736142612922
0.607000000000000428,-2.312335501596915144
0.608000000000000429,-2.303400538544109644
0.609000000000000430,-2.294328941259957233
0.610000000000000431,-2.285122825548202563
