# Ce-001_ASNSCA-AC
# h[nm],U(h)[kJ/mol]
0.149999999999999994,130.948027711844474652
0.150999999999999995,129.366691767586019068
0.151999999999999996,126.301434303822617267
0.152999999999999997,122.928162080451812699
0.153999999999999998,119.718919691443801412
0.154999999999999999,116.791684863975063990
0.156000000000000000,114.109710983304964316
0.157000000000000001,111.588189727279470276
0.158000000000000002,109.145715862330050072
0.159000000000000002,106.724389055198571441
0.160000000000000003,104.293325265902993237
0.161000000000000004,101.844425263113095070
0.162000000000000005,99.385448057760839902
0.163000000000000006,96.933059916957034829
0.164000000000000007,94.507091020536734050
0.165000000000000008,92.126401329092431070
0.166000000000000009,89.806311758156624592
0.167000000000000010,87.557347667621456822
0.168000000000000010,85.384971565164875074
0.169000000000000011,83.289988258941164645
0.170000000000000012,81.269349429322701894
0.171000000000000013,79.317142247546058798
0.172000000000000014,77.425604918924832987
0.173000000000000015,75.586063987801452413
0.174000000000000016,73.789730999444330450
0.175000000000000017,72.028329092512819898
0.176000000000000018,70.294543989024020902
0.177000000000000018,68.582309955845204286
0.178000000000000019,66.886951130182524139
0.179000000000000020,65.205203594870681627
0.180000000000000021,63.535145065694067057
0.181000000000000022,61.876058113641292380
0.182000000000000023,60.228250374121827804
0.183000000000000024,58.592851873410175756
0.184000000000000025,56.971605932098917435
0.185000000000000026,55.366666439139237355
0.186000000000000026,53.780410861280685708
0.187000000000000027,52.215275301609253233
0.188000000000000028,50.673615318065749591
0.189000000000000029,49.157594078909049529
0.190000000000000030,47.669097753341475254
0.191000000000000031,46.209676776210990568
0.192000000000000032,44.780510737467842830
0.193000000000000033,43.382394075720398519
0.194000000000000034,42.015739445750028835
0.195000000000000034,40.680595529506838659
0.196000000000000035,39.376676120667696068
0.197000000000000036,38.103397491611389114
0.198000000000000037,36.859921312028433249
0.199000000000000038,35.645200699782783715
0.200000000000000039,34.458027322291108874
0.201000000000000040,33.297077811073378939
0.202000000000000041,32.160958088425999790
0.203000000000000042,31.048244522589129701
0.204000000000000042,29.957521118935609650
0.205000000000000043,28.887412215026806450
0.206000000000000044,27.836610374521590927
0.207000000000000045,26.803899368325442509
0.208000000000000046,25.788172291778504785
0.209000000000000047,24.788444995831731887
0.210000000000000048,23.803865110433246599
0.211000000000000049,22.833717012546159708
0.212000000000000050,21.877423142355961971
0.213000000000000050,20.934542102387425189
0.214000000000000051,20.004763988454094203
0.215000000000000052,19.087903401499385581
0.216000000000000053,18.183890578139770611
0.217000000000000054,17.292761057539113523
0.218000000000000055,16.414644275321524702
0.219000000000000056,15.549751443498985637
0.220000000000000057,14.698363040511839728
0.221000000000000058,13.860816198880105077
0.222000000000000058,13.037492240808948196
0.223000000000000059,12.228804575357113293
0.224000000000000060,11.435187135217979915
0.225000000000000061,10.657083497374305381
0.226000000000000062,9.894936800303508306
0.227000000000000063,9.149180541332356142
0.228000000000000064,8.420230311359762965
0.229000000000000065,7.708476500573775425
0.230000000000000066,7.014277988005616749
0.231000000000000066,6.337956809736569497
0.232000000000000067,5.679793785211634471
0.233000000000000068,5.040025068278315423
0.234000000000000069,4.418839579101447868
0.235000000000000070,3.816377264822702564
0.236000000000000071,3.232728130546677736
0.237000000000000072,2.667931977744534500
0.238000000000000073,2.121978784276513874
0.239000000000000073,1.594809658752102122
0.240000000000000074,1.086318301681623577
0.241000000000000075,0.596352906653587755
0.242000000000000076,0.124718436426998286
0.243000000000000077,-0.328820788795119501
0.244000000000000078,-0.764538250687139098
0.245000000000000079,-1.182742196084402231
0.246000000000000080,-1.583772456850029986
0.247000000000000081,-1.967997174967589968
0.248000000000000081,-2.335809477378646193
0.249000000000000082,-2.687624140896133884
0.250000000000000111,-3.023874283338648716
0.251000000000000112,-3.345008112903278263
0.252000000000000113,-3.651485763774927840
0.253000000000000114,-3.943776242093453455
0.254000000000000115,-4.222354502702178713
0.255000000000000115,-4.487698673600942989
0.256000000000000116,-4.740287441745886454
0.257000000000000117,-4.980597610785726381
0.258000000000000118,-5.209101838508417792
0.259000000000000119,-5.426266559196645467
0.260000000000000120,-5.632550093754105092
0.261000000000000121,-5.828400948363298362
0.262000000000000122,-6.014256300565162583
0.263000000000000123,-6.190540670001030144
0.264000000000000123,-6.357664769621107048
0.265000000000000124,-6.516024531927717689
0.266000000000000125,-6.666000303776323577
0.267000000000000126,-6.807956202388742106
0.268000000000000127,-6.942239624530122555
0.269000000000000128,-7.069180900249333099
0.270000000000000129,-7.189093082170609605
0.271000000000000130,-7.302271861038562406
0.272000000000000131,-7.408995598047242837
0.273000000000000131,-7.509525464414844365
0.274000000000000132,-7.604105678687483660
0.275000000000000133,-7.692963832357253118
0.276000000000000134,-7.776311294551199182
0.277000000000000135,-7.854343686779174050
0.278000000000000136,-7.927241419011136436
0.279000000000000137,-7.995170278679237796
0.280000000000000138,-8.058282064559739055
0.281000000000000139,-8.116715257877425316
0.282000000000000139,-8.170595723383664577
0.283000000000000140,-8.220037433583492259
0.284000000000000141,-8.265143209720926976
0.285000000000000142,-8.306005473571470787
0.286000000000000143,-8.342707004531229487
0.287000000000000144,-8.375321696929919568
0.288000000000000145,-8.403915312927907166
0.289000000000000146,-8.428546226780449402
0.290000000000000147,-8.449266156665771632
0.291000000000000147,-8.466120880673006610
0.292000000000000148,-8.479150933931769885
0.293000000000000149,-8.488392284234150154
0.294000000000000150,-8.493876983852524987
0.295000000000000151,-8.495633795591214010
0.296000000000000152,-8.493688791426189155
0.297000000000000153,-8.488065922384869566
0.298000000000000154,-8.478787558596561524
0.299000000000000155,-8.465874998704299159
0.300000000000000155,-8.449348948069916432
0.301000000000000156,-8.429229965426973337
0.302000000000000157,-8.405538877840987411
0.303000000000000158,-8.378297164023445376
0.304000000000000159,-8.347527306216344201
0.305000000000000160,-8.313253111017235852
0.306000000000000161,-8.275499999653073147
0.307000000000000162,-8.234295268333477580
0.308000000000000163,-8.189668319422462872
0.309000000000000163,-8.141650864262395260
0.310000000000000164,-8.090277098565682223
0.311000000000000165,-8.035583851359154650
0.312000000000000166,-7.977610708524660588
0.313000000000000167,-7.916400112026702907
0.314000000000000168,-7.851997435955804683
0.315000000000000169,-7.784451040544793088
0.316000000000000170,-7.713812305335361330
0.317000000000000171,-7.640135642684458439
0.318000000000000171,-7.563478492805330688
0.319000000000000172,-7.483901301536763029
0.320000000000000173,-7.401467482027003442
0.321000000000000174,-7.316243361506198362
0.322000000000000175,-7.228298114304363864
0.323000000000000176,-7.137703682250334580
0.324000000000000177,-7.044534683562178046
0.325000000000000178,-6.948868311311215962
0.326000000000000179,-6.850784222510941213
0.327000000000000179,-6.750364418848374903
0.328000000000000180,-6.647693120040005788
0.329000000000000181,-6.542856630757829528
0.330000000000000182,-6.435943202031644716
0.331000000000000183,-6.327042887995427911
0.332000000000000184,-6.216247398804611635
0.333000000000000185,-6.103649950510935618
0.334000000000000186,-5.989345112640569013
0.335000000000000187,-5.873428654180229636
0.336000000000000187,-5.755997388635522682
0.337000000000000188,-5.637149018785040155
0.338000000000000189,-5.516981981714305761
0.339000000000000190,-5.395595294674039977
0.340000000000000191,-5.273088402268820474
0.341000000000000192,-5.149561025444945983
0.342000000000000193,-5.025113012708953164
0.343000000000000194,-4.899844193973409645
0.344000000000000195,-4.773854237391326194
0.345000000000000195,-4.647242509507773178
0.346000000000000196,-4.520107939024660126
0.347000000000000197,-4.392548884443908896
0.348000000000000198,-4.264663005824606223
0.349000000000000199,-4.136547140861071448
0.350000000000000200,-4.008297185462067702
0.351000000000000201,-3.880007978985046346
0.352000000000000202,-3.751773194255285659
0.353000000000000203,-3.623685232476237417
0.354000000000000203,-3.495835123115476506
0.355000000000000204,-3.368312428829963068
0.356000000000000205,-3.241205155474893296
0.357000000000000206,-3.114599667222027080
0.358000000000000207,-2.988580606796313432
0.359000000000000208,-2.863230820823787326
0.360000000000000209,-2.738631290268804808
0.361000000000000210,-2.614861065924953376
0.362000000000000210,-2.491997208911354900
0.363000000000000211,-2.370114736114349085
0.364000000000000212,-2.249286570503973515
0.365000000000000213,-2.129583496244745522
0.366000000000000214,-2.011074118511630981
0.367000000000000215,-1.893824827913898279
0.368000000000000216,-1.777899769422634835
0.369000000000000217,-1.663360815691147909
0.370000000000000218,-1.550267544652038865
0.371000000000000218,-1.438677221269697881
0.372000000000000219,-1.328644783322915801
0.373000000000000220,-1.220222831088566995
0.374000000000000221,-1.113461620794560458
0.375000000000000222,-1.008409061707553178
0.376000000000000223,-0.905110716719418229
0.377000000000000224,-0.803609806294738327
0.378000000000000225,-0.703947215640989832
0.379000000000000226,-0.606161504962415165
0.380000000000000226,-0.510288922658676425
0.381000000000000227,-0.416363421329562111
0.382000000000000228,-0.324416676447840502
0.383000000000000229,-0.234478107563284688
0.384000000000000230,-0.146574901902073507
0.385000000000000231,-0.060732040227633011
0.386000000000000232,0.023027675169555728
0.387000000000000233,0.104683590483345190
0.388000000000000234,0.184217168532625125
0.389000000000000234,0.261611955156803799
0.390000000000000235,0.336853543989286630
0.391000000000000236,0.409929539728974390
0.392000000000000237,0.480829520027486246
0.393000000000000238,0.549544996106312911
0.394000000000000239,0.616069372215448219
0.395000000000000240,0.680397904041670998
0.396000000000000241,0.742527656171530603
0.397000000000000242,0.802457458710788885
0.398000000000000242,0.860187863158788701
0.399000000000000243,0.915721097632830827
0.400000000000000244,0.969061021534492362
0.401000000000000245,1.020213079745992957
0.402000000000000246,1.069184256441960024
0.403000000000000247,1.115983028598100057
0.404000000000000248,1.160619319275171923
0.405000000000000249,1.203104450753284649
0.406000000000000250,1.243451097588287091
0.407000000000000250,1.281673239658699393
0.408000000000000251,1.317786115268543279
0.409000000000000252,1.351806174368087365
0.410000000000000253,1.383751031951644617
0.411000000000000254,1.413639421688255071
0.412000000000000255,1.441491149838331598
0.413000000000000256,1.467327049506138792
0.414000000000000257,1.491168935275429153
0.415000000000000258,1.513039558272396112
0.416000000000000258,1.532962561697720272
0.417000000000000259,1.550962436866493821
0.418000000000000260,1.567064479792479537
0.419000000000000261,1.581294748350487112
0.420000000000000262,1.593680020048233725
0.421000000000000263,1.604247750436680775
0.422000000000000264,1.613026032185622238
0.423000000000000265,1.620043554848975331
0.424000000000000266,1.625329565342038096
0.425000000000000266,1.628913829151128256
0.426000000000000267,1.630826592293785016
0.427000000000000268,1.631098544045879617
0.428000000000000269,1.629760780450199231
0.429000000000000270,1.626844768619205794
0.430000000000000271,1.622382311842963443
0.431000000000000272,1.616405515511701196
0.432000000000000273,1.608946753860788892
0.433000000000000274,1.600038637544511477
0.434000000000000274,1.589713982043505114
0.435000000000000275,1.578005776909491065
0.436000000000000276,1.564947155849508942
0.437000000000000277,1.550571367650713572
0.438000000000000278,1.534911747945614913
0.439000000000000279,1.518001691816502685
0.440000000000000280,1.499874627236760016
0.441000000000000281,1.480563989345869746
0.442000000000000282,1.460103195553745126
0.443000000000000282,1.438525621469505023
0.444000000000000283,1.415864577648563438
0.445000000000000284,1.392153287151489449
0.446000000000000285,1.367424863907182875
0.447000000000000286,1.341712291872201090
0.448000000000000287,1.315048404977605667
0.449000000000000288,1.287465867853943013
0.450000000000000289,1.258997157324517779
0.451000000000000290,1.229674544656610635
0.452000000000000290,1.199530078559788437
0.453000000000000291,1.168595568920095307
0.454000000000000292,1.136902571258448846
0.455000000000000293,1.104482371901285065
0.456000000000000294,1.071365973851141185
0.457000000000000295,1.037584083344615271
0.458000000000000296,1.003167097084811443
0.459000000000000297,0.968145090135306696
0.460000000000000298,0.932547804462257490
0.461000000000000298,0.896404638111406582
0.462000000000000299,0.859744635006246205
0.463000000000000300,0.822596475353825851
0.464000000000000301,0.784988466644339411
0.465000000000000302,0.746948535230759325
0.466000000000000303,0.708504218474527270
0.467000000000000304,0.669682657443537055
0.468000000000000305,0.630510590148386951
0.469000000000000306,0.591014345303078503
0.470000000000000306,0.551219836596277046
0.471000000000000307,0.511152557459298662
0.472000000000000308,0.470837576317083950
0.473000000000000309,0.430299532308434263
0.474000000000000310,0.389562631462009867
0.475000000000000311,0.348650643314393605
0.476000000000000312,0.307586897957113747
0.477000000000000313,0.266394283499065132
0.478000000000000314,0.225095243931444422
0.479000000000000314,0.183711777382041391
0.480000000000000315,0.142265434746159214
0.481000000000000316,0.100777318681406713
0.482000000000000317,0.059268082953927007
0.483000000000000318,0.017757932123656572
0.484000000000000319,-0.023733378443482989
0.485000000000000320,-0.065186542248470911
0.486000000000000321,-0.106582701028916024
0.487000000000000322,-0.147903443837203108
0.488000000000000322,-0.189130805838471250
0.489000000000000323,-0.230247266839552045
0.490000000000000324,-0.271235749559920580
0.491000000000000325,-0.312079617655352914
0.492000000000000326,-0.352762673504901980
0.493000000000000327,-0.393269155771489909
0.494000000000000328,-0.433583736746287474
0.495000000000000329,-0.473691519486769685
0.496000000000000330,-0.513578034758138346
0.497000000000000330,-0.553229237787637107
0.498000000000000331,-0.592631504840971046
0.499000000000000332,-0.631771629629868103
0.500000000000000333,-0.670636819559703556
0.501000000000000334,-0.709214691825696186
0.502000000000000335,-0.747493269366136359
0.503000000000000336,-0.785460976680793399
0.504000000000000337,-0.823106635522529162
0.505000000000000338,-0.860419460469806552
0.506000000000000338,-0.897389054387693896
0.507000000000000339,-0.934005403784713861
0.508000000000000340,-0.970258874072620459
0.509000000000000341,-1.006140204736092114
0.510000000000000342,-1.041640504419041102
0.511000000000000343,-1.076751245934083778
0.512000000000000344,-1.111464261201506432
0.513000000000000345,-1.145771736123829321
0.514000000000000346,-1.179666205402023493
0.515000000000000346,-1.213140547298988015
0.516000000000000347,-1.246187978355982384
0.517000000000000348,-1.278802048067364305
0.518000000000000349,-1.310976633518841972
0.519000000000000350,-1.342705933994246426
0.520000000000000351,-1.373984465555758261
0.521000000000000352,-1.404807055602199872
0.522000000000000353,-1.435168837409939169
0.523000000000000353,-1.465065244660797461
0.524000000000000354,-1.494492005961084224
0.525000000000000355,-1.523445139355881439
0.526000000000000356,-1.551920946842357596
0.527000000000000357,-1.579916008885925427
0.528000000000000358,-1.607427178942825163
0.529000000000000359,-1.634451577992458216
0.530000000000000360,-1.660986589082912968
0.531000000000000361,-1.687029851892731358
0.532000000000000361,-1.712579257311996894
0.533000000000000362,-1.737632942045574724
0.534000000000000363,-1.762189283241315518
0.535000000000000364,-1.786246893145827297
0.536000000000000365,-1.809804613790314320
0.537000000000000366,-1.832861511708902880
0.538000000000000367,-1.855416872691677099
0.539000000000000368,-1.877470196574652750
0.540000000000000369,-1.899021192068658603
0.541000000000000369,-1.920069771629137279
0.542000000000000370,-1.940616046368632608
0.543000000000000371,-1.960660321013758534
0.544000000000000372,-1.980203088908246034
0.545000000000000373,-1.999245027063613289
0.546000000000000374,-2.017786991258922136
0.547000000000000375,-2.035830011190946642
0.548000000000000376,-2.053375285676054762
0.549000000000000377,-2.070424177904945928
0.550000000000000377,-2.086978210751397000
0.551000000000000378,-2.103039062135965143
0.552000000000000379,-2.118608560445670808
0.553000000000000380,-2.133688680010465966
0.554000000000000381,-2.148281536637298039
0.555000000000000382,-2.162389383202543591
0.556000000000000383,-2.176014605303372207
0.557000000000000384,-2.189159716968742675
0.558000000000000385,-2.201827356430468896
0.559000000000000385,-2.214020281954895530
0.560000000000000386,-2.225741367735536880
0.561000000000000387,-2.236993599847083125
0.562000000000000388,-2.247780072261009288
0.563000000000000389,-2.258103982923136854
0.564000000000000390,-2.267968629893208465
0.565000000000000391,-2.277377407546745669
0.566000000000000392,-2.286333802839224383
0.567000000000000393,-2.294841391632646665
0.568000000000000393,-2.302903835084501249
0.569000000000000394,-2.310524876099123937
0.570000000000000395,-2.317708335841366818
0.571000000000000396,-2.324458110312440873
0.572000000000000397,-2.330778166987871991
0.573000000000000398,-2.336672541517318624
0.574000000000000399,-2.342145334486064989
0.575000000000000400,-2.347200708237976219
0.576000000000000401,-2.351842883759601044
0.577000000000000401,-2.356076137625170652
0.578000000000000402,-2.359904799002124243
0.579000000000000403,-2.363333246716831759
0.580000000000000404,-2.366365906380146544
0.581000000000000405,-2.369007247572354480
0.582000000000000406,-2.371261781087143472
0.583000000000000407,-2.373134056234088796
0.584000000000000408,-2.374628658199274156
0.585000000000000409,-2.375750205463471154
0.586000000000000409,-2.376503347277458378
0.587000000000000410,-2.376892761193935222
0.588000000000000411,-2.376923150655462447
0.589000000000000412,-2.376599242637969400
0.590000000000000413,-2.375925785349168429
0.591000000000000414,-2.374907545981377321
0.592000000000000415,-2.373549308518161816
0.593000000000000416,-2.371855871594134246
0.594000000000000417,-2.369832046407391424
0.595000000000000417,-2.367482654683951360
0.596000000000000418,-2.364812526693497396
0.597000000000000419,-2.361826499315935912
0.598000000000000420,-2.358529414157984228
0.599000000000000421,-2.354926115719262913
0.600000000000000422,-2.351021449607165525
0.601000000000000423,-2.346820260799890701
0.602000000000000424,-2.342327391956970040
0.603000000000000425,-2.337547681776643849
0.604000000000000425,-2.332485963399371531
0.605000000000000426,-2.327147062856866011
0.606000000000000427,-2.321535797565979831
0.607000000000000428,-2.315656974866679985
0.608000000000000429,-2.309515390603613660
0.609000000000000430,-2.303115827750377598
0.610000000000000431,-2.296463055076036763
0.611000000000000432,-2.289561825853026367
0.612000000000000433,-2.282416876605890543
0.613000000000000433,-2.275032925900156933
0.614000000000000434,-2.267414673170656592
0.615000000000000435,-2.259566797588605791
