# Ce-001_NC4-AC
# h[nm],U(h)[kJ/mol]
0.200000000000000011,168.792399411576866441
0.201000000000000012,162.355484366432079923
0.202000000000000013,158.607785218598451138
0.203000000000000014,156.106081652196508003
0.204000000000000015,154.029309444009214758
0.205000000000000016,151.953965319230661635
0.206000000000000016,149.700201010260059320
0.207000000000000017,147.228592651934349078
0.208000000000000018,144.572793510992255506
0.209000000000000019,141.797220552424789730
0.210000000000000020,138.971887176029980537
0.211000000000000021,136.158707075783183882
0.212000000000000022,133.405236541800007899
0.213000000000000023,130.743032655843592238
0.214000000000000024,128.188688869722767549
0.215000000000000024,125.746248779867684675
0.216000000000000025,123.410155697292722721
0.217000000000000026,121.168217182572476531
0.218000000000000027,119.004285931462092663
0.219000000000000028,116.900508301102689757
0.220000000000000029,114.839089638380457359
0.221000000000000030,112.803586520669867355
0.222000000000000031,110.779771219359489010
0.223000000000000032,108.756131340358322745
0.224000000000000032,106.724073626572220519
0.225000000000000033,104.677899582729466488
0.226000000000000034,102.614614905284454949
0.227000000000000035,100.533626744491513705
0.228000000000000036,98.436373988422744219
0.229000000000000037,96.325926944817751973
0.230000000000000038,94.206584560658214400
0.231000000000000039,92.083489969746665338
0.232000000000000040,89.962278835146435085
0.233000000000000040,87.848769683742560233
0.234000000000000041,85.748701170738542032
0.235000000000000042,83.667517876695853829
0.236000000000000043,81.610203720930002191
0.237000000000000044,79.581160256838046507
0.238000000000000045,77.584125882249310280
0.239000000000000046,75.622131243173186022
0.240000000000000047,73.697485734419487358
0.241000000000000048,71.811789919216622025
0.242000000000000048,69.965968827940983488
0.243000000000000049,68.160321390954649701
0.244000000000000050,66.394581660865043204
0.245000000000000051,64.667987943700353526
0.246000000000000052,62.979356453758853718
0.247000000000000053,61.327156607975894076
0.248000000000000054,59.709585563742606951
0.249000000000000055,58.124640065706728365
0.250000000000000056,56.570184093069613596
0.251000000000000056,55.044011183663009490
0.252000000000000057,53.543900651808165492
0.253000000000000058,52.067667212937692511
0.254000000000000059,50.613203780094401907
0.255000000000000060,49.178517407778471693
0.256000000000000061,47.761758530045653970
0.257000000000000062,46.361243775627151820
0.258000000000000063,44.975472746775650990
0.259000000000000064,43.603139224270670127
0.260000000000000064,42.243137312225954361
0.261000000000000065,40.894563066583025090
0.262000000000000066,39.556712163784347069
0.263000000000000067,38.229074164192965668
0.264000000000000068,36.911323911164814149
0.265000000000000069,35.603310583803548184
0.266000000000000070,34.305044891565557919
0.267000000000000071,33.016684863964677277
0.268000000000000071,31.738520650331658146
0.269000000000000072,30.470958704317688159
0.270000000000000073,29.214505686782452187
0.271000000000000074,27.969752379840286949
0.272000000000000075,26.737357864934306662
0.273000000000000076,25.518034179478014778
0.274000000000000077,24.312531630310097341
0.275000000000000078,23.121624908286879219
0.276000000000000079,21.946100117016364095
0.277000000000000079,20.786742800147962384
0.278000000000000080,19.644327025839423584
0.279000000000000081,18.519605564010962695
0.280000000000000082,17.413301171722046945
0.281000000000000083,16.326098984363550670
0.282000000000000084,15.258639995229202668
0.283000000000000085,14.211515593262959101
0.284000000000000086,13.185263118209842759
0.285000000000000087,12.180362383858712505
0.286000000000000087,11.197233113372998758
0.287000000000000088,10.236233225685728243
0.288000000000000089,9.297657908412201522
0.289000000000000090,8.381739410534684964
0.290000000000000091,7.488647487080072551
0.291000000000000092,6.618490427982112401
0.292000000000000093,5.771316604156794483
0.293000000000000094,4.947116465382051409
0.294000000000000095,4.145824926740848682
0.295000000000000095,3.367324083042481764
0.296000000000000096,2.611446193682795958
0.297000000000000097,1.877976883742150660
0.298000000000000098,1.166658510672285987
0.299000000000000099,0.477193649613797732
0.300000000000000100,-0.190751345846089576
0.301000000000000101,-0.837542746879160527
0.302000000000000102,-1.463575852226030705
0.303000000000000103,-2.069271422558836893
0.304000000000000103,-2.655072174748601022
0.305000000000000104,-3.221439360923893158
0.306000000000000105,-3.768849453888839296
0.307000000000000106,-4.297790957317082494
0.308000000000000107,-4.808761356165963008
0.309000000000000108,-5.302264219969418768
0.310000000000000109,-5.778806469077281349
0.311000000000000110,-6.238895811510082545
0.312000000000000111,-6.683038355899768135
0.313000000000000111,-7.111736403976685494
0.314000000000000112,-7.525486424246112804
0.315000000000000113,-7.924777206862323453
0.316000000000000114,-8.310088198251179392
0.317000000000000115,-8.681888012744272132
0.318000000000000116,-9.040633117361570825
0.319000000000000117,-9.386766684905623492
0.320000000000000118,-9.720717609699708106
0.321000000000000119,-10.042899679606184904
0.322000000000000119,-10.353710897388642920
0.323000000000000120,-10.653532944024137308
0.324000000000000121,-10.942730776220589206
0.325000000000000122,-11.221652350138892729
0.326000000000000123,-11.490628463151326244
0.327000000000000124,-11.749972705379727600
0.328000000000000125,-11.999981512738994383
0.329000000000000126,-12.240934313256239818
0.330000000000000127,-12.473093758537334708
0.331000000000000127,-12.696706032401689157
0.332000000000000128,-12.912001228897789673
0.333000000000000129,-13.119193792139750343
0.334000000000000130,-13.318483010662736987
0.335000000000000131,-13.510053559278961899
0.336000000000000132,-13.694076081718199234
0.337000000000000133,-13.870707807657129962
0.338000000000000134,-14.040093198072536751
0.339000000000000135,-14.202364613192420606
0.340000000000000135,-14.357642997664394002
0.341000000000000136,-14.506038577906275933
0.342000000000000137,-14.647651566950290913
0.343000000000000138,-14.782572872434633027
0.344000000000000139,-14.910884803735124038
0.345000000000000140,-15.032661774560256873
0.346000000000000141,-15.147970997656779346
0.347000000000000142,-15.256873168586462697
0.348000000000000143,-15.359423135838387253
0.349000000000000143,-15.455670554832556363
0.350000000000000144,-15.545660523651042340
0.351000000000000145,-15.629434198599463812
0.352000000000000146,-15.707029387956419342
0.353000000000000147,-15.778481122508827283
0.354000000000000148,-15.843822201699001795
0.355000000000000149,-15.903083714422967532
0.356000000000000150,-15.956295533720275870
0.357000000000000151,-16.003486784782484875
0.358000000000000151,-16.044686285881979870
0.359000000000000152,-16.079922961983520224
0.360000000000000153,-16.109226230950358882
0.361000000000000154,-16.132626362392432640
0.362000000000000155,-16.150154809329599459
0.363000000000000156,-16.161844512956029973
0.364000000000000157,-16.167730180893922665
0.365000000000000158,-16.167848539417853715
0.366000000000000159,-16.162238560211687144
0.367000000000000159,-16.150941662293771373
0.368000000000000160,-16.134001889809159280
0.369000000000000161,-16.111466066442805101
0.370000000000000162,-16.083383927254818246
0.371000000000000163,-16.049808228778648100
0.372000000000000164,-16.010794838255247186
0.373000000000000165,-15.966402802902639024
0.374000000000000166,-15.916694400140244170
0.375000000000000167,-15.861735169701063342
0.376000000000000167,-15.801593928574646952
0.377000000000000168,-15.736342769727297508
0.378000000000000169,-15.666057045546144977
0.379000000000000170,-15.590815336949560788
0.380000000000000171,-15.510699409098336332
0.381000000000000172,-15.425794154631116584
0.382000000000000173,-15.336187525333249582
0.383000000000000174,-15.241970453131880703
0.384000000000000175,-15.143236761290562953
0.385000000000000175,-15.040083066655782318
0.386000000000000176,-14.932608673784994124
0.387000000000000177,-14.820915461760753473
0.388000000000000178,-14.705107764470607634
0.389000000000000179,-14.585292245104515274
0.390000000000000180,-14.461577765594739731
0.391000000000000181,-14.334075251694079256
0.392000000000000182,-14.202897554359640964
0.393000000000000183,-14.068159308079831504
0.394000000000000183,-13.929976786752877871
0.395000000000000184,-13.788467757695475058
0.396000000000000185,-13.643751334330428193
0.397000000000000186,-13.495947828073095565
0.398000000000000187,-13.345178599906896366
0.399000000000000188,-13.191565912109549430
0.400000000000000189,-13.035232780563399402
0.401000000000000190,-12.876302828054955185
0.402000000000000191,-12.714900138942116570
0.403000000000000191,-12.551149115540116696
0.404000000000000192,-12.385174336551962426
0.405000000000000193,-12.217100417843235860
0.406000000000000194,-12.047051875837121671
0.407000000000000195,-11.875152993781597388
0.408000000000000196,-11.701527691117570740
0.409000000000000197,-11.526299396155039290
0.410000000000000198,-11.349590922243029567
0.411000000000000199,-11.171524347598186466
0.412000000000000199,-10.992220898938075635
0.413000000000000200,-10.811800839045924150
0.414000000000000201,-10.630383358376221281
0.415000000000000202,-10.448086470792933511
0.416000000000000203,-10.265026913516848595
0.417000000000000204,-10.081320051342231636
0.418000000000000205,-9.897079785169358601
0.419000000000000206,-9.712418464885397285
0.420000000000000207,-9.527446806612905661
0.421000000000000207,-9.342273814334074444
0.422000000000000208,-9.157006705886111320
0.423000000000000209,-8.971750843313881063
0.424000000000000210,-8.786609667555062231
0.425000000000000211,-8.601684637424156676
0.426000000000000212,-8.417075172853419218
0.427000000000000213,-8.232878602340282015
0.428000000000000214,-8.049190114544241936
0.429000000000000214,-7.866102713968942339
0.430000000000000215,-7.683707180659313352
0.431000000000000216,-7.502092033838478002
0.432000000000000217,-7.321343499403222488
0.433000000000000218,-7.141545481193340095
0.434000000000000219,-6.962779535945455400
0.435000000000000220,-6.785124851838832072
0.436000000000000221,-6.608658230537256983
0.437000000000000222,-6.433454072628540743
0.438000000000000222,-6.259584366361124808
0.439000000000000223,-6.087118679574958335
0.440000000000000224,-5.916124154722675499
0.441000000000000225,-5.746665506875478613
0.442000000000000226,-5.578805024607916607
0.443000000000000227,-5.412602573654240246
0.444000000000000228,-5.248115603229647874
0.445000000000000229,-5.085399154908960995
0.446000000000000230,-4.924505873955864033
0.447000000000000230,-4.765486022996258342
0.448000000000000231,-4.608387497929680165
0.449000000000000232,-4.453255845973727922
0.450000000000000233,-4.300134285737632567
0.451000000000000234,-4.149063729221806440
0.452000000000000235,-4.000082805642147576
0.453000000000000236,-3.853227886978701555
0.454000000000000237,-3.708533115150579818
0.455000000000000238,-3.566030430720039668
0.456000000000000238,-3.425749603031104762
0.457000000000000239,-3.287718261689396293
0.458000000000000240,-3.151961929292536713
0.459000000000000241,-3.018504055321680202
0.460000000000000242,-2.887366051107876253
0.461000000000000243,-2.758567325788095825
0.462000000000000244,-2.632125323169049125
0.463000000000000245,-2.508055559417989411
0.464000000000000246,-2.386371661503298824
0.465000000000000246,-2.267085406308909867
0.466000000000000247,-2.150206760349479218
0.467000000000000248,-2.035743920015442576
0.468000000000000249,-1.923703352279555912
0.469000000000000250,-1.814089835798622374
0.470000000000000251,-1.706906502346767329
0.471000000000000252,-1.602154878518615488
0.472000000000000253,-1.499834927643500126
0.473000000000000254,-1.399945091853622481
0.474000000000000254,-1.302482334251793716
0.475000000000000255,-1.207442181126418213
0.476000000000000256,-1.114818764163640674
0.477000000000000257,-1.024604862608951228
0.478000000000000258,-0.936791945332375420
0.479000000000000259,-0.851370212753889022
0.480000000000000260,-0.768328638587535084
0.481000000000000261,-0.687655011364782465
0.482000000000000262,-0.609335975699942689
0.483000000000000262,-0.533357073262074044
0.484000000000000263,-0.459702783419954908
0.485000000000000264,-0.388356563528574950
0.486000000000000265,-0.319300888827377560
0.487000000000000266,-0.252517291922281562
0.488000000000000267,-0.187986401825240679
0.489000000000000268,-0.125687982527015019
0.490000000000000269,-0.065600971079955397
0.491000000000000270,-0.007703515169953245
0.492000000000000270,0.048026989842530732
0.493000000000000271,0.101613864430259368
0.494000000000000272,0.153081108972739799
0.495000000000000273,0.202453368410786538
0.496000000000000274,0.249755897495954310
0.497000000000000275,0.295014526647721376
0.498000000000000276,0.338255628429541877
0.499000000000000277,0.379506084654146592
0.500000000000000222,0.418793254126932468
0.501000000000000334,0.456144941035341867
0.502000000000000224,0.491589363990937556
0.503000000000000336,0.525155125730008776
0.504000000000000226,0.556871183477221754
0.505000000000000338,0.586766819976327403
0.506000000000000227,0.614871615190438314
0.507000000000000339,0.641215418674183413
0.508000000000000229,0.665828322618581936
0.509000000000000341,0.688740635569144555
0.510000000000000231,0.709982856816581576
0.511000000000000343,0.729585651459191853
0.512000000000000233,0.747579826134880276
0.513000000000000345,0.763996305420458488
0.514000000000000234,0.778866108894893494
0.515000000000000346,0.792220328863162848
0.516000000000000236,0.804090108736098208
0.517000000000000348,0.814506622061660579
0.518000000000000238,0.823501052202356254
0.519000000000000350,0.831104572653012186
0.520000000000000240,0.837348327992873065
0.521000000000000352,0.842263415465306253
0.522000000000000242,0.845880867178408158
0.523000000000000353,0.848231632918995393
0.524000000000000243,0.849346563572612512
0.525000000000000355,0.849256395141474330
0.526000000000000245,0.847991733352274180
0.527000000000000357,0.845583038845399648
0.528000000000000247,0.842060612936872177
0.529000000000000359,0.837454583944208131
0.530000000000000249,0.831794894067043877
0.531000000000000361,0.825111286813370426
0.532000000000000250,0.817433294961961154
0.533000000000000362,0.808790229051434162
0.534000000000000252,0.799211166386469829
0.535000000000000364,0.788724940551139175
0.536000000000000254,0.777360131419873035
0.537000000000000366,0.765145055655905848
0.538000000000000256,0.752107757687376810
0.539000000000000368,0.738276001151032091
0.540000000000000258,0.723677260793553878
0.541000000000000369,0.708338714820388127
0.542000000000000259,0.692287237682142176
0.543000000000000371,0.675549393288380151
0.544000000000000261,0.658151428638866220
0.545000000000000373,0.640119267862218955
0.546000000000000263,0.621478506652065832
0.547000000000000375,0.602254407090630162
0.548000000000000265,0.582471892850085937
0.549000000000000377,0.562155544761643644
0.550000000000000266,0.541329596742860963
0.551000000000000378,0.520017932073246869
0.552000000000000268,0.498244080008850065
0.553000000000000380,0.476031212726074682
0.554000000000000270,0.453402142585516976
0.555000000000000382,0.430379319706392427
0.556000000000000272,0.406984829842404749
0.557000000000000384,0.383240392549976661
0.558000000000000274,0.359167359639773698
0.559000000000000385,0.334786713902788080
0.560000000000000275,0.310119068102118756
0.561000000000000387,0.285184664221849904
0.562000000000000277,0.260003372964673796
0.563000000000000389,0.234594693489609207
0.564000000000000279,0.208977753381883374
0.565000000000000391,0.183171308846627384
0.566000000000000281,0.157193745118644868
0.567000000000000393,0.131063077080193990
0.568000000000000282,0.104796950079294543
0.569000000000000394,0.078412640940834361
0.570000000000000284,0.051927059163300426
0.571000000000000396,0.025356748293523357
0.572000000000000286,-0.001282112527340712
0.573000000000000398,-0.027973706853810933
0.574000000000000288,-0.054702579068757397
0.575000000000000400,-0.081453632365653048
0.576000000000000290,-0.108212126586631513
0.577000000000000401,-0.134963675923150506
0.578000000000000291,-0.161694246485212745
0.579000000000000403,-0.188390153745460837
0.580000000000000293,-0.215038059864026104
0.581000000000000405,-0.241624970900136349
0.582000000000000295,-0.268138233915935220
0.583000000000000407,-0.294565533978408012
0.584000000000000297,-0.320894891064487431
0.585000000000000409,-0.347114656875049943
0.586000000000000298,-0.373213511562496714
0.587000000000000410,-0.399180460377439705
0.588000000000000300,-0.425004830238930098
0.589000000000000412,-0.450676266233379696
0.590000000000000302,-0.476184728046484929
0.591000000000000414,-0.501520486333009163
0.592000000000000304,-0.526674119028410992
0.593000000000000416,-0.551636507606930615
0.594000000000000306,-0.576398833290053703
0.595000000000000417,-0.600952573209473706
0.596000000000000307,-0.625289496528322220
0.597000000000000419,-0.649401660524628555
0.598000000000000309,-0.673281406640544144
0.599000000000000421,-0.696921356500832090
0.600000000000000311,-0.720314407904208309
0.601000000000000423,-0.743453730790782252
0.602000000000000313,-0.766332763188726118
0.603000000000000425,-0.788945207143471161
0.604000000000000314,-0.811285024632258711
0.605000000000000426,-0.833346433467083814
0.606000000000000316,-0.855123903188708900
0.607000000000000428,-0.876612150954583003
0.608000000000000318,-0.897806137423162065
0.609000000000000430,-0.918701062637247823
0.610000000000000320,-0.939292361908623086
0.611000000000000432,-0.959575701706518513
0.612000000000000322,-0.979546975551898846
0.613000000000000433,-0.999202299919974224
0.614000000000000323,-1.018538010152816309
0.615000000000000435,-1.037550656384202963
0.616000000000000325,-1.056236999478430416
0.617000000000000437,-1.074594006985144290
0.618000000000000327,-1.092618849111717694
0.619000000000000439,-1.110308894714990391
0.620000000000000329,-1.127661707313896589
0.621000000000000441,-1.144675041124572079
0.622000000000000330,-1.161346837119296982
0.623000000000000442,-1.177675219110819071
0.624000000000000332,-1.193658489863142602
0.625000000000000444,-1.209295127230345823
0.626000000000000334,-1.224583780324309812
0.627000000000000446,-1.239523265712735967
0.628000000000000336,-1.254112563648356105
0.629000000000000448,-1.268350814330484244
0.630000000000000338,-1.282237314199691669
0.631000000000000449,-1.295771512266763681
0.632000000000000339,-1.308953006476481162
0.633000000000000451,-1.321781540107302089
0.634000000000000341,-1.334256998207446365
0.635000000000000453,-1.346379404068362318
0.636000000000000343,-1.358148915735851725
0.637000000000000455,-1.369565822559875246
0.638000000000000345,-1.380630541783213872
0.639000000000000457,-1.391343615169791770
0.640000000000000346,-1.401705705672947389
0.641000000000000458,-1.411717594144198173
0.642000000000000348,-1.421380176082807312
0.643000000000000460,-1.430694458426595705
0.644000000000000350,-1.439661556384211893
0.645000000000000462,-1.448282690309270482
0.646000000000000352,-1.456559182616457004
0.647000000000000464,-1.464492454739972471
0.648000000000000353,-1.472084024134369340
0.649000000000000465,-1.479335501318026047
0.650000000000000355,-1.486248586959301621
0.651000000000000467,-1.492825069005526917
0.652000000000000357,-1.499066819854899757
0.653000000000000469,-1.504975793571240228
0.654000000000000359,-1.510554023141754465
0.655000000000000471,-1.515803617777657042
0.656000000000000361,-1.520726760257721910
0.657000000000000473,-1.525325704314650199
0.658000000000000362,-1.529602772064202032
0.659000000000000474,-1.533560351476974670
0.660000000000000364,-1.537200893892702869
0.661000000000000476,-1.540526911576993729
0.662000000000000366,-1.543540975320244701
