# Ce-001_CS-582-AC
# h[nm],U(h)[kJ/mol]
0.200000000000000011,103.049654526367476137
0.201000000000000012,97.090691101514821071
0.202000000000000013,93.486033298164414873
0.203000000000000014,90.983543294011383296
0.204000000000000015,88.867896450669675801
0.205000000000000016,86.768127329036573769
0.206000000000000016,84.525280739261276608
0.207000000000000017,82.103291968664365186
0.208000000000000018,79.530585199288395870
0.209000000000000019,76.863184096507296772
0.210000000000000020,74.162618865664711620
0.211000000000000021,71.483780270496225739
0.212000000000000022,68.869260887488835010
0.213000000000000023,66.347751452404708061
0.214000000000000024,63.934813624643119567
0.215000000000000024,61.634897580414495621
0.216000000000000025,59.443865448967677878
0.217000000000000026,57.351559353042375733
0.218000000000000027,55.344145831606894603
0.219000000000000028,53.406099505729478949
0.220000000000000029,51.521775153567979544
0.221000000000000030,49.676571720513763353
0.222000000000000031,47.857723735454676728
0.223000000000000032,46.054772152172120059
0.224000000000000032,44.259772903349443141
0.225000000000000033,42.467301130134572418
0.226000000000000034,40.674304749372154788
0.227000000000000035,38.879854566111390568
0.228000000000000036,37.084830769201076350
0.229000000000000037,35.291578175830295550
0.230000000000000038,33.503555524299571289
0.231000000000000039,31.724997744576722170
0.232000000000000040,29.960604605162831859
0.233000000000000040,28.215264483584682864
0.234000000000000041,26.493818212383853705
0.235000000000000042,24.800864949076160570
0.236000000000000043,23.140609721828980128
0.237000000000000044,21.516750617933112721
0.238000000000000045,19.932402413967849952
0.239000000000000046,18.390052703701094572
0.240000000000000047,16.891546178587550031
0.241000000000000048,15.438092581806136749
0.242000000000000048,14.030293925489640827
0.243000000000000049,12.668186777261743359
0.244000000000000050,11.351295740744387075
0.245000000000000051,10.078694638067256406
0.246000000000000052,8.849072320880180698
0.247000000000000053,7.660800466732036185
0.248000000000000054,6.512001142360186456
0.249000000000000055,5.400612321558607931
0.250000000000000056,4.324449923884908564
0.251000000000000056,3.281265285723579783
0.252000000000000057,2.268797283862372005
0.253000000000000058,1.284818602462177495
0.254000000000000059,0.327175867304595525
0.255000000000000060,-0.606176432192883752
0.256000000000000061,-1.517148150395435602
0.257000000000000062,-2.407491608859134935
0.258000000000000063,-3.278785320357350486
0.259000000000000064,-4.132422921846914399
0.260000000000000064,-4.969606870890925343
0.261000000000000065,-5.791346425703784995
0.262000000000000066,-6.598459411185321422
0.263000000000000067,-7.391577269343065026
0.264000000000000068,-8.171152899872978992
0.265000000000000069,-8.937470813116394908
0.266000000000000070,-9.690659141114034369
0.267000000000000071,-10.430703081261324172
0.268000000000000071,-11.157459379580632941
0.269000000000000072,-11.870671495541477825
0.270000000000000073,-12.569985126553110177
0.271000000000000074,-13.254963806789879399
0.272000000000000075,-13.925104331123938195
0.273000000000000076,-14.579851790015334601
0.274000000000000077,-15.218614034771542620
0.275000000000000078,-15.840775424272035110
0.276000000000000079,-16.445709733801813002
0.277000000000000079,-17.032792133879411267
0.278000000000000080,-17.601410171798612225
0.279000000000000081,-18.150973710996737509
0.280000000000000082,-18.680923803325242716
0.281000000000000083,-19.190740486887630567
0.282000000000000084,-19.679949517409635718
0.283000000000000085,-20.148128054228109818
0.284000000000000086,-20.594909333057497491
0.285000000000000087,-21.019986366853878224
0.286000000000000087,-21.423114723497771905
0.287000000000000088,-21.804114434807672751
0.288000000000000089,-22.162871095729197890
0.289000000000000090,-22.499336215571645425
0.290000000000000091,-22.813526885026568891
0.291000000000000092,-23.105524823546979007
0.292000000000000093,-23.375474871618184380
0.293000000000000094,-23.623582991641402629
0.294000000000000095,-23.850113839692312467
0.295000000000000095,-24.055387968419150724
0.296000000000000096,-24.239778718903625787
0.297000000000000097,-24.403708856516654890
0.298000000000000098,-24.547647002736418642
0.299000000000000099,-24.672103911634735596
0.300000000000000100,-24.777628636339798618
0.301000000000000101,-24.864804627309169405
0.302000000000000102,-24.934245800742157684
0.303000000000000103,-24.986592611971826017
0.304000000000000103,-25.022508165236128974
0.305000000000000104,-25.042674387869201524
0.306000000000000105,-25.047788293701060525
0.307000000000000106,-25.038558357327044490
0.308000000000000107,-25.015701017925714211
0.309000000000000108,-24.979937328475493530
0.310000000000000109,-24.931989763557186990
0.311000000000000110,-24.872579196435964377
0.312000000000000111,-24.802422053797762658
0.313000000000000111,-24.722227654370296790
0.314000000000000112,-24.632695735689093652
0.315000000000000113,-24.534514171470071631
0.316000000000000114,-24.428356880419968888
0.317000000000000115,-24.314881925847135591
0.318000000000000116,-24.194729804124115446
0.319000000000000117,-24.068521918891821798
0.320000000000000118,-23.936859236876010470
0.321000000000000119,-23.800321120303095768
0.322000000000000119,-23.659464330144938771
0.323000000000000120,-23.514822193784333138
0.324000000000000121,-23.366903930165157988
0.325000000000000122,-23.216194125066330400
0.326000000000000123,-23.063152348807737013
0.327000000000000124,-22.908212908452508572
0.328000000000000125,-22.751784726404942205
0.329000000000000126,-22.594251337209680486
0.330000000000000127,-22.435970994328549466
0.331000000000000127,-22.277276878700444485
0.332000000000000128,-22.118477400969105418
0.333000000000000129,-21.959856589389051607
0.334000000000000130,-21.801674555583918647
0.335000000000000131,-21.644168030531083957
0.336000000000000132,-21.487550963373298174
0.337000000000000133,-21.332015175911063665
0.338000000000000134,-21.177731065901816976
0.339000000000000135,-21.024848352581081201
0.340000000000000135,-20.873496858122173592
0.341000000000000136,-20.723787319062292767
0.342000000000000137,-20.575812222040092081
0.343000000000000138,-20.429646658511373403
0.344000000000000139,-20.285349193431621018
0.345000000000000140,-20.142962743216578758
0.346000000000000141,-20.002515458610258037
0.347000000000000142,-19.864021608404925701
0.348000000000000143,-19.727482460266458020
0.349000000000000143,-19.592887155219401052
0.350000000000000144,-19.460213572640405744
0.351000000000000145,-19.329429182892088335
0.352000000000000146,-19.200491885004506543
0.353000000000000147,-19.073350827074904146
0.354000000000000148,-18.947947207309528750
0.355000000000000149,-18.824215053872983106
0.356000000000000150,-18.702081981940629873
0.357000000000000151,-18.581469926567848461
0.358000000000000151,-18.462295850196792202
0.359000000000000152,-18.344472423815570750
0.360000000000000153,-18.227908680968511135
0.361000000000000154,-18.112510643987178582
0.362000000000000155,-17.998181921972168595
0.363000000000000156,-17.884824280204952629
0.364000000000000157,-17.772338180806457331
0.365000000000000158,-17.660623294587871612
0.366000000000000159,-17.549578984155306927
0.367000000000000159,-17.439104758438272569
0.368000000000000160,-17.329100698909840617
0.369000000000000161,-17.219467857854944270
0.370000000000000162,-17.110108629123928381
0.371000000000000163,-17.000927091880274844
0.372000000000000164,-16.891829327915253600
0.373000000000000165,-16.782723713159214185
0.374000000000000166,-16.673521184068427203
0.375000000000000167,-16.564135479609173984
0.376000000000000167,-16.454483359597741554
0.377000000000000168,-16.344484800184957862
0.378000000000000169,-16.234063167299630948
0.379000000000000170,-16.123145368885023032
0.380000000000000171,-16.011661986777550482
0.381000000000000172,-15.899547389088104055
0.382000000000000173,-15.786739823952450124
0.383000000000000174,-15.673181495520953632
0.384000000000000175,-15.558818623056396291
0.385000000000000175,-15.443601484005672120
0.386000000000000176,-15.327484441904250190
0.387000000000000177,-15.210425959963018272
0.388000000000000178,-15.092388601175963814
0.389000000000000179,-14.973339015772967997
0.390000000000000180,-14.853247916826987307
0.391000000000000181,-14.732090044807231166
0.392000000000000182,-14.609844121851741860
0.393000000000000183,-14.486492796512489889
0.394000000000000183,-14.362022579705307379
0.395000000000000184,-14.236423772575154345
0.396000000000000185,-14.109690386964143016
0.397000000000000186,-13.981820059147102242
0.398000000000000187,-13.852813957475010653
0.399000000000000188,-13.722676684543055003
0.400000000000000189,-13.591416174475469347
0.401000000000000190,-13.459043585894729489
0.402000000000000191,-13.325573191118596839
0.403000000000000191,-13.191022262103482277
0.404000000000000192,-13.055410953628751258
0.405000000000000193,-12.918762184192175368
0.406000000000000194,-12.781101515063040708
0.407000000000000195,-12.642457027916055523
0.408000000000000196,-12.502859201445676973
0.409000000000000197,-12.362340787338244041
0.410000000000000198,-12.220936685956957035
0.411000000000000199,-12.078683822072891374
0.412000000000000199,-11.935621020954297222
0.413000000000000200,-11.791788885105836115
0.414000000000000201,-11.647229671929395067
0.415000000000000202,-11.501987172558582273
0.416000000000000203,-11.356106592100747577
0.417000000000000204,-11.209634431501546814
0.418000000000000205,-11.062618371230357184
0.419000000000000206,-10.915107156967518875
0.420000000000000207,-10.767150487458279073
0.421000000000000207,-10.618798904683202977
0.422000000000000208,-10.470103686479260929
0.423000000000000209,-10.321116741732357269
0.424000000000000210,-10.171890508247825480
0.425000000000000211,-10.022477853392874891
0.426000000000000212,-9.872931977592518393
0.427000000000000213,-9.723306320748736908
0.428000000000000214,-9.573654471641717123
0.429000000000000214,-9.424030080361180950
0.430000000000000215,-9.274486773806156492
0.431000000000000216,-9.125078074282104268
0.432000000000000217,-8.975857321215205076
0.433000000000000218,-8.826877595995714643
0.434000000000000219,-8.678191649954175801
0.435000000000000220,-8.529851835467194832
0.436000000000000221,-8.381910040182482646
0.437000000000000222,-8.234417624346683340
0.438000000000000222,-8.087425361213572472
0.439000000000000223,-7.940983380504721190
0.440000000000000224,-7.795141114889692524
0.441000000000000225,-7.649947249448091569
0.442000000000000226,-7.505449674071964061
0.443000000000000227,-7.361695438762413168
0.444000000000000228,-7.218730711771513597
0.445000000000000229,-7.076600740536957979
0.446000000000000230,-6.935349815354062919
0.447000000000000230,-6.795021235727409348
0.448000000000000231,-6.655657279341829380
0.449000000000000232,-6.517299173590560990
0.450000000000000233,-6.379987069596836591
0.451000000000000234,-6.243760018663310873
0.452000000000000235,-6.108655951082869962
0.453000000000000236,-5.974711657242955276
0.454000000000000237,-5.841962770955158923
0.455000000000000238,-5.710443754940692784
0.456000000000000238,-5.580187888402432073
0.457000000000000239,-5.451227256613465855
0.458000000000000240,-5.323592742452506243
0.459000000000000241,-5.197314019815925334
0.460000000000000242,-5.072419548837115322
0.461000000000000243,-4.948936572843465775
0.462000000000000244,-4.826891116982348962
0.463000000000000245,-4.706307988447385071
0.464000000000000246,-4.587210778237645670
0.465000000000000246,-4.469621864382637533
0.466000000000000247,-4.353562416567013926
0.467000000000000248,-4.239052402089787286
0.468000000000000249,-4.126110593094026058
0.469000000000000250,-4.014754575003712134
0.470000000000000251,-3.905000756105971416
0.471000000000000252,-3.796864378217629898
0.472000000000000253,-3.690359528376800480
0.473000000000000254,-3.585499151500921133
0.474000000000000254,-3.482295063954360614
0.475000000000000255,-3.380757967969894473
0.476000000000000256,-3.280897466869649115
0.477000000000000257,-3.182722081032726358
0.478000000000000258,-3.086239264557766759
0.479000000000000259,-2.991455422570496570
0.480000000000000260,-2.898375929127479544
0.481000000000000261,-2.807005145668724833
0.482000000000000262,-2.717346439973496341
0.483000000000000262,-2.629402205574739249
0.484000000000000263,-2.543173881589238849
0.485000000000000264,-2.458661972921923677
0.486000000000000265,-2.375866070804240948
0.487000000000000266,-2.294784873627819799
0.488000000000000267,-2.215416208036089074
0.489000000000000268,-2.137757050238052070
0.490000000000000269,-2.061803547509393209
0.491000000000000270,-1.987551039847991863
0.492000000000000270,-1.914994081751664412
0.493000000000000271,-1.844126464087818773
0.494000000000000272,-1.774941236025532998
0.495000000000000273,-1.707430727002116289
0.496000000000000274,-1.641586568697469328
0.497000000000000275,-1.577399716990475209
0.498000000000000276,-1.514860473873308688
0.499000000000000277,-1.453958509300305568
0.500000000000000222,-1.394682882949423997
0.501000000000000334,-1.337022065875349774
0.502000000000000224,-1.280963962034519898
0.503000000000000336,-1.226495929663048656
0.504000000000000226,-1.173604802490201715
0.505000000000000338,-1.122276910770261926
0.506000000000000227,-1.072498102117547480
0.507000000000000339,-1.024253762129278211
0.508000000000000229,-0.977528834782901868
0.509000000000000341,-0.932307842594553571
0.510000000000000231,-0.888574906526928388
0.511000000000000343,-0.846313765634933546
0.512000000000000233,-0.805507796439053791
0.513000000000000345,-0.766140032016515482
0.514000000000000234,-0.728193180801702367
0.515000000000000346,-0.691649645087277776
0.516000000000000236,-0.656491539219022147
0.517000000000000348,-0.622700707477350623
0.518000000000000238,-0.590258741639597462
0.519000000000000350,-0.559146998217552538
0.520000000000000240,-0.529346615365493989
0.521000000000000352,-0.500838529454427972
0.522000000000000242,-0.473603491308884295
0.523000000000000353,-0.447622082103147467
0.524000000000000243,-0.422874728914297116
0.525000000000000355,-0.399341719929910521
0.526000000000000245,-0.377003219308887361
0.527000000000000357,-0.355839281694042886
0.528000000000000247,-0.335829866375914332
0.529000000000000359,-0.316954851107212332
0.530000000000000249,-0.299194045568181632
0.531000000000000361,-0.282527204483103922
0.532000000000000250,-0.266934040388888350
0.533000000000000362,-0.252394236056705412
0.534000000000000252,-0.238887456568191825
0.535000000000000364,-0.226393361047967284
0.536000000000000254,-0.214891614054412150
0.537000000000000366,-0.204361896631028772
0.538000000000000256,-0.194783917020980579
0.539000000000000368,-0.186137421047464668
0.540000000000000258,-0.178402202163074064
0.541000000000000369,-0.171558111171220967
0.542000000000000259,-0.165585065623133409
0.543000000000000371,-0.160463058893938582
0.544000000000000261,-0.156172168941688227
0.545000000000000373,-0.152692566753126036
0.546000000000000263,-0.150004524480359780
0.547000000000000375,-0.148088423272603076
0.548000000000000265,-0.146924760807285504
0.549000000000000377,-0.146494158525021095
0.550000000000000266,-0.146777368572881650
0.551000000000000378,-0.147755280460725807
0.552000000000000268,-0.149408927435184913
0.553000000000000380,-0.151719492576151860
0.554000000000000270,-0.154668314620611647
0.555000000000000382,-0.158236893518723415
0.556000000000000272,-0.162406895727119915
0.557000000000000384,-0.167160159244372081
0.558000000000000274,-0.172478698393766477
0.559000000000000385,-0.178344708358325776
0.560000000000000275,-0.184740569473249572
0.561000000000000387,-0.191648851280852961
0.562000000000000277,-0.199052316353038550
0.563000000000000389,-0.206933923886542637
0.564000000000000279,-0.215276833075927682
0.565000000000000391,-0.224064406269550181
0.566000000000000281,-0.233280211913425461
0.567000000000000393,-0.242908027288248840
0.568000000000000282,-0.252931841044475747
0.569000000000000394,-0.263335855540568153
0.570000000000000284,-0.274104488989297568
0.571000000000000396,-0.285222377417243489
0.572000000000000286,-0.296674376442221444
0.573000000000000398,-0.308445562873639834
0.574000000000000288,-0.320521236140547838
0.575000000000000400,-0.332886919552317639
0.576000000000000290,-0.345528361396468586
0.577000000000000401,-0.358431535878595109
0.578000000000000291,-0.371582643908842158
0.579000000000000403,-0.384968113739610929
0.580000000000000293,-0.398574601458991429
0.581000000000000405,-0.412388991344479927
0.582000000000000295,-0.426398396081213271
0.583000000000000407,-0.440590156849309522
0.584000000000000297,-0.454951843284362112
0.585000000000000409,-0.469471253315552617
0.586000000000000298,-0.484136412885281531
0.587000000000000410,-0.498935575554691368
0.588000000000000300,-0.513857221998826441
0.589000000000000412,-0.528890059395639378
0.590000000000000302,-0.544023020712504080
0.591000000000000414,-0.559245263894294298
0.592000000000000304,-0.574546170956523272
0.593000000000000416,-0.589915346987443523
0.594000000000000306,-0.605342619062575360
0.595000000000000417,-0.620818035075306862
0.596000000000000307,-0.636331862486887889
0.597000000000000419,-0.651874586999406702
0.598000000000000309,-0.667436911154956958
0.599000000000000421,-0.683009752864217723
0.600000000000000311,-0.698584243867768961
0.601000000000000423,-0.714151728133165520
0.602000000000000313,-0.729703760190802075
0.603000000000000425,-0.745232103411635149
0.604000000000000314,-0.760728728229583817
0.605000000000000426,-0.776185810311525892
0.606000000000000316,-0.791595728677595201
0.607000000000000428,-0.806951063774529409
0.608000000000000318,-0.822244595504705744
0.609000000000000430,-0.837469301213455752
0.610000000000000320,-0.852618353637069282
0.611000000000000432,-0.867685118814118028
0.612000000000000322,-0.882663153962249369
0.613000000000000433,-0.897546205322975910
0.614000000000000323,-0.912328205976574935
0.615000000000000435,-0.927003273629379621
0.616000000000000325,-0.941565708375483035
0.617000000000000437,-0.956009990435087609
0.618000000000000327,-0.970330777871336814
0.619000000000000439,-0.984522904287716605
0.620000000000000329,-0.998581376507848617
0.621000000000000441,-1.012501372239536401
0.622000000000000330,-1.026278237724850939
0.623000000000000442,-1.039907485378001262
0.624000000000000332,-1.053384791412569577
0.625000000000000444,-1.066705993459914348
0.626000000000000334,-1.079867088180085144
0.627000000000000446,-1.092864228866973209
0.628000000000000336,-1.105693723049014254
0.629000000000000448,-1.118352030086956050
0.630000000000000338,-1.130835758769974220
0.631000000000000449,-1.143141664911579980
0.632000000000000339,-1.155266648946449148
0.633000000000000451,-1.167207753529522440
0.634000000000000341,-1.178962161138456421
0.635000000000000453,-1.190527191680726293
0.636000000000000343,-1.201900300106209851
0.637000000000000455,-1.213079074026665483
0.638000000000000345,-1.224061231342737255
0.639000000000000457,-1.234844617879795159
0.640000000000000346,-1.245427205033285301
0.641000000000000458,-1.255807087424701818
0.642000000000000348,-1.265982480568830892
0.643000000000000460,-1.275951718553289371
0.644000000000000350,-1.285713251730971063
0.645000000000000462,-1.295265644426299545
0.646000000000000352,-1.304607572655855696
0.647000000000000464,-1.313737821864227273
0.648000000000000353,-1.322655284675565479
0.649000000000000465,-1.331358958661622793
0.650000000000000355,-1.339847944126726142
0.651000000000000467,-1.348121441910340668
0.652000000000000357,-1.356178751207714583
0.653000000000000469,-1.364019267409086966
0.654000000000000359,-1.371642479957990046
0.655000000000000471,-1.379047970229029918
0.656000000000000361,-1.386235409425581322
0.657000000000000473,-1.393204556497849023
0.658000000000000362,-1.399955256081569344
0.659000000000000474,-1.406487436457764195
