# Ce-001_CS-7021-AC
# h[nm],U(h)[kJ/mol]
0.200000000000000011,101.856914174309594046
0.201000000000000012,96.546205738412709252
0.202000000000000013,92.982408854154613209
0.203000000000000014,90.263999873159079357
0.204000000000000015,87.869446102570421431
0.205000000000000016,85.522703448120992675
0.206000000000000016,83.100291289294716535
0.207000000000000017,80.568372270177448513
0.208000000000000018,77.941234739333054904
0.209000000000000019,75.254829499890178113
0.210000000000000020,72.550714950477583898
0.211000000000000021,69.867043726941886916
0.212000000000000022,67.234179092722769155
0.213000000000000023,64.673237660943101446
0.214000000000000024,62.196376132572027018
0.215000000000000024,59.808019499280099751
0.216000000000000025,57.506501835113034815
0.217000000000000026,55.285785360512321063
0.218000000000000027,53.137059461839271535
0.219000000000000028,51.050114384351388708
0.220000000000000029,49.014446156209615424
0.221000000000000030,47.020088775702859607
0.222000000000000031,45.058193382932657300
0.223000000000000032,43.121386904093881753
0.224000000000000032,41.203948062215680181
0.225000000000000033,39.301839270655982261
0.226000000000000034,37.412630605026777175
0.227000000000000035,35.535348076370937065
0.228000000000000036,33.670273688227652542
0.229000000000000037,31.818719840792947906
0.230000000000000038,29.982795920312234728
0.231000000000000039,28.165180602099418650
0.232000000000000040,26.368909615570089500
0.233000000000000040,24.597185511289815452
0.234000000000000041,22.853213327524411369
0.235000000000000042,21.140063941739246189
0.236000000000000043,19.460565258626917995
0.237000000000000044,17.817220170265354540
0.238000000000000045,16.212149363643536759
0.239000000000000046,14.647056485733980224
0.240000000000000047,13.123212850563742649
0.241000000000000048,11.641458736074856262
0.242000000000000048,10.202218326950275085
0.243000000000000049,8.805525475338139785
0.244000000000000050,7.451057642950904558
0.245000000000000051,6.138175629358258334
0.246000000000000052,4.865966961540021174
0.247000000000000053,3.633291102430997288
0.248000000000000054,2.438824918649072693
0.249000000000000055,1.281107120457960935
0.250000000000000056,0.158580643590932990
0.251000000000000056,-0.930367821617451241
0.252000000000000057,-1.987371735969795994
0.253000000000000058,-3.014052446544090547
0.254000000000000059,-4.011990983043602910
0.255000000000000060,-4.982704008765264980
0.256000000000000061,-5.927623904303477964
0.257000000000000062,-6.848082868324588901
0.258000000000000063,-7.745300845614939256
0.259000000000000064,-8.620377036125130843
0.260000000000000064,-9.474284697862694671
0.261000000000000065,-10.307868929204426323
0.262000000000000066,-11.121847100568986733
0.263000000000000067,-11.916811599572035618
0.264000000000000068,-12.693234556088421883
0.265000000000000069,-13.451474222520221957
0.266000000000000070,-14.191782698622342096
0.267000000000000071,-14.914314708240732799
0.268000000000000071,-15.619137156185956883
0.269000000000000072,-16.306239216268558323
0.270000000000000073,-16.975542725463864002
0.271000000000000074,-17.626912683585487684
0.272000000000000075,-18.260167682177904425
0.273000000000000076,-18.875090110139559840
0.274000000000000077,-19.471436006508003658
0.275000000000000078,-20.048944452603173261
0.276000000000000079,-20.607346416135179368
0.277000000000000079,-21.146372978800837217
0.278000000000000080,-21.665762896228894618
0.279000000000000081,-22.165269454850779596
0.280000000000000082,-22.644666604359745321
0.281000000000000083,-23.103754356905447764
0.282000000000000084,-23.542363455096882774
0.283000000000000085,-23.960359320322183407
0.284000000000000086,-24.357645300919084974
0.285000000000000087,-24.734165246431384588
0.286000000000000087,-25.089905439664615727
0.287000000000000088,-25.424895922605220022
0.288000000000000089,-25.739211255593573924
0.289000000000000090,-26.032970751544411314
0.290000000000000091,-26.306338228583364014
0.291000000000000092,-26.559521325315966322
0.292000000000000093,-26.792770423150763293
0.293000000000000094,-27.006377219751414032
0.294000000000000095,-27.200672996871862352
0.295000000000000095,-27.376026624610261706
0.296000000000000096,-27.532842342568795146
0.297000000000000097,-27.671557356591808485
0.298000000000000098,-27.792639287730725783
0.299000000000000099,-27.896583507902466437
0.300000000000000100,-27.983910394413562983
0.301000000000000101,-28.055162533157833593
0.302000000000000102,-28.110901897893747048
0.303000000000000103,-28.151707030602828752
0.304000000000000103,-28.178170245546436234
0.305000000000000104,-28.190894877299903953
0.306000000000000105,-28.190492590767973979
0.307000000000000106,-28.177580768989606952
0.308000000000000107,-28.152779992436546053
0.309000000000000108,-28.116711621508027719
0.310000000000000109,-28.069995492031260653
0.311000000000000110,-28.013247731798315954
0.312000000000000111,-27.947078704510055047
0.313000000000000111,-27.872091085955609913
0.314000000000000112,-27.788878075834581693
0.315000000000000113,-27.698021747325459074
0.316000000000000114,-27.600091535317453406
0.317000000000000115,-27.495642863149196700
0.318000000000000116,-27.385215906734650559
0.319000000000000117,-27.269334494098593780
0.320000000000000118,-27.148505137587317648
0.321000000000000119,-27.023216195358934044
0.322000000000000119,-26.893937158187291914
0.323000000000000120,-26.761118057128005177
0.324000000000000121,-26.625188987189169154
0.325000000000000122,-26.486559741817721658
0.326000000000000123,-26.345619552748622993
0.327000000000000124,-26.202736929563847923
0.328000000000000125,-26.058259593165654877
0.329000000000000126,-25.912514497278429815
0.330000000000000127,-25.765807932050609708
0.331000000000000127,-25.618425703829490914
0.332000000000000128,-25.470633385219176859
0.333000000000000129,-25.322676629605822995
0.334000000000000130,-25.174781544435656855
0.335000000000000131,-25.027155117661170181
0.336000000000000132,-24.879985691920786905
0.337000000000000133,-24.733443481188380986
0.338000000000000134,-24.587681124814860567
0.339000000000000135,-24.442834274083690360
0.340000000000000135,-24.299022206611866181
0.341000000000000136,-24.156348464146368826
0.342000000000000137,-24.014901509529501311
0.343000000000000138,-23.874755398834860642
0.344000000000000139,-23.735970464905058464
0.345000000000000140,-23.598594008753536855
0.346000000000000141,-23.462660995521201102
0.347000000000000142,-23.328194751906586646
0.348000000000000143,-23.195207662211711153
0.349000000000000143,-23.063701860365181773
0.350000000000000144,-22.933669915498441583
0.351000000000000145,-22.805095508859164255
0.352000000000000146,-22.677954100047763575
0.353000000000000147,-22.552213580757360489
0.354000000000000148,-22.427834914385066156
0.355000000000000149,-22.304772760061673864
0.356000000000000150,-22.182976079818395476
0.357000000000000151,-22.062388727772479058
0.358000000000000151,-21.942950020368684250
0.359000000000000152,-21.824595286859882037
0.360000000000000153,-21.707256399348892728
0.361000000000000154,-21.590862281843421044
0.362000000000000155,-21.475339397898029148
0.363000000000000156,-21.360612216531102092
0.364000000000000157,-21.246603656210488964
0.365000000000000158,-21.133235506800687631
0.366000000000000159,-21.020428829454509412
0.367000000000000159,-20.908104334516529832
0.368000000000000160,-20.796182737582334710
0.369000000000000161,-20.684585093927541521
0.370000000000000162,-20.573233111584237065
0.371000000000000163,-20.462049443400253779
0.372000000000000164,-20.350957958467837727
0.373000000000000165,-20.239883993354887082
0.374000000000000166,-20.128754583612117557
0.375000000000000167,-20.017498676065550001
0.376000000000000167,-19.906047322434520908
0.377000000000000168,-19.794333854841948295
0.378000000000000169,-19.682294043805665495
0.379000000000000170,-19.569866239318308487
0.380000000000000171,-19.456991495637609546
0.381000000000000172,-19.343613680420311596
0.382000000000000173,-19.229679568840762016
0.383000000000000174,-19.115138923340957433
0.384000000000000175,-18.999944559660281840
0.385000000000000175,-18.884052399793905153
0.386000000000000176,-18.767421512526080818
0.387000000000000177,-18.650014142179820453
0.388000000000000178,-18.531795726218813769
0.389000000000000179,-18.412734902328455888
0.390000000000000180,-18.292803505593873581
0.391000000000000181,-18.171976556381668644
0.392000000000000182,-18.050232239519647948
0.393000000000000183,-17.927551875355714373
0.394000000000000183,-17.803919883262853574
0.395000000000000184,-17.679323738141924593
0.396000000000000185,-17.553753920458266435
0.397000000000000186,-17.427203860331921703
0.398000000000000187,-17.299669876184296413
0.399000000000000188,-17.171151108426862208
0.400000000000000189,-17.041649448660351140
0.401000000000000190,-16.911169464834628684
0.402000000000000191,-16.779718322802420261
0.403000000000000191,-16.647305704681325977
0.404000000000000192,-16.513943724421487502
0.405000000000000193,-16.379646840957924780
0.406000000000000194,-16.244431769309308322
0.407000000000000195,-16.108317389967204747
0.408000000000000196,-15.971324656902641692
0.409000000000000197,-15.833476504499813586
0.410000000000000198,-15.694797753710210131
0.411000000000000199,-15.555315017703705394
0.412000000000000199,-15.415056607277369594
0.413000000000000200,-15.274052436267092858
0.414000000000000201,-15.132333927191785605
0.415000000000000202,-14.989933917344782088
0.416000000000000203,-14.846886565533361946
0.417000000000000204,-14.703227259652365433
0.418000000000000205,-14.558992525265125551
0.419000000000000206,-14.414219935351473723
0.420000000000000207,-14.268948021369812551
0.421000000000000207,-14.123216185768615816
0.422000000000000208,-13.977064616070194347
0.423000000000000209,-13.830534200639288400
0.424000000000000210,-13.683666446237378267
0.425000000000000211,-13.536503397453836683
0.426000000000000212,-13.389087558095056352
0.427000000000000213,-13.241461814603104230
0.428000000000000214,-13.093669361566758980
0.429000000000000214,-12.945753629378989658
0.430000000000000215,-12.797758214086936590
0.431000000000000216,-12.649726809472952027
0.432000000000000217,-12.501703141397491947
0.433000000000000218,-12.353730904428353199
0.434000000000000219,-12.205853700773777959
0.435000000000000220,-12.058114981531227627
0.436000000000000221,-11.910557990257530037
0.437000000000000222,-11.763225708860932883
0.438000000000000222,-11.616160805810590517
0.439000000000000223,-11.469405586654156437
0.440000000000000224,-11.323001946829840847
0.441000000000000225,-11.176991326755164380
0.442000000000000226,-11.031414669171148546
0.443000000000000227,-10.886312378716661797
0.444000000000000228,-10.741724283705014642
0.445000000000000229,-10.597689600071566574
0.446000000000000230,-10.454246897458514098
0.447000000000000230,-10.311434067400757186
0.448000000000000231,-10.169288293574300752
0.449000000000000232,-10.027846024066668917
0.450000000000000233,-9.887142945627388713
0.451000000000000234,-9.747213959854418519
0.452000000000000235,-9.608093161271652249
0.453000000000000236,-9.469813817250836152
0.454000000000000237,-9.332408349730815900
0.455000000000000238,-9.195908318685482641
0.456000000000000238,-9.060344407291779589
0.457000000000000239,-8.925746408747865956
0.458000000000000240,-8.792143214691806818
0.459000000000000241,-8.659562805170105904
0.460000000000000242,-8.528032240105980932
0.461000000000000243,-8.397577652216480004
0.462000000000000244,-8.268224241328285373
0.463000000000000245,-8.139996270041374160
0.464000000000000246,-8.012917060690813997
0.465000000000000246,-7.887008993556564818
0.466000000000000247,-7.762293506271919163
0.467000000000000248,-7.638791094381512714
0.468000000000000249,-7.516521313000554372
0.469000000000000250,-7.395502779527231674
0.470000000000000251,-7.275753177361233170
0.471000000000000252,-7.157289260581563894
0.472000000000000253,-7.040126859538240467
0.473000000000000254,-6.924280887312500354
0.474000000000000254,-6.809765347001524916
0.475000000000000255,-6.696593339784323362
0.476000000000000256,-6.584777073726234775
0.477000000000000257,-6.474327873280705248
0.478000000000000258,-6.365256189447509705
0.479000000000000259,-6.257571610547977947
0.480000000000000260,-6.151282873578479027
0.481000000000000261,-6.046397876104387947
0.482000000000000262,-5.942923688658042991
0.483000000000000262,-5.840866567604836135
0.484000000000000263,-5.740231968442835786
0.485000000000000264,-5.641024559502235469
0.486000000000000265,-5.543248236012046526
0.487000000000000266,-5.446906134502313535
0.488000000000000267,-5.352000647511208520
0.489000000000000268,-5.258533438567526197
0.490000000000000269,-5.166505457419701131
0.491000000000000270,-5.075916955483988247
0.492000000000000270,-4.986767501484868248
0.493000000000000271,-4.899055997262266260
0.494000000000000272,-4.812780693720632996
0.495000000000000273,-4.727939206896216717
0.496000000000000274,-4.644528534119750418
0.497000000000000275,-4.562545070252445711
0.498000000000000276,-4.481984623974472726
0.499000000000000277,-4.402842434105717295
0.500000000000000222,-4.325113185939519767
0.501000000000000334,-4.248791027571084733
0.502000000000000224,-4.173869586203055704
0.503000000000000336,-4.100341984411265628
0.504000000000000226,-4.028200856355176107
0.505000000000000338,-3.957438363917328505
0.506000000000000227,-3.888046212758038855
0.507000000000000339,-3.820015668271099063
0.508000000000000229,-3.753337571428136066
0.509000000000000341,-3.688002354498983948
0.510000000000000231,-3.624000056637066702
0.511000000000000343,-3.561320339318430062
0.512000000000000233,-3.499952501624768786
0.513000000000000345,-3.439885495360486711
0.514000000000000234,-3.381107939995339873
0.515000000000000346,-3.323608137423787579
0.516000000000000236,-3.267374086533891386
0.517000000000000348,-3.212393497578115209
0.518000000000000238,-3.158653806339721815
0.519000000000000350,-3.106142188088391709
0.520000000000000240,-3.054845571319691366
0.521000000000000352,-3.004750651273080386
0.522000000000000242,-2.955843903223937197
0.523000000000000353,-2.908111595545302297
0.524000000000000243,-2.861539802535685073
0.525000000000000355,-2.816114417009454307
0.526000000000000245,-2.771821162647060799
0.527000000000000357,-2.728645606102283683
0.528000000000000247,-2.686573168864632599
0.529000000000000359,-2.645589138874742119
0.530000000000000249,-2.605678681891584247
0.531000000000000361,-2.566826852610069043
0.532000000000000250,-2.529018605528450259
0.533000000000000362,-2.492238805564719328
0.534000000000000252,-2.456472238421929077
0.535000000000000364,-2.421703620702355231
0.536000000000000254,-2.387917609770807026
0.537000000000000366,-2.355098813367473287
0.538000000000000256,-2.323231798971296946
0.539000000000000368,-2.292301102914494404
0.540000000000000258,-2.262291239249774488
0.541000000000000369,-2.233186708371238449
0.542000000000000259,-2.204972005390875900
0.543000000000000371,-2.177631628272084008
0.544000000000000261,-2.151150085722357996
0.545000000000000373,-2.125511904847001254
0.546000000000000263,-2.100701638566238039
0.547000000000000375,-2.076703872797876826
0.548000000000000265,-2.053503233408219941
0.549000000000000377,-2.031084392933557137
0.550000000000000266,-2.009432077075138601
0.551000000000000378,-1.988531070970316339
0.552000000000000268,-1.968366225242812906
0.553000000000000380,-1.948922461835016495
0.554000000000000270,-1.930184779625490510
0.555000000000000382,-1.912138259834682330
0.556000000000000272,-1.894768071222215244
0.557000000000000384,-1.878059475078785567
0.558000000000000274,-1.861997830016281608
0.559000000000000385,-1.846568596559184483
0.560000000000000275,-1.831757341540913853
0.561000000000000387,-1.817549742308389282
0.562000000000000277,-1.803931590738363955
0.563000000000000389,-1.790888797069007721
0.564000000000000279,-1.778407393550295978
0.565000000000000391,-1.766473537916708469
0.566000000000000281,-1.755073516685786927
0.567000000000000393,-1.744193748286155365
0.568000000000000282,-1.733820786018579696
0.569000000000000394,-1.723941320853543235
0.570000000000000284,-1.714542184069018926
0.571000000000000396,-1.705610349731931930
0.572000000000000286,-1.697132937026920363
0.573000000000000398,-1.689097212435837658
0.574000000000000288,-1.681490591771609644
0.575000000000000400,-1.674300642069973533
0.576000000000000290,-1.667515083342453908
0.577000000000000401,-1.661121790194195258
0.578000000000000291,-1.655108793310010373
0.579000000000000403,-1.649464280812027450
0.580000000000000293,-1.644176599492407576
0.581000000000000405,-1.639234255924431283
0.582000000000000295,-1.634625917455249988
0.583000000000000407,-1.630340413083665840
0.584000000000000297,-1.626366734226085686
0.585000000000000409,-1.622694035373983823
0.586000000000000298,-1.619311634645916653
0.587000000000000410,-1.616209014237339314
0.588000000000000300,-1.613375820771231872
0.589000000000000412,-1.610801865552638601
0.590000000000000302,-1.608477124730078200
0.591000000000000414,-1.606391739366885618
0.592000000000000304,-1.604536015425262363
0.593000000000000416,-1.602900423666033802
0.594000000000000306,-1.601475599466893440
0.595000000000000417,-1.600252342561927721
0.596000000000000307,-1.599221616705106097
0.597000000000000419,-1.598374549260523025
0.598000000000000309,-1.597702430721992028
0.599000000000000421,-1.597196714164499154
0.600000000000000311,-1.596849014630233432
0.601000000000000423,-1.596651108451545342
0.602000000000000313,-1.596594932513371035
0.603000000000000425,-1.596672583457456662
0.604000000000000314,-1.596876316830841969
0.605000000000000426,-1.597198546180775836
0.606000000000000316,-1.597631842098462096
0.607000000000000428,-1.598168931213709065
0.608000000000000318,-1.598802695142787167
0.609000000000000430,-1.599526169391509045
0.610000000000000320,-1.600332542215633369
0.611000000000000432,-1.601215153440651573
0.612000000000000322,-1.602167493242863783
0.613000000000000433,-1.603183200893745219
0.614000000000000323,-1.604256063469456706
0.615000000000000435,-1.605380014527342469
0.616000000000000325,-1.606549132751187825
0.617000000000000437,-1.607757640567056168
0.618000000000000327,-1.608999902731331089
0.619000000000000439,-1.610270424892672469
0.620000000000000329,-1.611563852129514363
0.621000000000000441,-1.612874967464648979
0.622000000000000330,-1.614198690358462640
0.623000000000000442,-1.615530075182314729
0.624000000000000332,-1.616864309673468059
0.625000000000000444,-1.618196713373091011
0.626000000000000334,-1.619522736048558453
0.627000000000000446,-1.620837956101530253
0.628000000000000336,-1.622138078962998664
0.629000000000000448,-1.623418935476618641
0.630000000000000338,-1.624676480271509238
0.631000000000000449,-1.625906790125748014
0.632000000000000339,-1.627106062321667990
0.633000000000000451,-1.628270612994083821
0.634000000000000341,-1.629396875472514550
0.635000000000000453,-1.630481398618511379
0.636000000000000343,-1.631520845158934474
0.637000000000000455,-1.632511990016404457
0.638000000000000345,-1.633451718637598749
0.639000000000000457,-1.634337025320526049
0.640000000000000346,-1.635165011541518609
0.641000000000000458,-1.635932884282886635
0.642000000000000348,-1.636637954361954694
0.643000000000000460,-1.637277634762374534
0.644000000000000350,-1.637849438968400406
0.645000000000000462,-1.638350979302900967
0.646000000000000352,-1.638779965269765437
0.647000000000000464,-1.639134201901460086
0.648000000000000353,-1.639411588112300588
0.649000000000000465,-1.639610115058125484
0.650000000000000355,-1.639727864502954047
0.651000000000000467,-1.639763007193182132
0.652000000000000357,-1.639713801239918167
0.653000000000000469,-1.639578590509914946
0.654000000000000359,-1.639355803025700720
0.655000000000000471,-1.639043949375277531
0.656000000000000361,-1.638641621131939230
0.657000000000000473,-1.638147489284608183
0.658000000000000362,-1.637560302679119006
