# Ce-001_CS-7720-AC
# h[nm],U(h)[kJ/mol]
0.200000000000000011,91.806377054997639675
0.201000000000000012,85.654731242521549461
0.202000000000000013,82.326310147822169938
0.203000000000000014,80.289924517126451065
0.204000000000000015,78.679158289402607807
0.205000000000000016,77.050884445274462564
0.206000000000000016,75.220271470813116821
0.207000000000000017,73.150483334792596679
0.208000000000000018,70.880999515611691209
0.209000000000000019,68.482794273428851284
0.210000000000000020,66.031847395194816386
0.211000000000000021,63.594868409386435815
0.212000000000000022,61.222900654606760895
0.213000000000000023,58.949782935602229372
0.214000000000000024,56.793401760918342802
0.215000000000000024,54.758355820743553011
0.216000000000000025,52.839144670362259149
0.217000000000000026,51.023337360537453833
0.218000000000000027,49.294413186840152719
0.219000000000000028,47.634125293984467930
0.220000000000000029,46.024340616828801842
0.221000000000000030,44.448372948360528767
0.222000000000000031,42.891861874120976950
0.223000000000000032,41.343267725618325414
0.224000000000000032,39.794057958681385401
0.225000000000000033,38.238658003569760524
0.226000000000000034,36.674232851336945771
0.227000000000000035,35.100356625220982210
0.228000000000000036,33.518617597754300164
0.229000000000000037,31.932196489875472878
0.230000000000000038,30.345446990858810921
0.231000000000000039,28.763499570829292651
0.232000000000000040,27.191902947775627553
0.233000000000000040,25.636312028890682058
0.234000000000000041,24.102226709623437273
0.235000000000000042,22.594782478964891226
0.236000000000000043,21.118591221570738981
0.237000000000000044,19.677628795536445949
0.238000000000000045,18.275164771352987003
0.239000000000000046,16.913729024076804563
0.240000000000000047,15.595109570409368516
0.241000000000000048,14.320376042065674937
0.242000000000000048,13.089923407063176697
0.243000000000000049,11.903530925074708335
0.244000000000000050,10.760431797586059943
0.245000000000000051,9.659389504945817606
0.246000000000000052,8.598777376691250751
0.247000000000000053,7.576658493092248037
0.248000000000000054,6.590863545863728135
0.249000000000000055,5.639064781294639062
0.250000000000000056,4.718844601065336875
0.251000000000000056,3.827757799874204725
0.252000000000000057,2.963386772615221432
0.253000000000000058,2.123389327361665302
0.254000000000000059,1.305538995525049817
0.255000000000000060,0.507757940115849182
0.256000000000000061,-0.271857269387409783
0.257000000000000062,-1.035016617424667773
0.258000000000000063,-1.783223843954488075
0.259000000000000064,-2.517769326789659701
0.260000000000000064,-3.239728043083263564
0.261000000000000065,-3.949961988665906976
0.262000000000000066,-4.649126431954242911
0.263000000000000067,-5.337679391548862284
0.264000000000000068,-6.015893750403932039
0.265000000000000069,-6.683871451903013572
0.266000000000000070,-7.341559261971570827
0.267000000000000071,-7.988765624479374772
0.268000000000000071,-8.625178182912225822
0.269000000000000072,-9.250381588187289950
0.270000000000000073,-9.863875259363130255
0.271000000000000074,-10.465090809900306823
0.272000000000000075,-11.053408896311511356
0.273000000000000076,-11.628175287926328707
0.274000000000000077,-12.188715995671227432
0.275000000000000078,-12.734351333941857476
0.276000000000000079,-13.264408822652631770
0.277000000000000079,-13.778234866308149975
0.278000000000000080,-14.275205173448600959
0.279000000000000081,-14.754733903139864992
0.280000000000000082,-15.216281545413892218
0.281000000000000083,-15.659361559864056090
0.282000000000000084,-16.083545811135060433
0.283000000000000085,-16.488468852010480958
0.284000000000000086,-16.873831114397070507
0.285000000000000087,-17.239401075941568564
0.286000000000000087,-17.585016475505689471
0.287000000000000088,-17.910584654474526189
0.288000000000000089,-18.216082103083916621
0.289000000000000090,-18.501553291819039515
0.290000000000000091,-18.767108867638405911
0.291000000000000092,-19.012923293491542864
0.292000000000000093,-19.239232007478296538
0.293000000000000094,-19.446328175194608434
0.294000000000000095,-19.634559105453199379
0.295000000000000095,-19.804322395782484989
0.296000000000000096,-19.956061869998059422
0.297000000000000097,-20.090263365807590645
0.298000000000000098,-20.207450425934723626
0.299000000000000099,-20.308179941706079319
0.300000000000000100,-20.393037793500326416
0.301000000000000101,-20.462634527965771980
0.302000000000000102,-20.517601107516544090
0.303000000000000103,-20.558584763357981018
0.304000000000000103,-20.586244979197353189
0.305000000000000104,-20.601249628892922772
0.306000000000000105,-20.604271287600489870
0.307000000000000106,-20.595983732504787866
0.308000000000000107,-20.577058645983605345
0.309000000000000108,-20.548162531049587898
0.310000000000000109,-20.509953846150086321
0.311000000000000110,-20.463080363877740098
0.312000000000000111,-20.408176755851215489
0.313000000000000111,-20.345862403958602016
0.314000000000000112,-20.276739436310890596
0.315000000000000113,-20.201390984618203817
0.316000000000000114,-20.120379658269484935
0.317000000000000115,-20.034246229155058927
0.318000000000000116,-19.943508520210389889
0.319000000000000117,-19.848660489767183890
0.320000000000000118,-19.750171503062354361
0.321000000000000119,-19.648485781665360861
0.322000000000000119,-19.544022021128022004
0.323000000000000120,-19.437173166826397619
0.324000000000000121,-19.328306337741999243
0.325000000000000122,-19.217762887806550509
0.326000000000000123,-19.105858594402725714
0.327000000000000124,-18.992883963660791125
0.328000000000000125,-18.879104642311034468
0.329000000000000126,-18.764761926032470285
0.330000000000000127,-18.650073354473608589
0.331000000000000127,-18.535233383403220131
0.332000000000000128,-18.420414124768608843
0.333000000000000129,-18.305766145792482291
0.334000000000000130,-18.191419318617970902
0.335000000000000131,-18.077483712411840600
0.336000000000000132,-17.964050520250335552
0.337000000000000133,-17.851193013538967591
0.338000000000000134,-17.738967517149831110
0.339000000000000135,-17.627414398896284808
0.340000000000000135,-17.516559067399878558
0.341000000000000136,-17.406412972836768915
0.342000000000000137,-17.296974605476901132
0.343000000000000138,-17.188230487347308184
0.344000000000000139,-17.080156152758672050
0.345000000000000140,-16.972717113830857016
0.346000000000000141,-16.865869807535613489
0.347000000000000142,-16.759562521143919867
0.348000000000000143,-16.653736293318988970
0.349000000000000143,-16.548325788433679406
0.350000000000000144,-16.443260142012682934
0.351000000000000145,-16.338463775504386888
0.352000000000000146,-16.233857178875453542
0.353000000000000147,-16.129357659791711654
0.354000000000000148,-16.024880058403116578
0.355000000000000149,-15.920337426987606122
0.356000000000000150,-15.815641673929382804
0.357000000000000151,-15.710704171711574517
0.358000000000000151,-15.605436328792000822
0.359000000000000152,-15.499750125403778611
0.360000000000000153,-15.393558613481513220
0.361000000000000154,-15.286776381057251228
0.362000000000000155,-15.179319981601329559
0.363000000000000156,-15.071108328900161055
0.364000000000000157,-14.962063058167547780
0.365000000000000158,-14.852108854179141062
0.366000000000000159,-14.741173747300674535
0.367000000000000159,-14.629189378351266981
0.368000000000000160,-14.516091233303972885
0.369000000000000161,-14.401818848876398960
0.370000000000000162,-14.286315990106626117
0.371000000000000163,-14.169530801043810797
0.372000000000000164,-14.051415929708515051
0.373000000000000165,-13.931928628497633582
0.374000000000000166,-13.811030831220708848
0.375000000000000167,-13.688689207961132865
0.376000000000000167,-13.564875198956773517
0.377000000000000168,-13.439565028689969495
0.378000000000000169,-13.312739701368466072
0.379000000000000170,-13.184384978965805857
0.380000000000000171,-13.054491342972728063
0.381000000000000172,-12.923053940991627186
0.382000000000000173,-12.790072519282510655
0.383000000000000174,-12.655551342343860810
0.384000000000000175,-12.519499100583502127
0.385000000000000175,-12.381928807104959134
0.386000000000000176,-12.242857684603228208
0.387000000000000177,-12.102307043330899461
0.388000000000000178,-11.960302151061764420
0.389000000000000179,-11.816872095943775633
0.390000000000000180,-11.672049643097953009
0.391000000000000181,-11.525871085783423453
0.392000000000000182,-11.378376091912736356
0.393000000000000183,-11.229607546664693629
0.394000000000000183,-11.079611391905801909
0.395000000000000184,-10.928436463095005493
0.396000000000000185,-10.776134324310206125
0.397000000000000186,-10.622759101999891485
0.398000000000000187,-10.468367318027620883
0.399000000000000188,-10.313017722543010635
0.400000000000000189,-10.156771127179036185
0.401000000000000190,-9.999690239042113404
0.402000000000000191,-9.841839495929903592
0.403000000000000191,-9.683284903179643521
0.404000000000000192,-9.524093872520095871
0.405000000000000193,-9.364335063270248227
0.406000000000000194,-9.204078226199763790
0.407000000000000195,-9.043394050338621426
0.408000000000000196,-8.882354012996749759
0.409000000000000197,-8.721030233229321027
0.410000000000000198,-8.559495328958993454
0.411000000000000199,-8.397822277942797342
0.412000000000000199,-8.236084282749390084
0.413000000000000200,-8.074354639891065943
0.414000000000000201,-7.912706613234702147
0.415000000000000202,-7.751213311796492533
0.416000000000000203,-7.589947572007550214
0.417000000000000204,-7.428981844519635835
0.418000000000000205,-7.268388085604669868
0.419000000000000206,-7.108237653186044724
0.420000000000000207,-6.948601207525245016
0.421000000000000207,-6.789548616574466067
0.422000000000000208,-6.631148865992400943
0.423000000000000209,-6.473469973809497624
0.424000000000000210,-6.316578909717540213
0.425000000000000211,-6.160541518948368100
0.426000000000000212,-6.005422450697368575
0.427000000000000213,-5.851285091038512576
0.428000000000000214,-5.698191500270018750
0.429000000000000214,-5.546202354622262298
0.430000000000000215,-5.395376892253050727
0.431000000000000216,-5.245772863449712275
0.432000000000000217,-5.097446484951442258
0.433000000000000218,-4.950452398301214529
0.434000000000000219,-4.804843632131941433
0.435000000000000220,-4.660671568287936495
0.436000000000000221,-4.517985911679447852
0.437000000000000222,-4.376834663765256650
0.438000000000000222,-4.237264099556059094
0.439000000000000223,-4.099318748029305404
0.440000000000000224,-3.963041375844654990
0.441000000000000225,-3.828472974247981941
0.442000000000000226,-3.695652749051303143
0.443000000000000227,-3.564618113574955061
0.444000000000000228,-3.435404684438688072
0.445000000000000229,-3.308046280088029700
0.446000000000000230,-3.182574921942783686
0.447000000000000230,-3.059020838055022118
0.448000000000000231,-2.937412469164766726
0.449000000000000232,-2.817776477042477357
0.450000000000000233,-2.700137755008793050
0.451000000000000234,-2.584519440523157296
0.452000000000000235,-2.470942929734663007
0.453000000000000236,-2.359427893889895600
0.454000000000000237,-2.249992297494682436
0.455000000000000238,-2.142652418128129010
0.456000000000000238,-2.037422867809833171
0.457000000000000239,-1.934316615822746055
0.458000000000000240,-1.833345012896976600
0.459000000000000241,-1.734517816661344636
0.460000000000000242,-1.637843218272617252
0.461000000000000243,-1.543327870134012514
0.462000000000000244,-1.450976914617590818
0.463000000000000245,-1.360794013707034456
0.464000000000000246,-1.272781379480343977
0.465000000000000246,-1.186939805354111144
0.466000000000000247,-1.103268698013635696
0.467000000000000248,-1.021766109955709600
0.468000000000000249,-0.942428772573470575
0.469000000000000250,-0.865252129715038065
0.470000000000000251,-0.790230371650404662
0.471000000000000252,-0.717356469383260142
0.472000000000000253,-0.646622209247236457
0.473000000000000254,-0.578018227728151812
0.474000000000000254,-0.511534046456494140
0.475000000000000255,-0.447158107316695308
0.476000000000000256,-0.384877807622021118
0.477000000000000257,-0.324679535306413469
0.478000000000000258,-0.266548704086638222
0.479000000000000259,-0.210469788550547265
0.480000000000000260,-0.156426359129373610
0.481000000000000261,-0.104401116914013589
0.482000000000000262,-0.054375928277635800
0.483000000000000262,-0.006331859268647344
0.484000000000000263,0.039750790259636126
0.485000000000000264,0.083892452814557053
0.486000000000000265,0.126114259754736086
0.487000000000000266,0.166438008133913906
0.488000000000000267,0.204886127924313849
0.489000000000000268,0.241481649643913610
0.490000000000000269,0.276248172410701209
0.491000000000000270,0.309209832444861110
0.492000000000000270,0.340391272038736259
0.493000000000000271,0.369817609012421500
0.494000000000000272,0.397514406671772902
0.495000000000000273,0.423507644283833085
0.496000000000000274,0.447823688083490989
0.497000000000000275,0.470489262823888033
0.498000000000000276,0.491531423881552965
0.499000000000000277,0.510977529926375795
0.500000000000000222,0.528855216164991315
0.501000000000000334,0.545192368165296259
0.502000000000000224,0.560017096268471404
0.503000000000000336,0.573357710594140313
0.504000000000000226,0.585242696642927274
0.505000000000000338,0.595700691500127721
0.506000000000000227,0.604760460642863373
0.507000000000000339,0.612450875352685387
0.508000000000000229,0.618800890734343079
0.509000000000000341,0.623839524340916052
0.510000000000000231,0.627595835404632596
0.511000000000000343,0.630098904672091065
0.512000000000000233,0.631377814841827867
0.513000000000000345,0.631461631601589302
0.514000000000000234,0.630379385262029523
0.515000000000000346,0.628160052983107398
0.516000000000000236,0.624832541588767887
0.517000000000000348,0.620425670965033205
0.518000000000000238,0.614968158036329648
0.519000000000000350,0.608488601314116750
0.520000000000000240,0.601015466011831978
0.521000000000000352,0.592577069719466443
0.522000000000000242,0.583201568631033229
0.523000000000000353,0.572916944317517496
0.524000000000000243,0.561750991038008074
0.525000000000000355,0.549731303581029063
0.526000000000000245,0.536885265628145980
0.527000000000000357,0.523240038631485604
0.528000000000000247,0.508822551196735362
0.529000000000000359,0.493659488962928328
0.530000000000000249,0.477777284970157257
0.531000000000000361,0.461202110506233609
0.532000000000000250,0.443959866423184746
0.533000000000000362,0.426076174914290451
0.534000000000000252,0.407576371742474020
0.535000000000000364,0.388485498910361771
0.536000000000000254,0.368828297762891666
0.537000000000000366,0.348629202512594383
0.538000000000000256,0.327912334178235176
0.539000000000000368,0.306701494927071605
0.540000000000000258,0.285020162811234434
0.541000000000000369,0.262891486888495507
0.542000000000000259,0.240338282718039226
0.543000000000000371,0.217383028221440455
0.544000000000000261,0.194047859899480202
0.545000000000000373,0.170354569395233385
0.546000000000000263,0.146324600394059284
0.547000000000000375,0.121979045850944656
0.548000000000000265,0.097338645536157911
0.549000000000000377,0.072423783889653134
0.550000000000000266,0.047254488175396271
0.551000000000000378,0.021850426926224881
0.552000000000000268,-0.003769091329473750
0.553000000000000380,-0.029585119068322497
0.554000000000000270,-0.055579070508405104
0.555000000000000382,-0.081732722090387663
0.556000000000000272,-0.108028212711743565
0.557000000000000384,-0.134448043722589838
0.558000000000000274,-0.160975078691449947
0.559000000000000385,-0.187592542949086560
0.560000000000000275,-0.214284022918485861
0.561000000000000387,-0.241033465238976730
0.562000000000000277,-0.267825175692131268
0.563000000000000389,-0.294643817937333019
0.564000000000000279,-0.321474412064309489
0.565000000000000391,-0.348302332970227613
0.566000000000000281,-0.375113308568384318
0.567000000000000393,-0.401893417835826050
0.568000000000000282,-0.428629088706669381
0.569000000000000394,-0.455307095818117069
0.570000000000000284,-0.481914558115630165
0.571000000000000396,-0.508438936324104751
0.572000000000000286,-0.534868030291131835
0.573000000000000398,-0.561189976208824826
0.574000000000000288,-0.587393243720155445
0.575000000000000400,-0.613466632915970589
0.576000000000000290,-0.639399271228225929
0.577000000000000401,-0.665180610225449054
0.578000000000000291,-0.690800422315701490
0.579000000000000403,-0.716248797362605827
0.580000000000000293,-0.741516139219599024
0.581000000000000405,-0.766593162187702792
0.582000000000000295,-0.791470887401518497
0.583000000000000407,-0.816140639148658087
0.584000000000000297,-0.840594041126976776
0.585000000000000409,-0.864823012644526656
0.586000000000000298,-0.888819764766367038
0.587000000000000410,-0.912576796412889690
0.588000000000000300,-0.936086890413533212
0.589000000000000412,-0.959343109520265358
0.590000000000000302,-0.982338792384503945
0.591000000000000414,-1.005067549501577950
0.592000000000000304,-1.027523259126172928
0.593000000000000416,-1.049700063162564811
0.594000000000000306,-1.071592363032964013
0.595000000000000417,-1.093194815527460895
0.596000000000000307,-1.114502328638629525
0.597000000000000419,-1.135510057384139682
0.598000000000000309,-1.156213399620264592
0.599000000000000421,-1.176607991849189849
0.600000000000000311,-1.196689705023021411
0.601000000000000423,-1.216454640347173655
0.602000000000000313,-1.235899125085645034
0.603000000000000425,-1.255019708370881615
0.604000000000000314,-1.273813157020424747
0.605000000000000426,-1.292276451362862399
0.606000000000000316,-1.310406781075135196
0.607000000000000428,-1.328201541033436239
0.608000000000000318,-1.345658327179720670
0.609000000000000430,-1.362774932405800943
0.610000000000000320,-1.379549342456803052
0.611000000000000432,-1.395979731855965467
0.612000000000000322,-1.412064459852255371
0.613000000000000433,-1.427802066392635627
0.614000000000000323,-1.443191268120413540
0.615000000000000435,-1.458230954401219304
0.616000000000000325,-1.472920183377915304
0.617000000000000437,-1.487258178055949731
0.618000000000000327,-1.501244322420212551
0.619000000000000439,-1.514878157584750529
0.620000000000000329,-1.528159377976390676
0.621000000000000441,-1.541087827553362377
0.622000000000000330,-1.553663496059926930
0.623000000000000442,-1.565886515317976180
0.624000000000000332,-1.577757155556399393
0.625000000000000444,-1.589275821779223330
0.626000000000000334,-1.600443050173077975
0.627000000000000446,-1.611259504554913402
0.628000000000000336,-1.621725972860495135
0.629000000000000448,-1.631843363674379876
0.630000000000000338,-1.641612702801862778
0.631000000000000449,-1.651035129883535291
0.632000000000000339,-1.660111895052804432
0.633000000000000451,-1.668844355636886601
0.634000000000000341,-1.677233972901613246
0.635000000000000453,-1.685282308840502008
0.636000000000000343,-1.692991023008199036
0.637000000000000455,-1.700361869398835157
0.638000000000000345,-1.707396693369234608
0.639000000000000457,-1.714097428607441298
0.640000000000000346,-1.720466094146509306
0.641000000000000458,-1.726504791423848717
0.642000000000000348,-1.732215701386094153
0.643000000000000460,-1.737601081639661871
0.644000000000000350,-1.742663263646960559
0.645000000000000462,-1.747404649968310242
0.646000000000000352,-1.751827711549488686
0.647000000000000464,-1.755934985054954378
0.648000000000000353,-1.759729070246556004
0.649000000000000465,-1.763212627407729993
0.650000000000000355,-1.766388374813002260
0.651000000000000467,-1.769259086242673806
0.652000000000000357,-1.771827588542555620
0.653000000000000469,-1.774096759228475317
0.654000000000000359,-1.776069524135490241
0.655000000000000471,-1.777748855111443316
0.656000000000000361,-1.779137767754713995
0.657000000000000473,-1.780239319195872527
0.658000000000000362,-1.781056605922965330
0.659000000000000474,-1.781592761650144130
0.660000000000000364,-1.781850955229330014
0.661000000000000476,-1.781834388604621733
