# Ce-001_CS-12144-AC
# h[nm],U(h)[kJ/mol]
0.149999999999999994,146.607754957975686239
0.150999999999999995,141.975114000929522717
0.151999999999999996,137.854774085118435778
0.152999999999999997,133.890999216196235011
0.153999999999999998,129.973082553438047171
0.154999999999999999,126.092561935902040204
0.156000000000000000,122.272392717035813803
0.157000000000000001,118.535911481172931303
0.158000000000000002,114.896466331882450618
0.159000000000000002,111.356743872164344111
0.160000000000000003,107.911809449580033515
0.161000000000000004,104.552840037376654436
0.162000000000000005,101.270222189722431949
0.163000000000000006,98.055601724352143833
0.164000000000000007,94.902922222133682340
0.165000000000000008,91.808674778224599322
0.166000000000000009,88.771624204585862117
0.167000000000000010,85.792250402066102311
0.168000000000000010,82.872090014881649722
0.169000000000000011,80.013105491572417804
0.170000000000000012,77.217157348662794902
0.171000000000000013,74.485615028850631347
0.172000000000000014,71.819112824148120922
0.173000000000000015,69.217438629789825200
0.174000000000000016,66.679532817665304378
0.175000000000000017,64.203570169028310488
0.176000000000000018,61.787097685916137380
0.177000000000000018,59.427203639917266287
0.178000000000000019,57.120697204303311878
0.179000000000000020,54.864282571515865072
0.180000000000000021,52.654715984635778625
0.181000000000000022,50.488938235355512063
0.182000000000000023,48.364178698594493255
0.183000000000000024,46.278029803782160911
0.184000000000000025,44.228492986345116833
0.185000000000000026,42.213998673507994397
0.186000000000000026,40.233403818615968817
0.187000000000000027,38.285971002763503179
0.188000000000000028,36.371333267724544669
0.189000000000000029,34.489448720182949160
0.190000000000000030,32.640548634057708455
0.191000000000000031,30.825082343191432699
0.192000000000000032,29.043661716145869889
0.193000000000000033,27.297007481621022862
0.194000000000000034,25.585899159500549160
0.195000000000000034,23.911129871665174562
0.196000000000000035,22.273466873547622669
0.197000000000000036,20.673618270542057473
0.198000000000000037,19.112206066440950991
0.199000000000000038,17.589745433894755422
0.200000000000000039,16.106629896613224417
0.201000000000000040,14.663121964970411426
0.202000000000000041,13.259348665056361227
0.203000000000000042,11.895301339712622379
0.204000000000000042,10.570839072249714974
0.205000000000000043,9.285695083127622595
0.206000000000000044,8.039485471033884778
0.207000000000000045,6.831719707223240512
0.208000000000000046,5.661812341000262094
0.209000000000000047,4.529095430799772615
0.210000000000000048,3.432831276054122860
0.211000000000000049,2.372225087154925305
0.212000000000000050,1.346437292100091332
0.213000000000000050,0.354595237169489319
0.214000000000000051,-0.604195906067507171
0.215000000000000052,-1.530843164802779377
0.216000000000000053,-2.426256812376955452
0.217000000000000054,-3.291342491635151024
0.218000000000000055,-4.126994432751509123
0.219000000000000056,-4.934089755288074919
0.220000000000000057,-5.713483820672715652
0.221000000000000058,-6.466006582502226152
0.222000000000000058,-7.192459867710861765
0.223000000000000059,-7.893615511235054782
0.224000000000000060,-8.570214259903355725
0.225000000000000061,-9.222965357421994526
0.226000000000000062,-9.852546721062562796
0.227000000000000063,-10.459605621564893596
0.228000000000000064,-11.044759780442586106
0.229000000000000065,-11.608598802959580354
0.230000000000000066,-12.151685870196924810
0.231000000000000066,-12.674559619560872292
0.232000000000000067,-13.177736149533464172
0.233000000000000068,-13.661711091215602565
0.234000000000000069,-14.126961696069169960
0.235000000000000070,-14.573948896072284498
0.236000000000000071,-15.003119299130585063
0.237000000000000072,-15.414907088937980006
0.238000000000000073,-15.809735804470502529
0.239000000000000073,-16.188019979871011600
0.240000000000000074,-16.550166630602433315
0.241000000000000075,-16.896576576385424318
0.242000000000000076,-17.227645595585919125
0.243000000000000077,-17.543765409377584774
0.244000000000000078,-17.845324497184527957
0.245000000000000079,-18.132708747626033130
0.246000000000000080,-18.406301951462026523
0.247000000000000081,-18.666486144901220712
0.248000000000000081,-18.913641813112967327
0.249000000000000082,-19.148147964910496199
0.250000000000000111,-19.370382090381266238
0.251000000000000112,-19.580720013759808751
0.252000000000000113,-19.779535654106407350
0.253000000000000114,-19.967200706396628362
0.254000000000000115,-20.144084255480489531
0.255000000000000115,-20.310552335056204498
0.256000000000000116,-20.466967443356178791
0.257000000000000117,-20.613688026682620347
0.258000000000000118,-20.751067941281249318
0.259000000000000119,-20.879455903325883526
0.260000000000000120,-20.999194936022380631
0.261000000000000121,-21.110621822042624274
0.262000000000000122,-21.214066568687055536
0.263000000000000123,-21.309851892355251124
0.264000000000000123,-21.398292728094734372
0.265000000000000124,-21.479695769203551947
0.266000000000000125,-21.554359041093682947
0.267000000000000126,-21.622571512884089628
0.268000000000000127,-21.684612749491126493
0.269000000000000128,-21.740752606323013651
0.270000000000000129,-21.791250968067750193
0.271000000000000130,-21.836357532492190359
0.272000000000000131,-21.876311639645159346
0.273000000000000131,-21.911342146379727325
0.274000000000000132,-21.941667345679196188
0.275000000000000133,-21.967494929887855903
0.276000000000000134,-21.989021996608450138
0.277000000000000135,-22.006435095733813512
0.278000000000000136,-22.019910315827551983
0.279000000000000137,-22.029613407855869411
0.280000000000000138,-22.035699944097750347
0.281000000000000139,-22.038315509921570623
0.282000000000000139,-22.037595926009487357
0.283000000000000140,-22.033667498535258744
0.284000000000000141,-22.026647294753214368
0.285000000000000142,-22.016643441433714656
0.286000000000000143,-22.003755443581244577
0.287000000000000144,-21.988074520892290309
0.288000000000000145,-21.969683959450694744
0.289000000000000146,-21.948659476213293829
0.290000000000000147,-21.925069593909363164
0.291000000000000147,-21.898976024059017220
0.292000000000000148,-21.870434055908457793
0.293000000000000149,-21.839492949180471015
0.294000000000000150,-21.806196328646002769
0.295000000000000151,-21.770582578636030746
0.296000000000000152,-21.732685235729057638
0.297000000000000153,-21.692533377969624553
0.298000000000000154,-21.650152009093517336
0.299000000000000155,-21.605562436357249823
0.300000000000000155,-21.558782640689972965
0.301000000000000156,-21.509827638005511119
0.302000000000000157,-21.458709830629974391
0.303000000000000158,-21.405439347915109494
0.304000000000000159,-21.350024375219266659
0.305000000000000160,-21.292471470545827117
0.306000000000000161,-21.232785868232852522
0.307000000000000162,-21.170971769187431732
0.308000000000000163,-21.107032617252706075
0.309000000000000163,-21.040971361386048955
0.310000000000000164,-20.972790703411835267
0.311000000000000165,-20.902493331192076198
0.312000000000000166,-20.830082137133551612
0.313000000000000167,-20.755560422019499356
0.314000000000000168,-20.678932084218892840
0.315000000000000169,-20.600201794385974097
0.316000000000000170,-20.519375155817566991
0.317000000000000171,-20.436458850685585986
0.318000000000000171,-20.351460772407243383
0.319000000000000172,-20.264390144456630338
0.320000000000000173,-20.175257625957065954
0.321000000000000174,-20.084075404426169342
0.322000000000000175,-19.990857276073349169
0.323000000000000176,-19.895618714073901145
0.324000000000000177,-19.798376925264182802
0.325000000000000178,-19.699150895719494514
0.326000000000000179,-19.597961425690506587
0.327000000000000179,-19.494831154384179683
0.328000000000000180,-19.389784575083535145
0.329000000000000181,-19.282848041106017689
0.330000000000000182,-19.174049763102182453
0.331000000000000183,-19.063419798197990929
0.332000000000000184,-18.950990031481484976
0.333000000000000185,-18.836794150331545694
0.334000000000000186,-18.720867612080994036
0.335000000000000187,-18.603247605499344530
0.336000000000000187,-18.483973006572380626
0.337000000000000188,-18.363084329045733512
0.338000000000000189,-18.240623670189329175
0.339000000000000190,-18.116634652227563862
0.340000000000000191,-17.991162359867203691
0.341000000000000192,-17.864253274342388522
0.342000000000000193,-17.735955204381006922
0.343000000000000194,-17.606317214483290456
0.344000000000000195,-17.475389550887534540
0.345000000000000195,-17.343223565583262058
0.346000000000000196,-17.209871638716300879
0.347000000000000197,-17.075387099714369299
0.348000000000000198,-16.939824147446469027
0.349000000000000199,-16.803237769712985994
0.350000000000000200,-16.665683662348197203
0.351000000000000201,-16.527218148200795156
0.352000000000000202,-16.387898096242647483
0.353000000000000203,-16.247780841041041811
0.354000000000000203,-16.106924102813959365
0.355000000000000204,-15.965385908273754367
0.356000000000000205,-15.823224512449812096
0.357000000000000206,-15.680498321666885175
0.358000000000000207,-15.537265817841625193
0.359000000000000208,-15.393585484247131134
0.360000000000000209,-15.249515732881761210
0.361000000000000210,-15.105114833566375410
0.362000000000000210,-14.960440844881835787
0.363000000000000211,-14.815551547047064673
0.364000000000000212,-14.670504376826887238
0.365000000000000213,-14.525356364547866050
0.366000000000000214,-14.380164073290472970
0.367000000000000215,-14.234983540315747419
0.368000000000000216,-14.089870220775660314
0.369000000000000217,-13.944878933747085981
0.370000000000000218,-13.800063810621400862
0.371000000000000218,-13.655478245873169385
0.372000000000000219,-13.511174850224293209
0.373000000000000220,-13.367205406212757879
0.374000000000000221,-13.223620826168405173
0.375000000000000222,-13.080471112591883553
0.376000000000000223,-12.937805320927278530
0.377000000000000224,-12.795671524713142730
0.378000000000000225,-12.654116783091998499
0.379000000000000226,-12.513187110653177569
0.380000000000000226,-12.372927449580155113
0.381000000000000227,-12.233381644068808569
0.382000000000000228,-12.094592416980139760
0.383000000000000229,-11.956601348687096120
0.384000000000000230,-11.819448858072240327
0.385000000000000231,-11.683174185630681663
0.386000000000000232,-11.547815378629568528
0.387000000000000233,-11.413409278273899616
0.388000000000000234,-11.279991508826018531
0.389000000000000234,-11.147596468624980659
0.390000000000000235,-11.016257322949991604
0.391000000000000236,-10.886005998671466344
0.392000000000000237,-10.756873180631810527
0.393000000000000238,-10.628888309697595460
0.394000000000000239,-10.502079582423823112
0.395000000000000240,-10.376473952270965029
0.396000000000000241,-10.252097132314785810
0.397000000000000242,-10.128973599389125226
0.398000000000000242,-10.007126599601793515
0.399000000000000243,-9.886578155163810777
0.400000000000000244,-9.767349072472512717
0.401000000000000245,-9.649458951389792816
0.402000000000000246,-9.532926195656713730
0.403000000000000247,-9.417768024386775849
0.404000000000000248,-9.304000484580713604
0.405000000000000249,-9.191638464606487702
0.406000000000000250,-9.080695708588962134
0.407000000000000250,-8.971184831654802849
0.408000000000000251,-8.863117335979010747
0.409000000000000252,-8.756503627580821458
0.410000000000000253,-8.651353033817372307
0.411000000000000254,-8.547673821525219040
0.412000000000000255,-8.445473215760543440
0.413000000000000256,-8.344757419090452544
0.414000000000000257,-8.245531631388690386
0.415000000000000258,-8.147800070090777780
0.416000000000000258,-8.051565990864464339
0.417000000000000259,-7.956831708653048452
0.418000000000000260,-7.863598619050260474
0.419000000000000261,-7.771867219966688722
0.420000000000000262,-7.681637133549314100
0.421000000000000263,-7.592907128316841003
0.422000000000000264,-7.505675141474831946
0.423000000000000265,-7.419938301376151735
0.424000000000000266,-7.335692950093532616
0.425000000000000266,-7.252934666072194503
0.426000000000000267,-7.171658286831918971
0.427000000000000268,-7.091857931689356853
0.428000000000000269,-7.013527024472336890
0.429000000000000270,-6.936658316199514118
0.430000000000000271,-6.861243907699683398
0.431000000000000272,-6.787275272146507277
0.432000000000000273,-6.714743277485410999
0.433000000000000274,-6.643638208730754613
0.434000000000000274,-6.573949790112415315
0.435000000000000275,-6.505667207052044709
0.436000000000000276,-6.438779127950539305
0.437000000000000277,-6.373273725769012188
0.438000000000000278,-6.309138699386921623
0.439000000000000279,-6.246361294721938684
0.440000000000000280,-6.184928325596954046
0.441000000000000281,-6.124826194340821317
0.442000000000000282,-6.066040912110375771
0.443000000000000282,-6.008558118921889069
0.444000000000000283,-5.952363103381396847
0.445000000000000284,-5.897440822103926727
0.446000000000000285,-5.843775918812468717
0.447000000000000286,-5.791352743108676648
0.448000000000000287,-5.740155368907465139
0.449000000000000288,-5.690167612529089425
0.450000000000000289,-5.641373050442412662
0.451000000000000290,-5.593755036654186164
0.452000000000000290,-5.547296719739624571
0.453000000000000291,-5.501981059510184124
0.454000000000000292,-5.457790843315263984
0.455000000000000293,-5.414708701974817018
0.456000000000000294,-5.372717125340785493
0.457000000000000295,-5.331798477485490295
0.458000000000000296,-5.291935011515836784
0.459000000000000297,-5.253108884012595681
0.460000000000000298,-5.215302169094504059
0.461000000000000298,-5.178496872107348103
0.462000000000000299,-5.142674942938731064
0.463000000000000300,-5.107818288959404818
0.464000000000000301,-5.073908787592707803
0.465000000000000302,-5.040928298513775552
0.466000000000000303,-5.008858675480672318
0.467000000000000304,-4.977681777799802809
0.468000000000000305,-4.947379481428450632
0.469000000000000306,-4.917933689717308710
0.470000000000000306,-4.889326343796443375
0.471000000000000307,-4.861539432608021016
0.472000000000000308,-4.834555002589804751
0.473000000000000309,-4.808355167013191434
0.474000000000000310,-4.782922114980072692
0.475000000000000311,-4.758238120082906697
0.476000000000000312,-4.734285548732535709
0.477000000000000313,-4.711046868158389245
0.478000000000000314,-4.688504654086017354
0.479000000000000314,-4.666641598096928689
0.480000000000000315,-4.645440514675746257
0.481000000000000316,-4.624884347950048102
0.482000000000000317,-4.604956178128063016
0.483000000000000318,-4.585639227639735971
0.484000000000000319,-4.566916866986534096
0.485000000000000320,-4.548772620305659764
0.486000000000000321,-4.531190170654164184
0.487000000000000322,-4.514153365018662711
0.488000000000000322,-4.497646219056310457
0.489000000000000323,-4.481652921572799819
0.490000000000000324,-4.466157838743066932
0.491000000000000325,-4.451145518080506847
0.492000000000000326,-4.436600692160395099
0.493000000000000327,-4.422508282103370547
0.494000000000000328,-4.408853400824641611
0.495000000000000329,-4.395621356054723705
0.496000000000000330,-4.382797653137416205
0.497000000000000330,-4.370367997610704158
0.498000000000000331,-4.358318297576279754
0.499000000000000332,-4.346634665863327029
0.500000000000000333,-4.335303421992162676
0.501000000000000334,-4.324311093943287609
0.502000000000000335,-4.313644419737382663
0.503000000000000336,-4.303290348831707135
0.504000000000000337,-4.293236043338298558
0.505000000000000338,-4.283468879069339152
0.506000000000000338,-4.273976446414985197
0.507000000000000339,-4.264746551058881785
0.508000000000000340,-4.255767214536533949
0.509000000000000341,-4.247026674641635857
0.510000000000000342,-4.238513385685374502
0.511000000000000343,-4.230216018613676354
0.512000000000000344,-4.222123460987276644
0.513000000000000345,-4.214224816829387876
0.514000000000000346,-4.206509406345776192
0.515000000000000346,-4.198966765521803701
0.516000000000000347,-4.191586645601047323
0.517000000000000348,-4.184359012450041604
0.518000000000000349,-4.177274045813431869
0.519000000000000350,-4.170322138463982142
0.520000000000000351,-4.163493895251645149
0.521000000000000352,-4.156780132055827082
0.522000000000000353,-4.150171874644966508
0.523000000000000353,-4.143660357447392251
0.524000000000000354,-4.137237022237409967
0.525000000000000355,-4.130893516740421489
0.526000000000000356,-4.124621693160789526
0.527000000000000357,-4.118413606636190494
0.528000000000000358,-4.112261513621956688
0.529000000000000359,-4.106157870208929417
0.530000000000000360,-4.100095330378240810
0.531000000000000361,-4.094066744196354080
0.532000000000000361,-4.088065155953580998
0.533000000000000362,-4.082083802249292681
0.534000000000000363,-4.076116110026854145
0.535000000000000364,-4.070155694561330861
0.536000000000000365,-4.064196357402868109
0.537000000000000366,-4.058232084278609264
0.538000000000000367,-4.052257042955895727
0.539000000000000368,-4.046265581069485862
0.540000000000000369,-4.040252223915361540
0.541000000000000369,-4.034211672213700695
0.542000000000000370,-4.028138799843484108
0.543000000000000371,-4.022028651551082135
0.544000000000000372,-4.015876440635242517
0.545000000000000373,-4.009677546610630472
0.546000000000000374,-4.003427512852172576
0.547000000000000375,-3.997122044222268578
0.548000000000000376,-3.990757004683005871
0.549000000000000377,-3.984328414895241366
0.550000000000000377,-3.977832449806546489
0.551000000000000378,-3.971265436229858725
0.552000000000000379,-3.964623850414591200
0.553000000000000380,-3.957904315611977974
0.554000000000000381,-3.951103599636259567
0.555000000000000382,-3.944218612423409986
0.556000000000000383,-3.937246403588817056
0.557000000000000384,-3.930184159985559145
0.558000000000000385,-3.923029203264591480
0.559000000000000385,-3.915778987438299108
0.560000000000000386,-3.908431096448691910
0.561000000000000387,-3.900983241741561081
0.562000000000000388,-3.893433259847791650
0.563000000000000389,-3.885779109973010126
0.564000000000000390,-3.878018871596685901
0.565000000000000391,-3.870150742081778894
0.566000000000000392,-3.862173034295950824
0.567000000000000393,-3.854084174245329564
0.568000000000000393,-3.845882698721742710
0.569000000000000394,-3.837567252964351638
0.570000000000000395,-3.829136588336536473
0.571000000000000396,-3.820589560018780251
0.572000000000000397,-3.811925124718437807
0.573000000000000398,-3.803142338397003552
0.574000000000000399,-3.794240354015662398
0.575000000000000400,-3.785218419299733572
0.576000000000000401,-3.776075874522621056
0.577000000000000401,-3.766812150309924334
0.578000000000000402,-3.757426765464166429
0.579000000000000403,-3.747919324810722319
0.580000000000000404,-3.738289517065431333
0.581000000000000405,-3.728537112724319424
0.582000000000000406,-3.718661961975877173
0.583000000000000407,-3.708663992636276330
0.584000000000000408,-3.698543208107925473
0.585000000000000409,-3.688299685361644542
0.586000000000000409,-3.677933572942836626
0.587000000000000410,-3.667445089001893255
0.588000000000000411,-3.656834519349119628
0.589000000000000412,-3.646102215534432478
0.590000000000000413,-3.635248592951979330
0.591000000000000414,-3.624274128969958042
0.592000000000000415,-3.613179361085757879
0.593000000000000416,-3.601964885106537118
0.594000000000000417,-3.590631353355450361
0.595000000000000417,-3.579179472903576631
0.596000000000000418,-3.567610003827601961
0.597000000000000419,-3.555923757493450577
0.598000000000000420,-3.544121594865758063
0.599000000000000421,-3.532204424843353507
0.600000000000000422,-3.520173202620704878
0.601000000000000423,-3.508028928075334729
0.602000000000000424,-3.495772644181214694
0.603000000000000425,-3.483405435448111209
0.604000000000000425,-3.470928426386802990
0.605000000000000426,-3.458342780000177807
0.606000000000000427,-3.445649696300120635
0.607000000000000428,-3.432850410850034173
0.608000000000000429,-3.419946193333082363
0.609000000000000430,-3.406938346145829577
