# Ce-001_CS-65596-AC
# h[nm],U(h)[kJ/mol]
0.149999999999999994,132.788512545666037568
0.150999999999999995,129.669125405541649343
0.151999999999999996,125.791337115093753596
0.152999999999999997,121.797157523181823535
0.153999999999999998,117.953411990340924831
0.154999999999999999,114.330624579118492079
0.156000000000000000,110.909026761193075572
0.157000000000000001,107.637863712034999253
0.158000000000000002,104.465690648104711613
0.159000000000000002,101.353392416743304238
0.160000000000000003,98.277525651745961000
0.161000000000000004,95.228758098539813659
0.162000000000000005,92.208283969956397641
0.163000000000000006,89.223849707489677030
0.164000000000000007,86.286230297470495998
0.165000000000000008,83.406508291364076513
0.166000000000000009,80.594223824046011373
0.167000000000000010,77.856312773842915931
0.168000000000000010,75.196682497497107533
0.169000000000000011,72.616256921865854679
0.170000000000000012,70.113333054679230827
0.171000000000000013,67.684114929601847166
0.172000000000000014,65.323319784277046551
0.173000000000000015,63.024779703450306556
0.174000000000000016,60.781987279276975755
0.175000000000000017,58.588554831216491436
0.176000000000000018,56.438573120481990486
0.177000000000000018,54.326867564853912995
0.178000000000000019,52.249158262515265960
0.179000000000000020,50.202135330143150327
0.180000000000000021,48.183463817328167522
0.181000000000000022,46.191733389501870022
0.182000000000000023,44.226367605776673031
0.183000000000000024,42.287506395228334100
0.184000000000000025,40.375873603488024344
0.185000000000000026,38.492639506835956809
0.186000000000000026,36.639286167582284293
0.187000000000000027,34.817481567171611800
0.188000000000000028,33.028966689116437294
0.189000000000000029,31.275458182348888414
0.190000000000000030,29.558567938757313698
0.191000000000000031,27.879739868285280835
0.192000000000000032,26.240203338946741951
0.193000000000000033,24.640942146573479477
0.194000000000000034,23.082677464230712872
0.195000000000000034,21.565862966077236962
0.196000000000000035,20.090690197045386611
0.197000000000000036,18.657102241467370618
0.198000000000000037,17.264813806335052249
0.199000000000000038,15.913335956676585070
0.200000000000000039,14.602003902969840965
0.201000000000000040,13.330006427989133044
0.202000000000000041,12.096415740253878113
0.203000000000000042,10.900216743209366399
0.204000000000000042,9.740334905663921461
0.205000000000000043,8.615662104143051891
0.206000000000000044,7.525079977748163174
0.207000000000000045,6.467480488346612155
0.208000000000000046,5.441783512168068881
0.209000000000000047,4.446951402785726870
0.210000000000000048,3.482000560385690058
0.211000000000000049,2.546010119081540068
0.212000000000000050,1.638127924091392629
0.213000000000000050,0.757574015398707723
0.214000000000000051,-0.096358134274078550
0.215000000000000052,-0.924302360010072710
0.216000000000000053,-1.726822247412113764
0.217000000000000054,-2.504415000471459596
0.218000000000000055,-3.257516463870149259
0.219000000000000056,-3.986507040822139025
0.220000000000000057,-4.691718263627233654
0.221000000000000058,-5.373439793265260889
0.222000000000000058,-6.031926645603087778
0.223000000000000059,-6.667406464247344289
0.224000000000000060,-7.280086683031099071
0.225000000000000061,-7.870161443965247194
0.226000000000000062,-8.437818158727139917
0.227000000000000063,-8.983243623017713730
0.228000000000000064,-9.506629613100072262
0.229000000000000065,-10.008177912331193582
0.230000000000000066,-10.488104732369260219
0.231000000000000066,-10.946644508907983351
0.232000000000000067,-11.384053065221161560
0.233000000000000068,-11.800610148511173847
0.234000000000000069,-12.196621354085934286
0.235000000000000070,-12.572419460811884662
0.236000000000000071,-12.928365208194861680
0.237000000000000072,-13.264847550932325149
0.238000000000000073,-13.582283430970566229
0.239000000000000073,-13.881117110109277846
0.240000000000000074,-14.161819108146158186
0.241000000000000075,-14.424884792563242186
0.242000000000000076,-14.670832665944704587
0.243000000000000077,-14.900202396795666715
0.244000000000000078,-15.113552638310270737
0.245000000000000079,-15.311458678015437584
0.246000000000000080,-15.494509959188272674
0.247000000000000081,-15.663307512595746829
0.248000000000000081,-15.818461334511571437
0.249000000000000082,-15.960587744197971105
0.250000000000000111,-16.090306751161243426
0.251000000000000112,-16.208239459553013262
0.252000000000000113,-16.315005534143253385
0.253000000000000114,-16.411220749373722327
0.254000000000000115,-16.497494640150360823
0.255000000000000115,-16.574428270273674713
0.256000000000000116,-16.642612131764643379
0.257000000000000117,-16.702624185836128845
0.258000000000000118,-16.755028053899835072
0.259000000000000119,-16.800371364798575513
0.260000000000000120,-16.839184262417692395
0.261000000000000121,-16.871978075961639121
0.262000000000000122,-16.899244153484545450
0.263000000000000123,-16.921452857733555675
0.264000000000000123,-16.939052721999846796
0.265000000000000124,-16.952469762468034276
0.266000000000000125,-16.962106942505979390
0.267000000000000126,-16.968343783434878702
0.268000000000000127,-16.971536115558443214
0.269000000000000128,-16.972015962599595440
0.270000000000000129,-16.970091552186140405
0.271000000000000130,-16.966047444634043018
0.272000000000000131,-16.960144771988844070
0.273000000000000131,-16.952621579093985815
0.274000000000000132,-16.943693258350041475
0.275000000000000133,-16.933553069803174651
0.276000000000000134,-16.922372738245059054
0.277000000000000135,-16.910303119113084591
0.278000000000000136,-16.897474925140809177
0.279000000000000137,-16.883999505916598594
0.280000000000000138,-16.869969672757608947
0.281000000000000139,-16.855460561588628821
0.282000000000000139,-16.840530526826750446
0.283000000000000140,-16.825222059606122826
0.284000000000000141,-16.809562724028261016
0.285000000000000142,-16.793566105487968798
0.286000000000000143,-16.777232765497245737
0.287000000000000144,-16.760551197807952661
0.288000000000000145,-16.743498781013574472
0.289000000000000146,-16.726042723188282224
0.290000000000000147,-16.708140994495931153
0.291000000000000147,-16.689743244069092043
0.292000000000000148,-16.670791697817751498
0.293000000000000149,-16.651222034176491604
0.294000000000000150,-16.630964235136449503
0.295000000000000151,-16.609943410233530159
0.296000000000000152,-16.588080591475396375
0.297000000000000153,-16.565293497486582197
0.298000000000000154,-16.541497265432489883
0.299000000000000155,-16.516605149549796749
0.300000000000000155,-16.490529185360760067
0.301000000000000156,-16.463180818884218581
0.302000000000000157,-16.434471500374783659
0.303000000000000158,-16.404313242325354594
0.304000000000000159,-16.372619141656151953
0.305000000000000160,-16.339303866186064340
0.306000000000000161,-16.304284105640736158
0.307000000000000162,-16.267478987595694662
0.308000000000000163,-16.228810458882588108
0.309000000000000163,-16.188203633104002677
0.310000000000000164,-16.145587105006129036
0.311000000000000165,-16.100893232550657075
0.312000000000000166,-16.054058387607774705
0.313000000000000167,-16.005023176261666151
0.314000000000000168,-15.953732629779000973
0.315000000000000169,-15.900136367340504506
0.316000000000000170,-15.844188731676121407
0.317000000000000171,-15.785848898775952875
0.318000000000000171,-15.725080962873335011
0.319000000000000172,-15.661853997912956515
0.320000000000000173,-15.596142096726826054
0.321000000000000174,-15.527924389144564188
0.322000000000000175,-15.457185040262356068
0.323000000000000176,-15.383913230087950197
0.324000000000000177,-15.308103115766893865
0.325000000000000178,-15.229753777579142948
0.326000000000000179,-15.148869149875560325
0.327000000000000179,-15.065457938099992674
0.328000000000000180,-14.979533523016817398
0.329000000000000181,-14.891113853235021125
0.330000000000000182,-14.800221327088276979
0.331000000000000183,-14.706882664898344615
0.332000000000000184,-14.611128772613749760
0.333000000000000185,-14.512994597780387807
0.334000000000000186,-14.412518978763483091
0.335000000000000187,-14.309744488102717597
0.336000000000000187,-14.204717270844255950
0.337000000000000188,-14.097486878654313713
0.338000000000000189,-13.988106100480763416
0.339000000000000190,-13.876630790490031231
0.340000000000000191,-13.763119693968064894
0.341000000000000192,-13.647634271836238895
0.342000000000000193,-13.530238524394610167
0.343000000000000194,-13.410998814868467122
0.344000000000000195,-13.289983693296715472
0.345000000000000195,-13.167263721265689114
0.346000000000000196,-13.042911297956248262
0.347000000000000197,-12.917000487938423703
0.348000000000000198,-12.789606851114660557
0.349000000000000199,-12.660807275180433251
0.350000000000000200,-12.530679810940332786
0.351000000000000201,-12.399303510787351712
0.352000000000000202,-12.266758270624645633
0.353000000000000203,-12.133124675481070653
0.354000000000000203,-11.998483849045372907
0.355000000000000204,-11.862917307318365800
0.356000000000000205,-11.726506816558339708
0.357000000000000206,-11.589334255671673191
0.358000000000000207,-11.451481483178600485
0.359000000000000208,-11.313030208863390058
0.360000000000000209,-11.174061870198345403
0.361000000000000210,-11.034657513612307511
0.362000000000000210,-10.894897680656882244
0.363000000000000211,-10.754862299106957124
0.364000000000000212,-10.614630579016761658
0.365000000000000213,-10.474280913737882059
0.366000000000000214,-10.333890785892432262
0.367000000000000215,-10.193536678281713392
0.368000000000000216,-10.053293989699263022
0.369000000000000217,-9.913236955606027578
0.370000000000000218,-9.773438573615830904
0.371000000000000218,-9.633970533729792507
0.372000000000000219,-9.494903153250199068
0.373000000000000220,-9.356305316296655405
0.374000000000000221,-9.218244417840443461
0.375000000000000222,-9.080786312166743812
0.376000000000000223,-8.943995265668906569
0.377000000000000224,-8.807933913873963405
0.378000000000000225,-8.672663222594289678
0.379000000000000226,-8.538242453096364315
0.380000000000000226,-8.404729131174702772
0.381000000000000227,-8.272179020015745010
0.382000000000000228,-8.140646096734766246
0.383000000000000229,-8.010182532466702199
0.384000000000000230,-7.880838675890376344
0.385000000000000231,-7.752663040064886601
0.386000000000000232,-7.625702292455936337
0.387000000000000233,-7.500001248029761314
0.388000000000000234,-7.375602865292302468
0.389000000000000234,-7.252548245151638540
0.390000000000000235,-7.130876632482087807
0.391000000000000236,-7.010625420269586350
0.392000000000000237,-6.891830156218591519
0.393000000000000238,-6.774524551702515218
0.394000000000000239,-6.658740492940729894
0.395000000000000240,-6.544508054287303089
0.396000000000000241,-6.431855513518091705
0.397000000000000242,-6.320809369004953382
0.398000000000000242,-6.211394358668088422
0.399000000000000243,-6.103633480599447658
0.400000000000000244,-5.997548015252608167
0.401000000000000245,-5.893157549097201908
0.402000000000000246,-5.790479999638013631
0.403000000000000247,-5.689531641701679021
0.404000000000000248,-5.590327134896662109
0.405000000000000249,-5.492879552154589007
0.406000000000000250,-5.397200409263881227
0.407000000000000250,-5.303299695309346973
0.408000000000000251,-5.211185903934035579
0.409000000000000252,-5.120866065342667639
0.410000000000000253,-5.032345778968317696
0.411000000000000254,-4.945629246727263784
0.412000000000000255,-4.860719306789235361
0.413000000000000256,-4.777617467793403350
0.414000000000000257,-4.696323943442783921
0.415000000000000258,-4.616837687412862934
0.416000000000000258,-4.539156428512503894
0.417000000000000259,-4.463276706038120878
0.418000000000000260,-4.389193905264555440
0.419000000000000261,-4.316902293018623382
0.420000000000000262,-4.246395053283974264
0.421000000000000263,-4.177664322788226414
0.422000000000000264,-4.110701226525720564
0.423000000000000265,-4.045495913171756719
0.424000000000000266,-3.982037590346467315
0.425000000000000266,-3.920314559688544698
0.426000000000000267,-3.860314251701518096
0.427000000000000268,-3.802023260337261235
0.428000000000000269,-3.745427377283535808
0.429000000000000270,-3.690511625924465022
0.430000000000000271,-3.637260294944731243
0.431000000000000272,-3.585656971550273742
0.432000000000000273,-3.535684574280105519
0.433000000000000274,-3.487325385385666721
0.434000000000000274,-3.440561082755874800
0.435000000000000275,-3.395372771367731524
0.436000000000000276,-3.351741014243987848
0.437000000000000277,-3.309645862900855384
0.438000000000000278,-3.269066887270400290
0.439000000000000279,-3.229983205083636566
0.440000000000000280,-3.192373510701690620
0.441000000000000281,-3.156216103383850058
0.442000000000000282,-3.121488914982605056
0.443000000000000282,-3.088169537056865366
0.444000000000000283,-3.056235247395989507
0.445000000000000284,-3.025663035948182422
0.446000000000000285,-2.996429630147901868
0.447000000000000286,-2.968511519638231455
0.448000000000000287,-2.941884980384708914
0.449000000000000288,-2.916526098178500170
0.450000000000000289,-2.892410791527358693
0.451000000000000290,-2.869514833933858089
0.452000000000000290,-2.847813875561111985
0.453000000000000291,-2.827283464286976411
0.454000000000000292,-2.807899066148473288
0.455000000000000293,-2.789636085178798020
0.456000000000000294,-2.772469882640014482
0.457000000000000295,-2.756375795655020333
0.458000000000000296,-2.741329155243084958
0.459000000000000297,-2.727305303763642108
0.460000000000000298,-2.714279611773671608
0.461000000000000298,-2.702227494304295874
0.462000000000000299,-2.691124426562887528
0.463000000000000300,-2.680945959067107420
0.464000000000000301,-2.671667732217940738
0.465000000000000302,-2.663265490318917905
0.466000000000000303,-2.655715095049235863
0.467000000000000304,-2.648992538398522445
0.468000000000000305,-2.643073955071601144
0.469000000000000306,-2.637935634371511018
0.470000000000000306,-2.633554031569484533
0.471000000000000307,-2.629905778770684766
0.472000000000000308,-2.626967695284744941
0.473000000000000309,-2.624716797510198596
0.474000000000000310,-2.623130308342131567
0.475000000000000311,-2.622185666112501590
0.476000000000000312,-2.621860533072561505
0.477000000000000313,-2.622132803427024150
0.478000000000000314,-2.622980610929605660
0.479000000000000314,-2.624382336049698061
0.480000000000000315,-2.626316612719818089
0.481000000000000316,-2.628762334673726109
0.482000000000000317,-2.631698661384881177
0.483000000000000318,-2.635105023615059938
0.484000000000000319,-2.638961128582868021
0.485000000000000320,-2.643246964761919671
0.486000000000000321,-2.647942806318308140
0.487000000000000322,-2.653029217197082179
0.488000000000000322,-2.658487054867261445
0.489000000000000323,-2.664297473734964949
0.490000000000000324,-2.670441928234077444
0.491000000000000325,-2.676902175603852907
0.492000000000000326,-2.683660278362697937
0.493000000000000327,-2.690698606487382349
0.494000000000000328,-2.697999839306727043
0.495000000000000329,-2.705546967118793944
0.496000000000000330,-2.713323292540418041
0.497000000000000330,-2.721312431597881609
0.498000000000000331,-2.729498314567345041
0.499000000000000332,-2.737865186573555043
0.500000000000000333,-2.746397607955247011
0.501000000000000334,-2.755080454405482548
0.502000000000000335,-2.763898916895044522
0.503000000000000336,-2.772838501386895693
0.504000000000000337,-2.781885028349555533
0.505000000000000338,-2.791024632077090395
0.506000000000000338,-2.800243759823301648
0.507000000000000339,-2.809529170757548933
0.508000000000000340,-2.818867934749464066
0.509000000000000341,-2.828247430989710320
0.510000000000000342,-2.837655346453782812
0.511000000000000343,-2.847079674215678757
0.512000000000000344,-2.856508711618144680
0.513000000000000345,-2.865931058306017132
0.514000000000000346,-2.875335614129149953
0.515000000000000346,-2.884711576921044518
0.516000000000000347,-2.894048440159401547
0.517000000000000348,-2.903335990514531062
0.518000000000000349,-2.912564305291385658
0.519000000000000350,-2.921723749770940515
0.520000000000000351,-2.930804974456450829
0.521000000000000352,-2.939798912229923733
0.522000000000000353,-2.948696775424088035
0.523000000000000353,-2.957490052814943926
0.524000000000000354,-2.966170506539875351
0.525000000000000355,-2.974730168946134068
0.526000000000000356,-2.983161339374372556
0.527000000000000357,-2.991456580881824756
0.528000000000000358,-2.999608716909529793
0.529000000000000359,-3.007610827897861050
0.530000000000000360,-3.015456247854592320
0.531000000000000361,-3.023138560879476078
0.532000000000000361,-3.030651597649280937
0.533000000000000362,-3.037989431867042178
0.534000000000000363,-3.045146376679232159
0.535000000000000364,-3.052116981064355361
0.536000000000000365,-3.058896026196415541
0.537000000000000366,-3.065478521786580757
0.538000000000000367,-3.071859702406199766
0.539000000000000368,-3.078035023794329028
0.540000000000000369,-3.084000159152673781
0.541000000000000369,-3.089750995430872393
0.542000000000000370,-3.095283629604857367
0.543000000000000371,-3.100594364950969517
0.544000000000000372,-3.105679707318399707
0.545000000000000373,-3.110536361402393091
0.546000000000000374,-3.115161227020624146
0.547000000000000375,-3.119551395394966953
0.548000000000000376,-3.123704145440913571
0.549000000000000377,-3.127616940066650919
0.550000000000000377,-3.131287422483866045
0.551000000000000378,-3.134713412532163179
0.552000000000000379,-3.137892903018939972
0.553000000000000380,-3.140824056076477522
0.554000000000000381,-3.143505199537894867
0.555000000000000382,-3.145934823333621289
0.556000000000000383,-3.148111575909812831
0.557000000000000384,-3.150034260670265152
0.558000000000000385,-3.151701832443102980
0.559000000000000385,-3.153113393973630441
0.560000000000000386,-3.154268192444502183
0.561000000000000387,-3.155165616024455666
0.562000000000000388,-3.155805190446664632
0.563000000000000389,-3.156186575617774714
0.564000000000000390,-3.156309562258597268
0.565000000000000391,-3.156174068577399350
0.566000000000000392,-3.155780136976637618
0.567000000000000393,-3.155127930793970137
0.568000000000000393,-3.154217731078268638
0.569000000000000394,-3.153049933401379068
0.570000000000000395,-3.151625044706274359
0.571000000000000396,-3.149943680192156314
0.572000000000000397,-3.148006560237158524
0.573000000000000398,-3.145814507359077083
0.574000000000000399,-3.143368443214645147
0.575000000000000400,-3.140669385637772315
0.576000000000000401,-3.137718445717099236
0.577000000000000401,-3.134516824913283983
0.578000000000000402,-3.131065812216244915
0.579000000000000403,-3.127366781342681978
0.580000000000000404,-3.123421187974095403
0.581000000000000405,-3.119230567035503832
0.582000000000000406,-3.114796530015012443
0.583000000000000407,-3.110120762324378507
0.584000000000000408,-3.105205020700691154
0.585000000000000409,-3.100051130649191133
0.586000000000000409,-3.094660983927324693
0.587000000000000410,-3.089036536070036032
0.588000000000000411,-3.083179803956252130
0.589000000000000412,-3.077092863416592827
0.590000000000000413,-3.070777846882173368
0.591000000000000414,-3.064236941074476750
0.592000000000000415,-3.057472384736168003
0.593000000000000416,-3.050486466402710928
0.594000000000000417,-3.043281522214660750
0.595000000000000417,-3.035859933770493235
0.596000000000000418,-3.028224126019692264
0.597000000000000419,-3.020376565196044805
0.598000000000000420,-3.012319756790760028
0.599000000000000421,-3.004056243565311313
0.600000000000000422,-2.995588603603685840
0.601000000000000423,-2.986919448403785537
0.602000000000000424,-2.978051421007708921
0.603000000000000425,-2.968987194170657595
0.604000000000000425,-2.959729468568081501
0.605000000000000426,-2.950280971040837308
0.606000000000000427,-2.940644452878011350
0.607000000000000428,-2.930822688136992760
0.608000000000000429,-2.920818472000624944
0.609000000000000430,-2.910634619170870074
