# Ce-001_TANNIC-ARM-ANION-AC
# h[nm],U(h)[kJ/mol]
0.149999999999999994,137.150149566284937919
0.150999999999999995,131.114434804281955849
0.151999999999999996,128.051559945844360300
0.152999999999999997,125.729438306265436154
0.153999999999999998,123.272031963298033475
0.154999999999999999,120.469120699223935844
0.156000000000000000,117.391961032145104582
0.157000000000000001,114.193270106129872943
0.158000000000000002,111.014303455950624766
0.159000000000000002,107.951019511204350465
0.160000000000000003,105.050320587186959642
0.161000000000000004,102.319499445496589374
0.162000000000000005,99.739612206145835671
0.163000000000000006,97.278114248892478599
0.164000000000000007,94.898795979762681441
0.165000000000000008,92.568547731590541616
0.166000000000000009,90.261234229460995948
0.167000000000000010,87.959271919897503267
0.168000000000000010,85.653569941042519531
0.169000000000000011,83.342437382258253820
0.170000000000000012,81.029947614044942839
0.171000000000000013,78.724125884772817585
0.172000000000000014,76.435210689920381810
0.173000000000000015,74.174142386383806524
0.174000000000000016,71.951356993005504137
0.175000000000000017,69.775908156632894475
0.176000000000000018,67.654903115907359279
0.177000000000000018,65.593215754423468411
0.178000000000000019,63.593428101343157266
0.179000000000000020,61.655947861038313818
0.180000000000000021,59.779251177749493706
0.181000000000000022,57.960204833101215627
0.182000000000000023,56.194428888700407754
0.183000000000000024,54.476668302401620281
0.184000000000000025,52.801149494495767556
0.185000000000000026,51.161904725015673989
0.186000000000000026,49.553053181908012448
0.187000000000000027,47.969032742255606649
0.188000000000000028,46.404780432975009319
0.189000000000000029,44.855862732552758132
0.190000000000000030,43.318559113750950473
0.191000000000000031,41.789903743756568133
0.192000000000000032,40.267691155833006178
0.193000000000000033,38.750452105928204105
0.194000000000000034,37.237405841211320023
0.195000000000000034,35.728394735292155815
0.196000000000000035,34.223806773197289033
0.197000000000000036,32.724490770062764966
0.198000000000000037,31.231668539303285570
0.199000000000000038,29.746847534509093691
0.200000000000000039,28.271736809146268854
0.201000000000000040,26.808168494337127896
0.202000000000000041,25.358026404594170344
0.203000000000000042,23.923182854828645816
0.204000000000000042,22.505444314492187630
0.205000000000000043,21.106506137559755132
0.206000000000000044,19.727916288436297521
0.207000000000000045,18.371047729857210129
0.208000000000000046,17.037078944108831280
0.209000000000000047,15.726981917224938101
0.210000000000000048,14.441516820621000505
0.211000000000000049,13.181232569250346032
0.212000000000000050,11.946472413334698004
0.213000000000000050,10.737383725946937574
0.214000000000000051,9.553931175591035441
0.215000000000000052,8.395912516393684299
0.216000000000000053,7.262976284134023963
0.217000000000000054,6.154640750234007029
0.218000000000000055,5.070313554728900662
0.219000000000000056,4.009311510402725709
0.220000000000000057,2.970880141466017754
0.221000000000000058,1.954212589611810547
0.222000000000000058,0.958467586621415513
0.223000000000000059,-0.017213745091753552
0.224000000000000060,-0.973692445237502424
0.225000000000000061,-1.911817750850344666
0.226000000000000062,-2.832414696514462982
0.227000000000000063,-3.736273321198633646
0.228000000000000064,-4.624139487789773462
0.229000000000000065,-5.496707291220637615
0.230000000000000066,-6.354613005916151636
0.231000000000000066,-7.198430502807315001
0.232000000000000067,-8.028668049999671652
0.233000000000000068,-8.845766398943901265
0.234000000000000069,-9.650098049228347463
0.235000000000000070,-10.441967579494683349
0.236000000000000071,-11.221612929069994635
0.237000000000000072,-11.989207514337266502
0.238000000000000073,-12.744863065268138058
0.239000000000000073,-13.488633070586368845
0.240000000000000074,-14.220516724414608234
0.241000000000000075,-14.940463272694197272
0.242000000000000076,-15.648376663914584483
0.243000000000000077,-16.344120415519771683
0.244000000000000078,-17.027522614576959370
0.245000000000000079,-17.698380978729638002
0.246000000000000080,-18.356467910964450851
0.247000000000000081,-19.001535489179385507
0.248000000000000081,-19.633320338841393493
0.249000000000000082,-20.251548344085573916
0.250000000000000111,-20.855939159366073454
0.251000000000000112,-21.446210490169086427
0.252000000000000113,-22.022082117305377125
0.253000000000000114,-22.583279644880271064
0.254000000000000115,-23.129537957187558561
0.255000000000000115,-23.660604374470995737
0.256000000000000116,-24.176241501752613772
0.257000000000000117,-24.676229768741752224
0.258000000000000118,-25.160369662224585596
0.259000000000000119,-25.628483655308503586
0.260000000000000120,-26.080417840476066260
0.261000000000000121,-26.516043275608971896
0.262000000000000122,-26.935257054000295796
0.263000000000000123,-27.337983110902666084
0.264000000000000123,-27.724172780389597648
0.265000000000000124,-28.093805117257971915
0.266000000000000125,-28.446886999400099683
0.267000000000000126,-28.783453026544400188
0.268000000000000127,-29.103565231531497659
0.269000000000000128,-29.407312620376821144
0.270000000000000129,-29.694810557295557629
0.271000000000000130,-29.966200010651057539
0.272000000000000131,-30.221646675451154351
0.273000000000000131,-30.461339987578647026
0.274000000000000132,-30.685492044416729840
0.275000000000000133,-30.894336445935088875
0.276000000000000134,-31.088127069649623024
0.277000000000000135,-31.267136792171804416
0.278000000000000136,-31.431656169335553841
0.279000000000000137,-31.581992086137898212
0.280000000000000138,-31.718466386965694426
0.281000000000000139,-31.841414495812710328
0.282000000000000139,-31.951184035424422092
0.283000000000000140,-32.048133453551542971
0.284000000000000141,-32.132630663749303324
0.285000000000000142,-32.205051707435515596
0.286000000000000143,-32.265779443218505662
0.287000000000000144,-32.315202268829125387
0.288000000000000145,-32.353712880344104974
0.289000000000000146,-32.381707072768890043
0.290000000000000147,-32.399582585462667339
0.291000000000000147,-32.407737995334414904
0.292000000000000148,-32.406571660218666864
0.293000000000000149,-32.396480714352790642
0.294000000000000150,-32.377860117424468456
0.295000000000000151,-32.351101758238463901
0.296000000000000152,-32.316593613663741280
0.297000000000000153,-32.274718963167728703
0.298000000000000154,-32.225855658919464020
0.299000000000000155,-32.170375451149773482
0.300000000000000155,-32.108643368191103207
0.301000000000000156,-32.041017150382465672
0.302000000000000157,-31.967846736813278596
0.303000000000000158,-31.889473803694535547
0.304000000000000159,-31.806231352982926808
0.305000000000000160,-31.718443349743637327
0.306000000000000161,-31.626424406618706797
0.307000000000000162,-31.530479513668211666
0.308000000000000163,-31.430903811770395606
0.309000000000000163,-31.327982407702315015
0.310000000000000164,-31.221990228974402015
0.311000000000000165,-31.113191916457090258
0.312000000000000166,-31.001841752817444586
0.313000000000000167,-30.888183624773535740
0.314000000000000168,-30.772451017176443600
0.315000000000000169,-30.654867036940810721
0.316000000000000170,-30.535644464865299597
0.317000000000000171,-30.414985833411947169
0.318000000000000171,-30.293083528548258698
0.319000000000000172,-30.170119913797265099
0.320000000000000173,-30.046267474686182197
0.321000000000000174,-29.921688981835679044
0.322000000000000175,-29.796537670985781432
0.323000000000000176,-29.670957438312576926
0.324000000000000177,-29.545083049449708312
0.325000000000000178,-29.419040360691344205
0.326000000000000179,-29.292946550916973081
0.327000000000000179,-29.166910362843474047
0.328000000000000180,-29.041032352275198747
0.329000000000000181,-28.915405144089312728
0.330000000000000182,-28.790113693758605962
0.331000000000000183,-28.665235553280403735
0.332000000000000184,-28.540841140444165092
0.333000000000000185,-28.416994010434894591
0.334000000000000186,-28.293751128832116848
0.335000000000000187,-28.171163145125554195
0.336000000000000187,-28.049274665929193162
0.337000000000000188,-27.928124527133341815
0.338000000000000189,-27.807746064291603005
0.339000000000000190,-27.688167380594553180
0.340000000000000191,-27.569411611834617304
0.341000000000000192,-27.451497187818784340
0.342000000000000193,-27.334438089733605892
0.343000000000000194,-27.218244103015628355
0.344000000000000195,-27.102921065324039773
0.345000000000000195,-26.988471109256721547
0.346000000000000196,-26.874892899490703257
0.347000000000000197,-26.762181864067947856
0.348000000000000198,-26.650330419583731612
0.349000000000000199,-26.539328190070119007
0.350000000000000200,-26.429162219399938039
0.351000000000000201,-26.319817177067751146
0.352000000000000202,-26.211275557233353339
0.353000000000000203,-26.103517870941068679
0.354000000000000203,-25.996522831453198421
0.355000000000000204,-25.890267532660043770
0.356000000000000205,-25.784727620551155525
0.357000000000000206,-25.679877457753086389
0.358000000000000207,-25.575690281157257289
0.359000000000000208,-25.472138352680140372
0.360000000000000209,-25.369193103213081741
0.361000000000000210,-25.266825269834082945
0.362000000000000210,-25.165005026367559537
0.363000000000000211,-25.063702107389520535
0.364000000000000212,-24.962885925787340113
0.365000000000000213,-24.862525683992338088
0.366000000000000214,-24.762590479012715150
0.367000000000000215,-24.663049401401629268
0.368000000000000216,-24.563871628302354821
0.369000000000000217,-24.465026510717841290
0.370000000000000218,-24.366483655157487931
0.371000000000000218,-24.268212999817631470
0.372000000000000219,-24.170184885456102108
0.373000000000000220,-24.072370121123665143
0.374000000000000221,-23.974740044917403736
0.375000000000000222,-23.877266579922270751
0.376000000000000223,-23.779922285508597213
0.377000000000000224,-23.682680404152822717
0.378000000000000225,-23.585514903949437837
0.379000000000000226,-23.488400516980924237
0.380000000000000226,-23.391312773712218842
0.381000000000000227,-23.294228033573897818
0.382000000000000228,-23.197123511897824955
0.383000000000000229,-23.099977303365939463
0.384000000000000230,-23.002768402131135161
0.385000000000000231,-22.905476718766735189
0.386000000000000232,-22.808083094197929341
0.387000000000000233,-22.710569310765968964
0.388000000000000234,-22.612918100572446889
0.389000000000000234,-22.515113151248222323
0.390000000000000235,-22.417139109287436582
0.391000000000000236,-22.318981581084280208
0.392000000000000237,-22.220627131805876786
0.393000000000000238,-22.122063282231589909
0.394000000000000239,-22.023278503684707630
0.395000000000000240,-21.924262211179076587
0.396000000000000241,-21.825004754899300252
0.397000000000000242,-21.725497410129062104
0.398000000000000242,-21.625732365738588925
0.399000000000000243,-21.525702711338208672
0.400000000000000244,-21.425402423200985425
0.401000000000000245,-21.324826349054006869
0.402000000000000246,-21.223970191833547716
0.403000000000000247,-21.122830492495960897
0.404000000000000248,-21.021404611972293708
0.405000000000000249,-20.919690712351016515
0.406000000000000250,-20.817687737369372059
0.407000000000000250,-20.715395392290790966
0.408000000000000251,-20.612814123241761877
0.409000000000000252,-20.509945096078684657
0.410000000000000253,-20.406790174851288100
0.411000000000000254,-20.303351899926560975
0.412000000000000255,-20.199633465833354506
0.413000000000000256,-20.095638698885224471
0.414000000000000257,-19.991372034635514154
0.415000000000000258,-19.886838495216323963
0.416000000000000258,-19.782043666609560262
0.417000000000000259,-19.676993675895950275
0.418000000000000260,-19.571695168524943398
0.419000000000000261,-19.466155285645822204
0.420000000000000262,-19.360381641538037201
0.421000000000000263,-19.254382301176118375
0.422000000000000264,-19.148165757962143374
0.423000000000000265,-19.041740911656670932
0.424000000000000266,-18.935117046536870333
0.425000000000000266,-18.828303809808097924
0.426000000000000267,-18.721311190293569382
0.427000000000000268,-18.614149497424797630
0.428000000000000269,-18.506829340553203167
0.429000000000000270,-18.399361608602099238
0.430000000000000271,-18.291757450076055136
0.431000000000000272,-18.184028253443322853
0.432000000000000273,-18.076185627905267950
0.433000000000000274,-17.968241384565381225
0.434000000000000274,-17.860207518008863303
0.435000000000000275,-17.752096188302736834
0.436000000000000276,-17.643919703424728596
0.437000000000000277,-17.535690502128250756
0.438000000000000278,-17.427421137249613281
0.439000000000000279,-17.319124259462416404
0.440000000000000280,-17.210812601483002737
0.441000000000000281,-17.102498962730003029
0.442000000000000282,-16.994196194440046810
0.443000000000000282,-16.885917185240650440
0.444000000000000283,-16.777674847180769291
0.445000000000000284,-16.669482102218527331
0.446000000000000285,-16.561351869164834483
0.447000000000000286,-16.453297051081367641
0.448000000000000287,-16.345330523129980804
0.449000000000000288,-16.237465120870972157
0.450000000000000289,-16.129713629006154463
0.451000000000000290,-16.022088770562866955
0.452000000000000290,-15.914603196514235606
0.453000000000000291,-15.807269475830604932
0.454000000000000292,-15.700100085956780305
0.455000000000000293,-15.593107403709144165
0.456000000000000294,-15.486303696586594114
0.457000000000000295,-15.379701114488847580
0.458000000000000296,-15.273311681835206599
0.459000000000000297,-15.167147290077064525
0.460000000000000298,-15.061219690596653109
0.461000000000000298,-14.955540487984819720
0.462000000000000299,-14.850121133690189268
0.463000000000000300,-14.744972920031827357
0.464000000000000301,-14.640106974567753895
0.465000000000000302,-14.535534254811196320
0.466000000000000303,-14.431265543286448505
0.467000000000000304,-14.327311442916277784
0.468000000000000305,-14.223682372732616486
0.469000000000000306,-14.120388563902304568
0.470000000000000306,-14.017440056059621512
0.471000000000000307,-13.914846693937173328
0.472000000000000308,-13.812618124287121546
0.473000000000000309,-13.710763793084163709
0.474000000000000310,-13.609292943002282428
0.475000000000000311,-13.508214611156779128
0.476000000000000312,-13.407537627103835121
0.477000000000000313,-13.307270611088963363
0.478000000000000314,-13.207421972536749877
0.479000000000000314,-13.107999908773757980
0.480000000000000315,-13.009012403976580430
0.481000000000000316,-12.910467228337546786
0.482000000000000317,-12.812371937440076408
0.483000000000000318,-12.714733871836248369
0.484000000000000319,-12.617560156819052963
0.485000000000000320,-12.520857702381984922
0.486000000000000321,-12.424633203358649070
0.487000000000000322,-12.328893139735246365
0.488000000000000322,-12.233643777128929031
0.489000000000000323,-12.138891167425196471
0.490000000000000324,-12.044641149567418381
0.491000000000000325,-11.950899350492033335
0.492000000000000326,-11.857671186202695779
0.493000000000000327,-11.764961862977276752
0.494000000000000328,-11.672776378701243516
0.495000000000000329,-11.581119524321518810
0.496000000000000330,-11.489995885414693078
0.497000000000000330,-11.399409843863985259
0.498000000000000331,-11.309365579639036881
0.499000000000000332,-11.219867072673260111
0.500000000000000333,-11.130918104833169124
0.501000000000000334,-11.042522261974477615
0.502000000000000335,-10.954682936079896294
0.503000000000000336,-10.867403327473677876
0.504000000000000337,-10.780686447107944659
0.505000000000000338,-10.694535118916229877
0.506000000000000338,-10.608951982229644528
0.507000000000000339,-10.523939494251148830
0.508000000000000340,-10.439499932583718333
0.509000000000000341,-10.355635397808308440
0.510000000000000342,-10.272347816107362917
0.511000000000000343,-10.189638941930187599
0.512000000000000344,-10.107510360696251084
0.513000000000000345,-10.025963491532861482
0.514000000000000346,-9.944999590043643423
0.515000000000000346,-9.864619751104388712
0.516000000000000347,-9.784824911682965976
0.517000000000000348,-9.705615853680313876
0.518000000000000349,-9.626993206789061119
0.519000000000000350,-9.548957451367282800
0.520000000000000351,-9.471508921324190311
0.521000000000000352,-9.394647807015278573
0.522000000000000353,-9.318374158144147046
0.523000000000000353,-9.242687886668498720
0.524000000000000354,-9.167588769708075347
0.525000000000000355,-9.093076452451921199
0.526000000000000356,-9.019150451062987628
0.527000000000000357,-8.945810155577927247
0.528000000000000358,-8.873054832799846636
0.529000000000000359,-8.800883629182417067
0.530000000000000360,-8.729295573703151234
0.531000000000000361,-8.658289580724330747
0.532000000000000361,-8.587864452839744089
0.533000000000000362,-8.518018883705734012
0.534000000000000363,-8.448751460854998285
0.535000000000000364,-8.380060668491672971
0.536000000000000365,-8.311944890266364183
0.537000000000000366,-8.244402412029888438
0.538000000000000367,-8.177431424564311158
0.539000000000000368,-8.111030026290418249
0.540000000000000369,-8.045196225950210334
0.541000000000000369,-7.979927945263701972
0.542000000000000370,-7.915223021558839278
0.543000000000000371,-7.851079210373724138
0.544000000000000372,-7.787494188030353648
0.545000000000000373,-7.724465554179031024
0.546000000000000374,-7.661990834312701004
0.547000000000000375,-7.600067482250581818
0.548000000000000376,-7.538692882590519062
0.549000000000000377,-7.477864353129395347
0.550000000000000377,-7.417579147251072591
0.551000000000000378,-7.357834456281503677
0.552000000000000379,-7.298627411810483245
0.553000000000000380,-7.239955087979678794
0.554000000000000381,-7.181814503736548616
0.555000000000000382,-7.124202625054020466
0.556000000000000383,-7.067116367115349185
0.557000000000000384,-7.010552596464269648
0.558000000000000385,-6.954508133119982283
0.559000000000000385,-6.898979752656974718
0.560000000000000386,-6.843964188249460179
0.561000000000000387,-6.789458132680399771
0.562000000000000388,-6.735458240314997624
0.563000000000000389,-6.681961129038670677
0.564000000000000390,-6.628963382159445139
0.565000000000000391,-6.576461550274840917
0.566000000000000392,-6.524452153103251995
0.567000000000000393,-6.472931681279940008
0.568000000000000393,-6.421896598117646349
0.569000000000000394,-6.371343341332027954
0.570000000000000395,-6.321268324732029598
0.571000000000000396,-6.271667939875259279
0.572000000000000397,-6.222538557688714000
0.573000000000000398,-6.173876530054836387
0.574000000000000399,-6.125678191363336467
0.575000000000000400,-6.077939860028769736
0.576000000000000401,-6.030657839974304935
0.577000000000000401,-5.983828422081871601
0.578000000000000402,-5.937447885608866827
0.579000000000000403,-5.891512499571842199
0.580000000000000404,-5.846018524097403635
0.581000000000000405,-5.800962211740588792
0.582000000000000406,-5.756339808771111066
0.583000000000000407,-5.712147556427721540
0.584000000000000408,-5.668381692141105432
0.585000000000000409,-5.625038450725570627
0.586000000000000409,-5.582114065539933279
0.587000000000000410,-5.539604769617957558
0.588000000000000411,-5.497506796768669268
0.589000000000000412,-5.455816382646991869
0.590000000000000413,-5.414529765794972249
0.591000000000000414,-5.373643188654083858
0.592000000000000415,-5.333152898548966903
0.593000000000000416,-5.293055148642914709
0.594000000000000417,-5.253346198865587624
0.595000000000000417,-5.214022316813421654
0.596000000000000418,-5.175079778622835747
0.597000000000000419,-5.136514869817077056
0.598000000000000420,-5.098323886126679305
0.599000000000000421,-5.060503134284251026
0.600000000000000422,-5.023048932793826360
0.601000000000000423,-4.985957612675286477
0.602000000000000424,-4.949225518184173112
0.603000000000000425,-4.912849007507372967
0.604000000000000425,-4.876824453435062878
0.605000000000000426,-4.841148244009275459
0.606000000000000427,-4.805816783149625238
