# Ce-001_BSAI11
# h[nm],U(h)[kJ/mol]
0.149999999999999994,124.311548442522095570
0.150999999999999995,119.676813043451190310
0.151999999999999996,115.974446389888043996
0.152999999999999997,112.503789436908846255
0.153999999999999998,109.020071548991126065
0.154999999999999999,105.486356526829737845
0.156000000000000000,101.942552996443808411
0.157000000000000001,98.442136961197377332
0.158000000000000002,95.026256788122623220
0.159000000000000002,91.717085285079377854
0.160000000000000003,88.519966039370999056
0.161000000000000004,85.428636737442445792
0.162000000000000005,82.430649621013131423
0.163000000000000006,79.511744949685038364
0.164000000000000007,76.658824568570679503
0.165000000000000008,73.861615607480231915
0.166000000000000009,71.113297663396778603
0.167000000000000010,68.410408254461088973
0.168000000000000010,65.752312315011621990
0.169000000000000011,63.140463758268218442
0.170000000000000012,60.577623709820102249
0.171000000000000013,58.067142500555675610
0.172000000000000014,55.612365716731254395
0.173000000000000015,53.216189549996371966
0.174000000000000016,50.880766425060350855
0.175000000000000017,48.607346608754383510
0.176000000000000018,46.396233204401724493
0.177000000000000018,44.246824710806642145
0.178000000000000019,42.157719550838457678
0.179000000000000020,40.126859349014992517
0.180000000000000021,38.151691273954504879
0.181000000000000022,36.229333750686642190
0.182000000000000023,34.356733809231243981
0.183000000000000024,32.530807968977626388
0.184000000000000025,30.748561697552890593
0.185000000000000026,29.007185059127483129
0.186000000000000026,27.304124177368180426
0.187000000000000027,25.637129621207986219
0.188000000000000028,24.004283839770675257
0.189000000000000029,22.404010399556675281
0.190000000000000030,20.835068087756351218
0.191000000000000031,19.296533011930613100
0.192000000000000032,17.787771712744266495
0.193000000000000033,16.308408068521508483
0.194000000000000034,14.858286454280392519
0.195000000000000034,13.437433260583707906
0.196000000000000035,12.046018507593736047
0.197000000000000036,10.684318928274102234
0.198000000000000037,9.352683556556256050
0.199000000000000038,8.051502551073992819
0.200000000000000039,6.781179718184914051
0.201000000000000040,5.542108971622633717
0.202000000000000041,4.334654780027493715
0.203000000000000042,3.159136505833004982
0.204000000000000042,2.015816426433242992
0.205000000000000043,0.904891147429709441
0.206000000000000044,-0.173513936086953646
0.207000000000000045,-1.219347505022626121
0.208000000000000046,-2.232632895090152836
0.209000000000000047,-3.213466772069582866
0.210000000000000048,-4.162016271496268516
0.211000000000000049,-5.078514946968234689
0.212000000000000050,-5.963257841507907386
0.213000000000000050,-6.816595962936335518
0.214000000000000051,-7.638930408893344293
0.215000000000000052,-8.430706351463060244
0.216000000000000053,-9.192407056519149577
0.217000000000000054,-9.924548079775806997
0.218000000000000055,-10.627671750754567270
0.219000000000000056,-11.302342027877351427
0.220000000000000057,-11.949139782923687392
0.221000000000000058,-12.568658551240361021
0.222000000000000058,-13.161500765365284238
0.223000000000000059,-13.728274474013536732
0.224000000000000060,-14.269590535517195917
0.225000000000000061,-14.786060264597418623
0.226000000000000062,-15.278293503538304066
0.227000000000000063,-15.746897083172749277
0.228000000000000064,-16.192473635316900982
0.229000000000000065,-16.615620716147073921
0.230000000000000066,-17.016930199246758093
0.231000000000000066,-17.396987897431390735
0.232000000000000067,-17.756373373762905032
0.233000000000000068,-18.095659904198068801
0.234000000000000069,-18.415414556895484566
0.235000000000000070,-18.716198356177770279
0.236000000000000071,-18.998566502370771047
0.237000000000000072,-19.263068622104974281
0.238000000000000073,-19.510249027063306215
0.239000000000000073,-19.740646962515462803
0.240000000000000074,-19.954796830225589588
0.241000000000000075,-20.153228373404211027
0.242000000000000076,-20.336466814259217983
0.243000000000000077,-20.505032937357078993
0.244000000000000078,-20.659443114414820286
0.245000000000000079,-20.800209268295969167
0.246000000000000080,-20.927838775877397381
0.247000000000000081,-21.042834311091269228
0.248000000000000081,-21.145693630832987253
0.249000000000000082,-21.236909307575150052
0.250000000000000111,-21.316968413451611752
0.251000000000000112,-21.386352161289941876
0.252000000000000113,-21.445535508594637975
0.253000000000000114,-21.494986730830270005
0.254000000000000115,-21.535166970548043963
0.255000000000000115,-21.566529768952896973
0.256000000000000116,-21.589520586443402550
0.257000000000000117,-21.604576318488593500
0.258000000000000118,-21.612124812950163744
0.259000000000000119,-21.612584394632591511
0.260000000000000120,-21.606363402460075918
0.261000000000000121,-21.593859744250803345
0.262000000000000122,-21.575460473599900268
0.263000000000000123,-21.551541392899899563
0.264000000000000123,-21.522466686034871231
0.265000000000000124,-21.488588583786444985
0.266000000000000125,-21.450247064496949179
0.267000000000000126,-21.407769592051074881
0.268000000000000127,-21.361470892769244045
0.269000000000000128,-21.311652772357135177
0.270000000000000129,-21.258603973630034289
0.271000000000000130,-21.202600075331215379
0.272000000000000131,-21.143903431991745379
0.273000000000000131,-21.082763154436541697
0.274000000000000132,-21.019415130229734956
0.275000000000000133,-20.954082083071089215
0.276000000000000134,-20.886973669904499218
0.277000000000000135,-20.818286614279404745
0.278000000000000136,-20.748204874315426594
0.279000000000000137,-20.676899843458443229
0.280000000000000138,-20.604530582082187351
0.281000000000000139,-20.531244077880998589
0.282000000000000139,-20.457175532916188843
0.283000000000000140,-20.382448675118091330
0.284000000000000141,-20.307176092007253487
0.285000000000000142,-20.231459584379454242
0.286000000000000143,-20.155390537698824716
0.287000000000000144,-20.079050308958912296
0.288000000000000145,-20.002510626803346128
0.289000000000000146,-19.925834002740881346
0.290000000000000147,-19.849074151346549399
0.291000000000000147,-19.772276417406050797
0.292000000000000148,-19.695478208036178103
0.293000000000000149,-19.618709427895971942
0.294000000000000150,-19.541992915692013355
0.295000000000000151,-19.465344880275065265
0.296000000000000152,-19.388775334722101462
0.297000000000000153,-19.312288526898459651
0.298000000000000154,-19.235883365096398734
0.299000000000000155,-19.159553837449568192
0.300000000000000155,-19.083289423925997141
0.301000000000000156,-19.007075499804727770
0.302000000000000157,-18.930893729642843226
0.303000000000000158,-18.854722450839190628
0.304000000000000159,-18.778537045998980659
0.305000000000000160,-18.702310303397698732
0.306000000000000161,-18.626012764935335753
0.307000000000000162,-18.549613061059996966
0.308000000000000163,-18.473078232224988682
0.309000000000000163,-18.396374036524825613
0.310000000000000164,-18.319465243232610163
0.311000000000000165,-18.242315912034378300
0.312000000000000166,-18.164889657825234792
0.313000000000000167,-18.087149900996500662
0.314000000000000168,-18.009060103204046044
0.315000000000000169,-17.930583988664039907
0.316000000000000170,-17.851685751074825248
0.317000000000000171,-17.772330246311572211
0.318000000000000171,-17.692483171084397497
0.319000000000000172,-17.612111227791132251
0.320000000000000173,-17.531182275831806550
0.321000000000000174,-17.449665469684948249
0.322000000000000175,-17.367531384074702316
0.323000000000000176,-17.284752126583690313
0.324000000000000177,-17.201301438088517415
0.325000000000000178,-17.117154781414701148
0.326000000000000179,-17.032289418623726363
0.327000000000000179,-16.946684477358694210
0.328000000000000180,-16.860321006685694556
0.329000000000000181,-16.773182022877023201
0.330000000000000182,-16.685252545587584194
0.331000000000000183,-16.596519624880667010
0.332000000000000184,-16.506972359560542429
0.333000000000000185,-16.416601907269619431
0.334000000000000186,-16.325401486806409679
0.335000000000000187,-16.233366373116801640
0.336000000000000187,-16.140493885407046548
0.337000000000000188,-16.046783368820335625
0.338000000000000189,-15.952236170112010782
0.339000000000000190,-15.856855607750087955
0.340000000000000191,-15.760646936858316636
0.341000000000000192,-15.663617309409653799
0.342000000000000193,-15.565775730066278015
0.343000000000000194,-15.467133008051911602
0.344000000000000195,-15.367701705429320569
0.345000000000000195,-15.267496082144361935
0.346000000000000196,-15.166532038184357134
0.347000000000000197,-15.064827053186220951
0.348000000000000198,-14.962400123816030018
0.349000000000000199,-14.859271699228489894
0.350000000000000200,-14.755463614901287883
0.351000000000000201,-14.650999025125580388
0.352000000000000202,-14.545902334420478752
0.353000000000000203,-14.440199128125945194
0.354000000000000203,-14.333916102414965721
0.355000000000000204,-14.227080993952842647
0.356000000000000205,-14.119722509418300760
0.357000000000000206,-14.011870255088457071
0.358000000000000207,-13.903554666676688711
0.359000000000000208,-13.794806939600798401
0.360000000000000209,-13.685658959846255911
0.361000000000000210,-13.576143235577902146
0.362000000000000210,-13.466292829642057427
0.363000000000000211,-13.356141293089930144
0.364000000000000212,-13.245722599842517653
0.365000000000000213,-13.135071082606909698
0.366000000000000214,-13.024221370143896692
0.367000000000000215,-12.913208325977203472
0.368000000000000216,-12.802066988625583122
0.369000000000000217,-12.690832513429894490
0.370000000000000218,-12.579540116039222397
0.371000000000000218,-12.468225017611617389
0.372000000000000219,-12.356922391777667158
0.373000000000000220,-12.245667313407599508
0.374000000000000221,-12.134494709215733366
0.375000000000000222,-12.023439310229417032
0.376000000000000223,-11.912535606143467959
0.377000000000000224,-11.801817801575158029
0.378000000000000225,-11.691319774229267381
0.379000000000000226,-11.581075034977425631
0.380000000000000226,-11.471116689851346138
0.381000000000000227,-11.361477403944482134
0.382000000000000228,-11.252189367212988458
0.383000000000000229,-11.143284262162417519
0.384000000000000230,-11.034793233402970358
0.385000000000000231,-10.926746859053109162
0.386000000000000232,-10.819175123967635699
0.387000000000000233,-10.712107394763858537
0.388000000000000234,-10.605572396616640418
0.389000000000000234,-10.499598191791021051
0.390000000000000235,-10.394212159878392754
0.391000000000000236,-10.289440979700930967
0.392000000000000237,-10.185310612846661726
0.393000000000000238,-10.081846288796487698
0.394000000000000239,-9.979072491602677175
0.395000000000000240,-9.877012948077618759
0.396000000000000241,-9.775690617450282005
0.397000000000000242,-9.675127682447097754
0.398000000000000242,-9.575345541753488732
0.399000000000000243,-9.476364803811337723
0.400000000000000244,-9.378205281907522561
0.401000000000000245,-9.280885990508561889
0.402000000000000246,-9.184425142795737074
0.403000000000000247,-9.088840149355382536
0.404000000000000248,-8.994147617979113107
0.405000000000000249,-8.900363354528671778
0.406000000000000250,-8.807502364820466667
0.407000000000000250,-8.715578857485237307
0.408000000000000251,-8.624606247758517696
0.409000000000000252,-8.534597162158288342
0.410000000000000253,-8.445563444006420895
0.411000000000000254,-8.357516159751529727
0.412000000000000255,-8.270465606051033092
0.413000000000000256,-8.184421317571390020
0.414000000000000257,-8.099392075465820184
0.415000000000000258,-8.015385916489897511
0.416000000000000258,-7.932410142716102897
0.417000000000000259,-7.850471331809228737
0.418000000000000260,-7.769575347825569800
0.419000000000000261,-7.689727352499528656
0.420000000000000262,-7.610931816982400733
0.421000000000000263,-7.533192533998935403
0.422000000000000264,-7.456512630388128393
0.423000000000000265,-7.380894579995901594
0.424000000000000266,-7.306340216888163930
0.425000000000000266,-7.232850748853626222
0.426000000000000267,-7.160426771166974902
0.427000000000000268,-7.089068280583743054
0.428000000000000269,-7.018774689539371892
0.429000000000000270,-6.949544840525855527
0.430000000000000271,-6.881377020620351281
0.431000000000000272,-6.814268976141052647
0.432000000000000273,-6.748217927406729544
0.433000000000000274,-6.683220583577084817
0.434000000000000274,-6.619273157552173714
0.435000000000000275,-6.556371380909962632
0.436000000000000276,-6.494510518862108839
0.437000000000000277,-6.433685385208756102
0.438000000000000278,-6.373890357274264673
0.439000000000000279,-6.315119390806522404
0.440000000000000280,-6.257366034823223622
0.441000000000000281,-6.200623446389600169
0.442000000000000282,-6.144884405312710740
0.443000000000000282,-6.090141328738154947
0.444000000000000283,-6.036386285636047511
0.445000000000000284,-5.983611011163661786
0.446000000000000285,-5.931806920892896962
0.447000000000000286,-5.880965124891677220
0.448000000000000287,-5.831076441648658459
0.449000000000000288,-5.782131411831765710
0.450000000000000289,-5.734120311871388154
0.451000000000000290,-5.687033167359835772
0.452000000000000290,-5.640859766259335828
0.453000000000000291,-5.595589671911302077
0.454000000000000292,-5.551212235840319309
0.455000000000000293,-5.507716610346713892
0.456000000000000294,-5.465091760882300420
0.457000000000000295,-5.423326478204184120
0.458000000000000296,-5.382409390302212771
0.459000000000000297,-5.342328974096016481
0.460000000000000298,-5.303073566898092395
0.461000000000000298,-5.264631377639804377
0.462000000000000299,-5.226990497857667783
0.463000000000000300,-5.190138912437560315
0.464000000000000301,-5.154064510115070163
0.465000000000000302,-5.118755093730404937
0.466000000000000303,-5.084198390236748466
0.467000000000000304,-5.050382060461218181
0.468000000000000305,-5.017293708618001169
0.469000000000000306,-4.984920891573460189
0.470000000000000306,-4.953251127863333991
0.471000000000000307,-4.922271906462426294
0.472000000000000308,-4.891970695307529482
0.473000000000000309,-4.862334949574391274
0.474000000000000310,-4.833352119709986461
0.475000000000000311,-4.805009659221413543
0.476000000000000312,-4.777295032223102922
0.477000000000000313,-4.750195720744019745
0.478000000000000314,-4.723699231796944176
0.479000000000000314,-4.697793104211990034
0.480000000000000315,-4.672464915236614225
0.481000000000000316,-4.647702286904724645
0.482000000000000317,-4.623492892177392122
0.483000000000000318,-4.599824460858033426
0.484000000000000319,-4.576684785284847123
0.485000000000000320,-4.554061725803633998
0.486000000000000321,-4.531943216023980092
0.487000000000000322,-4.510317267862080648
0.488000000000000322,-4.489171976373456552
0.489000000000000323,-4.468495524378953476
0.490000000000000324,-4.448276186887471617
0.491000000000000325,-4.428502335318908578
0.492000000000000326,-4.409162441530851240
0.493000000000000327,-4.390245081652720316
0.494000000000000328,-4.371738939730909657
0.495000000000000329,-4.353632811188707485
0.496000000000000330,-4.335915606104643771
0.497000000000000330,-4.318576352313093558
0.498000000000000331,-4.301604198330817752
0.499000000000000332,-4.284988416113296061
0.500000000000000333,-4.268718403644617965
0.501000000000000334,-4.252783687364706466
0.502000000000000335,-4.237173924437724892
0.503000000000000336,-4.221878904865413062
0.504000000000000337,-4.206888553449170232
0.505000000000000338,-4.192192931604636463
0.506000000000000338,-4.177782239032568512
0.507000000000000339,-4.163646815249703259
0.508000000000000340,-4.149777140983366586
0.509000000000000341,-4.136163839433521616
0.510000000000000342,-4.122797677405888095
0.511000000000000343,-4.109669566319822387
0.512000000000000344,-4.096770563094514372
0.513000000000000345,-4.084091870917083256
0.514000000000000346,-4.071624839896157866
0.515000000000000346,-4.059360967604344061
0.516000000000000347,-4.047291899513074220
0.517000000000000348,-4.035409429323301822
0.518000000000000349,-4.023705499195299851
0.519000000000000350,-4.012172199880951418
0.520000000000000351,-4.000801770761811760
0.521000000000000352,-3.989586599796125288
0.522000000000000353,-3.978519223377992908
0.523000000000000353,-3.967592326111804901
0.524000000000000354,-3.956798740505047984
0.525000000000000355,-3.946131446582442415
0.526000000000000356,-3.935583571424432048
0.527000000000000357,-3.925148388632936580
0.528000000000000358,-3.914819317727203263
0.529000000000000359,-3.904589923472565172
0.530000000000000360,-3.894453915144904244
0.531000000000000361,-3.884405145733465847
0.532000000000000361,-3.874437611084695643
0.533000000000000362,-3.864545448989674892
0.534000000000000363,-3.854722938217717942
0.535000000000000364,-3.844964497498558842
0.536000000000000365,-3.835264684455595763
0.537000000000000366,-3.825618194492566460
0.538000000000000367,-3.816019859635905842
0.539000000000000368,-3.806464647335154439
0.540000000000000369,-3.796947659223500526
0.541000000000000369,-3.787464129840728333
0.542000000000000370,-3.778009425320582260
0.543000000000000371,-3.768579042044633898
0.544000000000000372,-3.759168605264650687
0.545000000000000373,-3.749773867695401552
0.546000000000000374,-3.740390708079780246
0.547000000000000375,-3.731015129728076918
0.548000000000000376,-3.721643259033267093
0.549000000000000377,-3.712271343963935433
0.550000000000000377,-3.702895752536618179
0.551000000000000378,-3.693512971269172773
0.552000000000000379,-3.684119603616775152
0.553000000000000380,-3.674712368392084816
0.554000000000000381,-3.665288098171080922
0.555000000000000382,-3.655843737686051753
0.556000000000000383,-3.646376342207083177
0.557000000000000384,-3.636883075913488916
0.558000000000000385,-3.627361210256437651
0.559000000000000385,-3.617808122314111863
0.560000000000000386,-3.608221293140573493
0.561000000000000387,-3.598598306109595857
0.562000000000000388,-3.588936845254569796
0.563000000000000389,-3.579234693605611195
0.564000000000000390,-3.569489731524948972
0.565000000000000391,-3.559699935041628294
0.566000000000000392,-3.549863374186521092
0.567000000000000393,-3.539978211328624891
0.568000000000000393,-3.530042699513527449
0.569000000000000394,-3.520055180804994244
0.570000000000000395,-3.510014084630492359
0.571000000000000396,-3.499917926131443924
0.572000000000000397,-3.489765304519091949
0.573000000000000398,-3.479554901436618053
0.574000000000000399,-3.469285479328321209
0.575000000000000400,-3.458955879816519197
0.576000000000000401,-3.448565022086813592
0.577000000000000401,-3.438111901282403515
0.578000000000000402,-3.427595586908005032
0.579000000000000403,-3.417015221243961953
0.580000000000000404,-3.406370017771128467
0.581000000000000405,-3.395659259607002323
0.582000000000000406,-3.384882297953620167
0.583000000000000407,-3.374038550557698635
0.584000000000000408,-3.363127500183460850
0.585000000000000409,-3.352148693098541798
0.586000000000000409,-3.341101737573415331
0.587000000000000410,-3.329986302394699837
0.588000000000000411,-3.318802115392673446
0.589000000000000412,-3.307548961983378888
0.590000000000000413,-3.296226683725568929
0.591000000000000414,-3.284835176892850761
0.592000000000000415,-3.273374391061238953
0.593000000000000416,-3.261844327712412728
0.594000000000000417,-3.250245038852880519
0.595000000000000417,-3.238576625649307594
0.596000000000000418,-3.226839237080135980
0.597000000000000419,-3.215033068603780464
0.598000000000000420,-3.203158360843451735
0.599000000000000421,-3.191215398288851368
0.600000000000000422,-3.179204508014813246
0.601000000000000423,-3.167126058417036649
0.602000000000000424,-3.154980457965017582
0.603000000000000425,-3.142768153972261835
0.604000000000000425,-3.130489631383848170
0.605000000000000426,-3.118145411581433102
0.606000000000000427,-3.105736051205750137
0.607000000000000428,-3.093262140996572818
0.608000000000000429,-3.080724304650319212
0.609000000000000430,-3.068123197695126869
