# Ce-001_BSAI26
# h[nm],U(h)[kJ/mol]
0.149999999999999994,113.411908415587532772
0.150999999999999995,109.393342563796480249
0.151999999999999996,106.075591229295426388
0.152999999999999997,102.921999129979468535
0.153999999999999998,99.745228063945546637
0.154999999999999999,96.519294399143362284
0.156000000000000000,93.279019647612784638
0.157000000000000001,90.070594748877851998
0.158000000000000002,86.930751879414600580
0.159000000000000002,83.880943453735454796
0.160000000000000003,80.928585368080845797
0.161000000000000004,78.070943111177854234
0.162000000000000005,75.299374863067441765
0.163000000000000006,72.602895896408696785
0.164000000000000007,69.970724510678749652
0.165000000000000008,67.393827471794850226
0.166000000000000009,64.865641438548806263
0.167000000000000010,62.382193768505715070
0.168000000000000010,59.941835331533127373
0.169000000000000011,57.544761602457739968
0.170000000000000012,55.192454545039787206
0.171000000000000013,52.887136189825369570
0.172000000000000014,50.631289696153189084
0.173000000000000015,48.427276421299573883
0.174000000000000016,46.277057831383139330
0.175000000000000017,44.182017946953500598
0.176000000000000018,42.142874120688603057
0.177000000000000018,40.159660002276019952
0.178000000000000019,38.231763408292856354
0.179000000000000020,36.358002534381135717
0.180000000000000021,34.536725782237581939
0.181000000000000022,32.765922873974375307
0.182000000000000023,31.043337502229100267
0.183000000000000024,29.366574257599712183
0.184000000000000025,27.733194827993163045
0.185000000000000026,26.140800394389447803
0.186000000000000026,24.587098724271072570
0.187000000000000027,23.069955692962473393
0.188000000000000028,21.587431871900243152
0.189000000000000029,20.137805451191120198
0.190000000000000030,18.719583156675017932
0.191000000000000031,17.331501024449590176
0.192000000000000032,15.972516951104813288
0.193000000000000033,14.641796883957772124
0.194000000000000034,13.338696385242204911
0.195000000000000034,12.062739124793626644
0.196000000000000035,10.813593649228250726
0.197000000000000036,9.591049558968373745
0.198000000000000037,8.394994010424383646
0.199000000000000038,7.225389258225193956
0.200000000000000039,6.082251767572581791
0.201000000000000040,4.965633263108871986
0.202000000000000041,3.875603939758410554
0.203000000000000042,2.812237943021004494
0.204000000000000042,1.775601130310324738
0.205000000000000043,0.765741049590411116
0.206000000000000044,-0.217320985234773362
0.207000000000000045,-1.173595883210428070
0.208000000000000046,-2.103131017021230953
0.209000000000000047,-3.006012917774199877
0.210000000000000048,-3.882368631367226985
0.211000000000000049,-4.732365941551239352
0.212000000000000050,-5.556212656602986577
0.213000000000000050,-6.354155144079003392
0.214000000000000051,-7.126476282762736147
0.215000000000000052,-7.873492983762164776
0.216000000000000053,-8.595553414687660876
0.217000000000000054,-9.293034042676405093
0.218000000000000055,-9.966336594303712104
0.219000000000000056,-10.615885013561001671
0.220000000000000057,-11.242122483397110955
0.221000000000000058,-11.845508562006859421
0.222000000000000058,-12.426516472237839395
0.223000000000000059,-12.985630571207503081
0.224000000000000060,-13.523344017480061652
0.225000000000000061,-14.040156644891254700
0.226000000000000062,-14.536573045249875591
0.227000000000000063,-15.013100856585783305
0.228000000000000064,-15.470249249237216560
0.229000000000000065,-15.908527598755057397
0.230000000000000066,-16.328444332217458168
0.231000000000000066,-16.730505932975560768
0.232000000000000067,-17.115216087965578140
0.233000000000000068,-17.483074961414381221
0.234000000000000069,-17.834578578928478976
0.235000000000000070,-18.170218306494891891
0.236000000000000071,-18.490480409750993829
0.237000000000000072,-18.795845679924529037
0.238000000000000073,-19.086789114036161408
0.239000000000000073,-19.363779638239954295
0.240000000000000074,-19.627279864505290163
0.241000000000000075,-19.877745872174195085
0.242000000000000076,-20.115627007231093870
0.243000000000000077,-20.341365693371486145
0.244000000000000078,-20.555397250132276810
0.245000000000000079,-20.758149714434768640
0.246000000000000080,-20.950043662882855244
0.247000000000000081,-21.131492033047901913
0.248000000000000081,-21.302899942754468299
0.249000000000000082,-21.464664507058788701
0.250000000000000111,-21.617174653187355204
0.251000000000000112,-21.760810934178213216
0.252000000000000113,-21.895945342351925689
0.253000000000000114,-22.022941124033401650
0.254000000000000115,-22.142152597163814676
0.255000000000000115,-22.253924973584670255
0.256000000000000116,-22.358594187856482449
0.257000000000000117,-22.456486734497147495
0.258000000000000118,-22.547919515498399790
0.259000000000000119,-22.633199699910644398
0.260000000000000120,-22.712624597183470598
0.261000000000000121,-22.786481545816570815
0.262000000000000122,-22.855047818722646014
0.263000000000000123,-22.918590546532055185
0.264000000000000123,-22.977366659886911293
0.265000000000000124,-23.031622851581577294
0.266000000000000125,-23.081595559214097335
0.267000000000000126,-23.127510968819130710
0.268000000000000127,-23.169585039763827439
0.269000000000000128,-23.208023551003787333
0.270000000000000129,-23.243022168620161239
0.271000000000000130,-23.274766534392842487
0.272000000000000131,-23.303432375009307975
0.273000000000000131,-23.329185631365458420
0.274000000000000132,-23.352182607284532878
0.275000000000000133,-23.372570136863394907
0.276000000000000134,-23.390485769551855100
0.277000000000000135,-23.406057971980978039
0.278000000000000136,-23.419406345479991671
0.279000000000000137,-23.430641858158367086
0.280000000000000138,-23.439867090378896819
0.281000000000000139,-23.447176492409532500
0.282000000000000139,-23.452656653015065302
0.283000000000000140,-23.456386577733830734
0.284000000000000141,-23.458437975579034429
0.285000000000000142,-23.458875552908107665
0.286000000000000143,-23.457757313215978456
0.287000000000000144,-23.455134861627850995
0.288000000000000145,-23.451053712895323144
0.289000000000000146,-23.445553601731923266
0.290000000000000147,-23.438668794364282633
0.291000000000000147,-23.430428400217945040
0.292000000000000148,-23.420856682705448293
0.293000000000000149,-23.409973368134668448
0.294000000000000150,-23.397793951809735091
0.295000000000000151,-23.384330000452877130
0.296000000000000152,-23.369589450132597364
0.297000000000000153,-23.353576898942730367
0.298000000000000154,-23.336293893735689409
0.299000000000000155,-23.317739210272534933
0.300000000000000155,-23.297909126211635567
0.301000000000000156,-23.276797686415640953
0.302000000000000157,-23.254396960114252835
0.303000000000000158,-23.230697289516037074
0.304000000000000159,-23.205687529517472711
0.305000000000000160,-23.179355278209861524
0.306000000000000161,-23.151687097936189730
0.307000000000000162,-23.122668726698766051
0.308000000000000163,-23.092285279765107475
0.309000000000000163,-23.060521441364379314
0.310000000000000164,-23.027361646408436968
0.311000000000000165,-22.992790252211655400
0.312000000000000166,-22.956791700220776420
0.313000000000000167,-22.919350667801037247
0.314000000000000168,-22.880452210157113058
0.315000000000000169,-22.840081892497430260
0.316000000000000170,-22.798225912578288899
0.317000000000000171,-22.754871213788945283
0.318000000000000171,-22.710005588962090428
0.319000000000000172,-22.663617775114886399
0.320000000000000173,-22.615697539343990741
0.321000000000000174,-22.566235756114600974
0.322000000000000175,-22.515224476197840175
0.323000000000000176,-22.462656987523374141
0.324000000000000177,-22.408527868224688007
0.325000000000000178,-22.352833032163257343
0.326000000000000179,-22.295569767225192237
0.327000000000000179,-22.236736766689510603
0.328000000000000180,-22.176334153971062335
0.329000000000000181,-22.114363501044543625
0.330000000000000182,-22.050827840856563000
0.331000000000000183,-21.985731674033988980
0.332000000000000184,-21.919080970195089719
0.333000000000000185,-21.850883164168688921
0.334000000000000186,-21.781147147423382648
0.335000000000000187,-21.709883255005216540
0.336000000000000187,-21.637103248278183543
0.337000000000000188,-21.562820293755642354
0.338000000000000189,-21.487048938306436696
0.339000000000000190,-21.409805081011725747
0.340000000000000191,-21.331105941942375637
0.341000000000000192,-21.250970028119539279
0.342000000000000193,-21.169417096912685139
0.343000000000000194,-21.086468117122183941
0.344000000000000195,-21.002145227984403419
0.345000000000000195,-20.916471696329622887
0.346000000000000196,-20.829471872113661135
0.347000000000000197,-20.741171142535840488
0.348000000000000198,-20.651595884946807757
0.349000000000000199,-20.560773418740748042
0.350000000000000200,-20.468731956417901330
0.351000000000000201,-20.375500553993990849
0.352000000000000202,-20.281109060924617182
0.353000000000000203,-20.185588069703662484
0.354000000000000203,-20.088968865286396692
0.355000000000000204,-19.991283374478847179
0.356000000000000205,-19.892564115427294524
0.357000000000000206,-19.792844147332957050
0.358000000000000207,-19.692157020508975762
0.359000000000000208,-19.590536726889091312
0.360000000000000209,-19.488017651089627691
0.361000000000000210,-19.384634522118837197
0.362000000000000210,-19.280422365820417241
0.363000000000000211,-19.175416458131195441
0.364000000000000212,-19.069652279226012581
0.365000000000000213,-18.963165468616129061
0.366000000000000214,-18.855991781261689511
0.367000000000000215,-18.748167044751976817
0.368000000000000216,-18.639727117602213013
0.369000000000000217,-18.530707848709177199
0.370000000000000218,-18.421145038003530203
0.371000000000000218,-18.311074398330795532
0.372000000000000219,-18.200531518588622504
0.373000000000000220,-18.089551828143250134
0.374000000000000221,-17.978170562543709821
0.375000000000000222,-17.866422730547835585
0.376000000000000223,-17.754343082470981585
0.377000000000000224,-17.641966079863859562
0.378000000000000225,-17.529325866522935229
0.379000000000000226,-17.416456240833344538
0.380000000000000226,-17.303390629441459225
0.381000000000000227,-17.190162062250884389
0.382000000000000228,-17.076803148733809223
0.383000000000000229,-16.963346055546264068
0.384000000000000230,-16.849822485434195585
0.385000000000000231,-16.736263657414962580
0.386000000000000232,-16.622700288216787357
0.387000000000000233,-16.509162574957063185
0.388000000000000234,-16.395680179038656377
0.389000000000000234,-16.282282211242236514
0.390000000000000235,-16.168997217990568771
0.391000000000000236,-16.055853168760478411
0.392000000000000237,-15.942877444616305738
0.393000000000000238,-15.830096827838252338
0.394000000000000239,-15.717537492617864814
0.395000000000000240,-15.605224996792486536
0.396000000000000241,-15.493184274589648197
0.397000000000000242,-15.381439630352030434
0.398000000000000242,-15.270014733213121971
0.399000000000000243,-15.158932612693579500
0.400000000000000244,-15.048215655187618722
0.401000000000000245,-14.937885601309336181
0.402000000000000246,-14.827963544067992885
0.403000000000000247,-14.718469927841837830
0.404000000000000248,-14.609424548119942955
0.405000000000000249,-14.500846551981558363
0.406000000000000250,-14.392754439282834156
0.407000000000000250,-14.285166064520817386
0.408000000000000251,-14.178098639345027010
0.409000000000000252,-14.071568735687307594
0.410000000000000253,-13.965592289480692756
0.411000000000000254,-13.860184604938922348
0.412000000000000255,-13.755360359368163259
0.413000000000000256,-13.651133608483439374
0.414000000000000257,-13.547517792202331322
0.415000000000000258,-13.444525740889355703
0.416000000000000258,-13.342169682024884736
0.417000000000000259,-13.240461247272858003
0.418000000000000260,-13.139411479922454618
0.419000000000000261,-13.039030842679121491
0.420000000000000262,-12.939329225781282418
0.421000000000000263,-12.840315955419450589
0.422000000000000264,-12.741999802435220346
0.423000000000000265,-12.644388991278056267
0.424000000000000266,-12.547491209198886608
0.425000000000000266,-12.451313615659532985
0.426000000000000267,-12.355862851938079316
0.427000000000000268,-12.261145050910915444
0.428000000000000269,-12.167165846992528344
0.429000000000000270,-12.073930386215192101
0.430000000000000271,-11.981443336430873003
0.431000000000000272,-11.889708897618721295
0.432000000000000273,-11.798730812281888802
0.433000000000000274,-11.708512375918136428
0.434000000000000274,-11.619056447549219513
0.435000000000000275,-11.530365460294820679
0.436000000000000276,-11.442441431977243838
0.437000000000000277,-11.355285975743601767
0.438000000000000278,-11.268900310693135580
0.439000000000000279,-11.183285272497538898
0.440000000000000280,-11.098441324002752850
0.441000000000000281,-11.014368565801557764
0.442000000000000282,-10.931066746766399334
0.443000000000000282,-10.848535274532686401
0.444000000000000283,-10.766773225923257584
0.445000000000000284,-10.685779357305134951
0.446000000000000285,-10.605552114870201663
0.447000000000000286,-10.526089644832081760
0.448000000000000287,-10.447389803531590857
0.449000000000000288,-10.369450167444039579
0.450000000000000289,-10.292268043081637785
0.451000000000000290,-10.215840476785121638
0.452000000000000290,-10.140164264398748628
0.453000000000000291,-10.065235960823452288
0.454000000000000292,-9.991051889443278711
0.455000000000000293,-9.917608151420466811
0.456000000000000294,-9.844900634855161314
0.457000000000000295,-9.772925023805779432
0.458000000000000296,-9.701676807166645489
0.459000000000000297,-9.631151287399735139
0.460000000000000298,-9.561343589117598185
0.461000000000000298,-9.492248667514996185
0.462000000000000299,-9.423861316646968689
0.463000000000000300,-9.356176177551294160
0.464000000000000301,-9.289187746213698915
0.465000000000000302,-9.222890381374345026
0.466000000000000303,-9.157278312174305768
0.467000000000000304,-9.092345645641113805
0.468000000000000305,-9.028086374012605830
0.469000000000000306,-8.964494381898477471
0.470000000000000306,-8.901563453279292659
0.471000000000000307,-8.839287278342650822
0.472000000000000308,-8.777659460156698401
0.473000000000000309,-8.716673521181103723
0.474000000000000310,-8.656322909615845163
0.475000000000000311,-8.596601005588430766
0.476000000000000312,-8.537501127180227911
0.477000000000000313,-8.479016536292569128
0.478000000000000314,-8.421140444353786947
0.479000000000000314,-8.363866017868186731
0.480000000000000315,-8.307186383808069507
0.481000000000000316,-8.251094634850300480
0.482000000000000317,-8.195583834458611605
0.483000000000000318,-8.140647021813368411
0.484000000000000319,-8.086277216590216810
0.485000000000000320,-8.032467423589467970
0.486000000000000321,-7.979210637217813762
0.487000000000000322,-7.926499845824372059
0.488000000000000322,-7.874328035892807165
0.489000000000000323,-7.822688196091658774
0.490000000000000324,-7.771573321184757965
0.491000000000000325,-7.720976415803896487
0.492000000000000326,-7.670890498085794817
0.493000000000000327,-7.621308603175608098
0.494000000000000328,-7.572223786599093565
0.495000000000000329,-7.523629127505759406
0.496000000000000330,-7.475517731785127573
0.497000000000000330,-7.427882735058550345
0.498000000000000331,-7.380717305548730955
0.499000000000000332,-7.334014646829425388
0.500000000000000333,-7.287768000457536921
0.501000000000000334,-7.241970648490029916
0.502000000000000335,-7.196615915887967674
0.503000000000000336,-7.151697172810131065
0.504000000000000337,-7.107207836798453471
0.505000000000000338,-7.063141374857734078
0.506000000000000338,-7.019491305431981409
0.507000000000000339,-6.976251200279685705
0.508000000000000340,-6.933414686250434222
0.509000000000000341,-6.890975446965209805
0.510000000000000342,-6.848927224402642011
0.511000000000000343,-6.807263820393584908
0.512000000000000344,-6.765979098026305039
0.513000000000000345,-6.725066982964532869
0.514000000000000346,-6.684521464680736713
0.515000000000000346,-6.644336597606719685
0.516000000000000347,-6.604506502203895124
0.517000000000000348,-6.565025365955413861
0.518000000000000349,-6.525887444282207461
0.519000000000000350,-6.487087061385304665
0.520000000000000351,-6.448618611016361690
0.521000000000000352,-6.410476557178628632
0.522000000000000353,-6.372655434760369886
0.523000000000000353,-6.335149850102754776
0.524000000000000354,-6.297954481504374868
0.525000000000000355,-6.261064079664161675
0.526000000000000356,-6.224473468064856796
0.527000000000000357,-6.188177543298867711
0.528000000000000358,-6.152171275338373491
0.529000000000000359,-6.116449707751652198
0.530000000000000360,-6.081007957867333502
0.531000000000000361,-6.045841216888495850
0.532000000000000361,-6.010944749958273547
0.533000000000000362,-5.976313896178769625
0.534000000000000363,-5.941944068584975369
0.535000000000000364,-5.907830754075317437
0.536000000000000365,-5.873969513300510314
0.537000000000000366,-5.840355980512337730
0.538000000000000367,-5.806985863373822276
0.539000000000000368,-5.773854942732508100
0.540000000000000369,-5.740959072358132076
0.541000000000000369,-5.708294178646374561
0.542000000000000370,-5.675856260289959820
0.543000000000000371,-5.643641387918610697
0.544000000000000372,-5.611645703709188915
0.545000000000000373,-5.579865420967381695
0.546000000000000374,-5.548296823682222545
0.547000000000000375,-5.516936266054733196
0.548000000000000376,-5.485780172001968324
0.549000000000000377,-5.454825034637638126
0.550000000000000377,-5.424067415730466024
0.551000000000000378,-5.393503945141526756
0.552000000000000379,-5.363131320241612876
0.553000000000000380,-5.332946305309752333
0.554000000000000381,-5.302945730913925182
0.555000000000000382,-5.273126493275081650
0.556000000000000383,-5.243485553615328421
0.557000000000000384,-5.214019937491459089
0.558000000000000385,-5.184726734114584623
0.559000000000000385,-5.155603095656929646
0.560000000000000386,-5.126646236546629432
0.561000000000000387,-5.097853432751401570
0.562000000000000388,-5.069222021051954741
0.563000000000000389,-5.040749398305946372
0.564000000000000390,-5.012433020703265463
0.565000000000000391,-4.984270403013457695
0.566000000000000392,-4.956259117825959848
0.567000000000000393,-4.928396794783978407
0.568000000000000393,-4.900681119812562159
0.569000000000000394,-4.873109834341674329
0.570000000000000395,-4.845680734524872690
0.571000000000000396,-4.818391670454158948
0.572000000000000397,-4.791240545371744375
0.573000000000000398,-4.764225314879171336
0.574000000000000399,-4.737343986144471941
0.575000000000000400,-4.710594617107823012
0.576000000000000401,-4.683975315686279117
0.577000000000000401,-4.657484238978096158
0.578000000000000402,-4.631119592467051405
0.579000000000000403,-4.604879629227324855
0.580000000000000404,-4.578762649129335394
0.581000000000000405,-4.552766998046998914
0.582000000000000406,-4.526891067066764585
0.583000000000000407,-4.501133291698895533
0.584000000000000408,-4.475492151091343906
0.585000000000000409,-4.449966167246562243
0.586000000000000409,-4.424553904241641966
0.587000000000000410,-4.399253967452101399
0.588000000000000411,-4.374065002779609301
0.589000000000000412,-4.348985695883998304
0.590000000000000413,-4.324014771419813385
0.591000000000000414,-4.299150992277700922
0.592000000000000415,-4.274393158830902095
0.593000000000000416,-4.249740108187057608
0.594000000000000417,-4.225190713445611479
0.595000000000000417,-4.200743882961043063
0.596000000000000418,-4.176398559612040984
0.597000000000000419,-4.152153720076993793
0.598000000000000420,-4.128008374115782253
0.599000000000000421,-4.103961563858239181
0.600000000000000422,-4.080012363099301709
0.601000000000000423,-4.056159876601106440
0.602000000000000424,-4.032403239402113648
0.603000000000000425,-4.008741616133444374
0.604000000000000425,-3.985174200342517459
0.605000000000000426,-3.961700213824122407
0.606000000000000427,-3.938318905959083516
0.607000000000000428,-3.915029553060473511
