# Ce-001_DIHYDROXYPHOSPHANIUM-AC
# h[nm],U(h)[kJ/mol]
0.149999999999999994,132.969722312092699212
0.150999999999999995,130.337457742282765594
0.151999999999999996,127.115966176946173505
0.152999999999999997,123.794226453848366987
0.153999999999999998,120.583770780444481829
0.154999999999999999,117.546619597922330058
0.156000000000000000,114.673004458498937197
0.157000000000000001,111.926146738098822198
0.158000000000000002,109.266055565618287915
0.159000000000000002,106.660474774799155284
0.160000000000000003,104.088377848235296597
0.161000000000000004,101.539495258754669749
0.162000000000000005,99.012040467586743375
0.163000000000000006,96.509912547942462879
0.164000000000000007,94.040070344446675676
0.165000000000000008,91.610403169468256124
0.166000000000000009,89.228199109400918587
0.167000000000000010,86.899185745409369019
0.168000000000000010,84.627055244539036494
0.169000000000000011,82.413362504255928798
0.170000000000000012,80.257685068558203056
0.171000000000000013,78.157946055010938835
0.172000000000000014,76.110819372811519656
0.173000000000000015,74.112155786718531658
0.174000000000000016,72.157386430088138241
0.175000000000000017,70.241875942115868270
0.176000000000000018,68.361210023865183416
0.177000000000000018,66.511411870455589224
0.178000000000000019,64.689088903840143985
0.179000000000000020,62.891515891568317898
0.180000000000000021,61.116663322975611550
0.181000000000000022,59.363181245188002322
0.182000000000000023,57.630349016321858358
0.183000000000000024,55.918000936906437914
0.184000000000000025,54.226436739060886794
0.185000000000000026,52.556324656259370443
0.186000000000000026,50.908603423779375419
0.187000000000000027,49.284388186599201731
0.188000000000000028,47.684883996785323745
0.189000000000000029,46.111309416442530562
0.190000000000000030,44.564831732692866240
0.191000000000000031,43.046514448643208084
0.192000000000000032,41.557277037499027017
0.193000000000000033,40.097866426223227165
0.194000000000000034,38.668839295566570513
0.195000000000000034,37.270554027188651958
0.196000000000000035,35.903170977137143893
0.197000000000000036,34.566659689496972874
0.198000000000000037,33.260811666920730545
0.199000000000000038,31.985257369919771975
0.200000000000000039,30.739486210012039180
0.201000000000000040,29.522868420847697024
0.202000000000000041,28.334677826006945622
0.203000000000000042,27.174114663919272772
0.204000000000000042,26.040327772646470805
0.205000000000000043,24.932435575027241725
0.206000000000000044,23.849545434164266311
0.207000000000000045,22.790771067878281997
0.208000000000000046,21.755247816944908834
0.209000000000000047,20.742145654848147984
0.210000000000000048,19.750679906226572768
0.211000000000000049,18.780119707438558407
0.212000000000000050,17.829794296363825623
0.213000000000000050,16.899097260586557923
0.214000000000000051,15.987488904517411115
0.215000000000000052,15.094496917960782412
0.216000000000000053,14.219715542300708222
0.217000000000000054,13.362803437039707077
0.218000000000000055,12.523480450014933041
0.219000000000000056,11.701523490304330366
0.220000000000000057,10.896761694605848092
0.221000000000000058,10.109071066627802082
0.222000000000000058,9.338368755555318756
0.223000000000000059,8.584607124668206524
0.224000000000000060,7.847767745274265572
0.225000000000000061,7.127855434805771218
0.226000000000000062,6.424892441630388973
0.227000000000000063,5.738912863196782510
0.228000000000000064,5.069957368846462309
0.229000000000000065,4.418068284184165861
0.230000000000000066,3.783285080468051120
0.231000000000000066,3.165640300158249598
0.232000000000000067,2.565155938615702347
0.233000000000000068,1.981840291996814996
0.234000000000000069,1.415685272644991333
0.235000000000000070,0.866664185710466883
0.236000000000000071,0.334729954293522813
0.237000000000000072,-0.180186224957534141
0.238000000000000073,-0.678175818219107662
0.239000000000000073,-1.159353508687602119
0.240000000000000074,-1.623857397028012128
0.241000000000000075,-2.071848878315075915
0.242000000000000076,-2.503512226831428045
0.243000000000000077,-2.919053920607768582
0.244000000000000078,-3.318701737584878408
0.245000000000000079,-3.702703654821017487
0.246000000000000080,-4.071326581331184080
0.247000000000000081,-4.424854953993412998
0.248000000000000081,-4.763589224550631940
0.249000000000000082,-5.087844264130763072
0.250000000000000111,-5.397947709953104578
0.251000000000000112,-5.694238277028437878
0.252000000000000113,-5.977064055735987758
0.253000000000000114,-6.246780814202693044
0.254000000000000115,-6.503750322454855848
0.255000000000000115,-6.748338713378482012
0.256000000000000116,-6.980914893639328156
0.257000000000000117,-7.201849015891130357
0.258000000000000118,-7.411511021856179937
0.259000000000000119,-7.610269264208186613
0.260000000000000120,-7.798489213631095929
0.261000000000000121,-7.976532255974651875
0.262000000000000122,-8.144754583083619437
0.263000000000000123,-8.303506179642608842
0.264000000000000123,-8.453129907254833597
0.265000000000000124,-8.593960685957645396
0.266000000000000125,-8.726324772470558599
0.267000000000000126,-8.850539133666888603
0.268000000000000127,-8.966910913056965526
0.269000000000000128,-9.075736987461660021
0.270000000000000129,-9.177303610537258294
0.271000000000000130,-9.271886139379336811
0.272000000000000131,-9.359748840079475940
0.273000000000000131,-9.441144767828308915
0.274000000000000132,-9.516315716945950243
0.275000000000000133,-9.585492236070583871
0.276000000000000134,-9.648893703641686415
0.277000000000000135,-9.706728458771252122
0.278000000000000136,-9.759193982598713291
0.279000000000000137,-9.806477125267695882
0.280000000000000138,-9.848754373740939982
0.281000000000000139,-9.886192155778513069
0.282000000000000139,-9.918947175539837957
0.283000000000000140,-9.947166776427854629
0.284000000000000141,-9.970989326969851518
0.285000000000000142,-9.990544625721113903
0.286000000000000143,-10.005954321380912120
0.287000000000000144,-10.017332344522316134
0.288000000000000145,-10.024785347556626647
0.289000000000000146,-10.028413149774758395
0.290000000000000147,-10.028309184532979259
0.291000000000000147,-10.024560945873687956
0.292000000000000148,-10.017250432094542134
0.293000000000000149,-10.006454583997591357
0.294000000000000150,-9.992245715764202174
0.295000000000000151,-9.974691936610064147
0.296000000000000152,-9.953857561575732760
0.297000000000000153,-9.929803510002788158
0.298000000000000154,-9.902587690431278844
0.299000000000000155,-9.872265370831941667
0.300000000000000155,-9.838889533255047226
0.301000000000000156,-9.802511212137039465
0.302000000000000157,-9.763179815656160443
0.303000000000000158,-9.720943429668654545
0.304000000000000159,-9.675849103888410241
0.305000000000000160,-9.627943120094155205
0.306000000000000161,-9.577271242261181428
0.307000000000000162,-9.523878948617742424
0.308000000000000163,-9.467811645720535907
0.309000000000000163,-9.409114864729998473
0.310000000000000164,-9.347834440143474311
0.311000000000000165,-9.284016671313885638
0.312000000000000166,-9.217708467143761908
0.313000000000000167,-9.148957474398965672
0.314000000000000168,-9.077812190134157078
0.315000000000000169,-9.004322058763374770
0.316000000000000170,-8.928537554344067928
0.317000000000000171,-8.850510248671902502
0.318000000000000171,-8.770292865807613580
0.319000000000000172,-8.687939323675653469
0.320000000000000173,-8.603504763388482246
0.321000000000000174,-8.517045566959586367
0.322000000000000175,-8.428619364074245723
0.323000000000000176,-8.338285028588611425
0.324000000000000177,-8.246102665426255030
0.325000000000000178,-8.152133588536637276
0.326000000000000179,-8.056440290572931318
0.327000000000000179,-7.959086404936326353
0.328000000000000180,-7.860136660822147014
0.329000000000000181,-7.759656831889399697
0.330000000000000182,-7.657713679158858255
0.331000000000000183,-7.554374888728536241
0.332000000000000184,-7.449709004876119423
0.333000000000000185,-7.343785359098836452
0.334000000000000186,-7.236673995620593658
0.335000000000000187,-7.128445593875023967
0.336000000000000187,-7.019171388451489690
0.337000000000000188,-6.908923086968632887
0.338000000000000189,-6.797772786318084570
0.339000000000000190,-6.685792887697957099
0.340000000000000191,-6.573056010833228768
0.341000000000000192,-6.459634907757953570
0.342000000000000193,-6.345602376511080500
0.343000000000000194,-6.231031175076486406
0.344000000000000195,-6.115993935875024157
0.345000000000000195,-6.000563081095854123
0.346000000000000196,-5.884810739132658064
0.347000000000000197,-5.768808662370181750
0.348000000000000198,-5.652628146546680554
0.349000000000000199,-5.536339951898096245
0.350000000000000200,-5.420014226271601565
0.351000000000000201,-5.303720430377470763
0.352000000000000202,-5.187527265331207893
0.353000000000000203,-5.071502602620959088
0.354000000000000203,-4.955713416619051515
0.355000000000000204,-4.840225719741276578
0.356000000000000205,-4.725104500342835578
0.357000000000000206,-4.610413663425815045
0.358000000000000207,-4.496215974219825995
0.359000000000000208,-4.382573004684922502
0.360000000000000209,-4.269545082973979611
0.361000000000000210,-4.157191245880499153
0.362000000000000210,-4.045569194287315540
0.363000000000000211,-3.934735251621761076
0.364000000000000212,-3.824744325313710114
0.365000000000000213,-3.715649871244116831
0.366000000000000214,-3.607503861163919190
0.367000000000000215,-3.500356753055508197
0.368000000000000216,-3.394257464402391289
0.369000000000000217,-3.289253348326132365
0.370000000000000218,-3.185390172544144249
0.371000000000000218,-3.082712101096443114
0.372000000000000219,-2.981261678784943303
0.373000000000000220,-2.881079818264417280
0.374000000000000221,-2.782205789720614497
0.375000000000000222,-2.684677213067382606
0.376000000000000223,-2.588530052591972996
0.377000000000000224,-2.493798613974818501
0.378000000000000225,-2.400515543608121583
0.379000000000000226,-2.308711830135475651
0.380000000000000226,-2.218416808133464535
0.381000000000000227,-2.129658163854684538
0.382000000000000228,-2.042461942950964726
0.383000000000000229,-1.956852560094781479
0.384000000000000230,-1.872852810416351987
0.385000000000000231,-1.790483882674092753
0.386000000000000232,-1.709765374075797650
0.387000000000000233,-1.630715306668439224
0.388000000000000234,-1.553350145214858369
0.389000000000000234,-1.477684816476389162
0.390000000000000235,-1.403732729821019820
0.391000000000000236,-1.331505799078096741
0.392000000000000237,-1.261014465561160147
0.393000000000000238,-1.192267722182265288
0.394000000000000239,-1.125273138582070453
0.395000000000000240,-1.060036887201700750
0.396000000000000241,-0.996563770223809264
0.397000000000000242,-0.934857247311924988
0.398000000000000242,-0.874919464078896758
0.399000000000000243,-0.816751281216999692
0.400000000000000244,-0.760352304223917974
0.401000000000000245,-0.705720913661132654
0.402000000000000246,-0.652854295882548952
0.403000000000000247,-0.601748474173555148
0.404000000000000248,-0.552398340242542751
0.405000000000000249,-0.504797686008822355
0.406000000000000250,-0.458939235632916998
0.407000000000000250,-0.414814677737203652
0.408000000000000251,-0.372414697766788705
0.409000000000000252,-0.331729010442653571
0.410000000000000253,-0.292746392260821886
0.411000000000000254,-0.255454713993558347
0.412000000000000255,-0.219840973150272317
0.413000000000000256,-0.185891326358005260
0.414000000000000257,-0.153591121622960347
0.415000000000000258,-0.122924930436762406
0.416000000000000258,-0.093876579692652687
0.417000000000000259,-0.066429183378886342
0.418000000000000260,-0.040565174018246553
0.419000000000000261,-0.016266333824345326
0.420000000000000262,0.006486174452834681
0.421000000000000263,0.027711777018082407
0.422000000000000264,0.047430458883141902
0.423000000000000265,0.065662734102601664
0.424000000000000266,0.082429616414579326
0.425000000000000266,0.097752590305983739
0.426000000000000267,0.111653582520444355
0.427000000000000268,0.124154934025687627
0.428000000000000269,0.135279372455795077
0.429000000000000270,0.145049985042358026
0.430000000000000271,0.153490192047322005
0.431000000000000272,0.160623720709041684
0.432000000000000273,0.166474579711890475
0.433000000000000274,0.171067034188579686
0.434000000000000274,0.174425581263243090
0.435000000000000275,0.176574926142305577
0.436000000000000276,0.177539958759069860
0.437000000000000277,0.177345730977010285
0.438000000000000278,0.176017434355813018
0.439000000000000279,0.173580378483275788
0.440000000000000280,0.170059969875340194
0.441000000000000281,0.165481691445747009
0.442000000000000282,0.159871082545848975
0.443000000000000282,0.153253719574676928
0.444000000000000283,0.145655197158272076
0.445000000000000284,0.137101109896929918
0.446000000000000285,0.127617034678252833
0.447000000000000286,0.117228513553189112
0.448000000000000287,0.105961037171898489
0.449000000000000288,0.093840028775541026
0.450000000000000289,0.080890828739686962
0.451000000000000290,0.067138679664556403
0.452000000000000290,0.052608712006812740
0.453000000000000291,0.037325930247276221
0.454000000000000292,0.021315199588475470
0.455000000000000293,0.004601233175647939
0.456000000000000294,-0.012791420165575190
0.457000000000000295,-0.030838387681831912
0.458000000000000296,-0.049515483942424221
0.459000000000000297,-0.068798721594978074
0.460000000000000298,-0.088664321634307902
0.461000000000000298,-0.109088723192406950
0.462000000000000299,-0.130048592857963996
0.463000000000000300,-0.151520833533705351
0.464000000000000301,-0.173482592840232958
0.465000000000000302,-0.195911271075004334
0.466000000000000303,-0.218784528735383399
0.467000000000000304,-0.242080293614586578
0.468000000000000305,-0.265776767479666276
0.469000000000000306,-0.289852432340550137
0.470000000000000306,-0.314286056319321161
0.471000000000000307,-0.339056699128927108
0.472000000000000308,-0.364143717170546832
0.473000000000000309,-0.389526768258863898
0.474000000000000310,-0.415185815984416451
0.475000000000000311,-0.441101133722422323
0.476000000000000312,-0.467253308297073899
0.477000000000000313,-0.493623243310702953
0.478000000000000314,-0.520192162146798864
0.479000000000000314,-0.546941610656104360
0.480000000000000315,-0.573853459534734212
0.481000000000000316,-0.600909906403390481
0.482000000000000317,-0.628093477596497363
0.483000000000000318,-0.655387029670154275
0.484000000000000319,-0.682773750637607368
0.485000000000000320,-0.710237160940925594
0.486000000000000321,-0.737761114167419962
0.487000000000000322,-0.765329797519263222
0.488000000000000322,-0.792927732044669487
0.489000000000000323,-0.820539772638842813
0.490000000000000324,-0.848151107822861072
0.491000000000000325,-0.875747259308452541
0.492000000000000326,-0.903314081356567433
0.493000000000000327,-0.930837759937491738
0.494000000000000328,-0.958304811700131487
0.495000000000000329,-0.985702082757959674
0.496000000000000330,-1.013016747298974174
0.497000000000000330,-1.040236306026938173
0.498000000000000331,-1.067348584440930948
0.499000000000000332,-1.094341730960183501
0.500000000000000333,-1.121204214901056817
0.501000000000000334,-1.147924824312769099
0.502000000000000335,-1.174492663678447846
0.503000000000000336,-1.200897151487871906
0.504000000000000337,-1.227128017688193795
0.505000000000000338,-1.253175301018699228
0.506000000000000338,-1.279029346235611042
0.507000000000000339,-1.304680801232764642
0.508000000000000340,-1.330120614063809548
0.509000000000000341,-1.355340029871525243
0.510000000000000342,-1.380330587729617919
0.511000000000000343,-1.405084117402310318
0.512000000000000344,-1.429592736026816358
0.513000000000000345,-1.453848844723704570
0.514000000000000346,-1.477845125140059945
0.515000000000000346,-1.501574535930073839
0.516000000000000347,-1.525030309177729082
0.517000000000000348,-1.548205946766032293
0.518000000000000349,-1.571095216697095509
0.519000000000000350,-1.593692149367270217
0.520000000000000351,-1.615991033801462695
0.521000000000000352,-1.637986413850510470
0.522000000000000353,-1.659673084355479222
0.523000000000000353,-1.681046087282605184
0.524000000000000354,-1.702100707832426618
0.525000000000000355,-1.722832470526622473
0.526000000000000356,-1.743237135275839789
0.527000000000000357,-1.763310693431818121
0.528000000000000358,-1.783049363826934464
0.529000000000000359,-1.802449588804092340
0.530000000000000360,-1.821508030239986642
0.531000000000000361,-1.840221565564462036
0.532000000000000361,-1.858587283778707855
0.533000000000000362,-1.876602481474849426
0.534000000000000363,-1.894264658859457828
0.535000000000000364,-1.911571515783381914
0.536000000000000365,-1.928520947780171024
0.537000000000000366,-1.945111042115344802
0.538000000000000367,-1.961340073848562238
0.539000000000000368,-1.977206501910816261
0.540000000000000369,-1.992708965198478399
0.541000000000000369,-2.007846278686157060
0.542000000000000370,-2.022617429560047420
0.543000000000000371,-2.037021573373537731
0.544000000000000372,-2.051058030226646345
0.545000000000000373,-2.064726280970813121
0.546000000000000374,-2.078025963440548018
0.547000000000000375,-2.090956868713260697
0.548000000000000376,-2.103518937398651367
0.549000000000000377,-2.115712255958841048
0.550000000000000377,-2.127537053060478911
0.551000000000000378,-2.138993695959872543
0.552000000000000379,-2.150082686922249131
0.553000000000000380,-2.160804659676093031
0.554000000000000381,-2.171160375903477213
0.555000000000000382,-2.181150721767306955
0.556000000000000383,-2.190776704476196990
0.557000000000000384,-2.200039448887822768
0.558000000000000385,-2.208940194151375103
0.559000000000000385,-2.217480290389821640
0.560000000000000386,-2.225661195422513394
0.561000000000000387,-2.233484471528746518
0.562000000000000388,-2.240951782252712743
0.563000000000000389,-2.248064889250378506
0.564000000000000390,-2.254825649178597402
0.565000000000000391,-2.261236010626927140
0.566000000000000392,-2.267298011092412580
0.567000000000000393,-2.273013773997649700
0.568000000000000393,-2.278385505752360984
0.569000000000000394,-2.283415492858723361
0.570000000000000395,-2.288106099060608134
0.571000000000000396,-2.292459762536843915
0.572000000000000397,-2.296478993138696190
0.573000000000000398,-2.300166369671551081
0.574000000000000399,-2.303524537220892121
0.575000000000000400,-2.306556204522599796
0.576000000000000401,-2.309264141377522339
0.577000000000000401,-2.311651176110335992
0.578000000000000402,-2.313720193072570375
0.579000000000000403,-2.315474130189751456
0.580000000000000404,-2.316915976552545775
0.581000000000000405,-2.318048770051746033
0.582000000000000406,-2.318875595056980821
0.583000000000000407,-2.319399580138912231
0.584000000000000408,-2.319623895834804550
0.585000000000000409,-2.319551752457157612
0.586000000000000409,-2.319186397945242284
0.587000000000000410,-2.318531115759256966
0.588000000000000411,-2.317589222816809347
0.589000000000000412,-2.316364067471519128
0.590000000000000413,-2.314859027533336722
0.591000000000000414,-2.313077508330349641
0.592000000000000415,-2.311022940811741311
0.593000000000000416,-2.308698779691488401
0.594000000000000417,-2.306108501632558205
0.595000000000000417,-2.303255603471170421
0.596000000000000418,-2.300143600480749839
0.597000000000000419,-2.296776024675260874
0.598000000000000420,-2.293156423151430978
0.599000000000000421,-2.289288356469555641
0.600000000000000422,-2.285175397072424897
0.601000000000000423,-2.280821127741964549
0.602000000000000424,-2.276229140093197323
0.603000000000000425,-2.271403033105081626
0.604000000000000425,-2.266346411687770068
0.605000000000000426,-2.261062885285891610
0.606000000000000427,-2.255556066517411917
0.607000000000000428,-2.249829569847557220
0.608000000000000429,-2.243887010297483275
0.609000000000000430,-2.237732002187064584
0.610000000000000431,-2.231368157911526762
0.611000000000000432,-2.224799086751315436
0.612000000000000433,-2.218028393714806423
0.613000000000000433,-2.211059678413413998
