# Ce-001_NMETHYLMETHANAMINE-AC
# h[nm],U(h)[kJ/mol]
0.149999999999999994,135.473252523467920128
0.150999999999999995,134.052680036285693177
0.151999999999999996,130.962922475782818310
0.152999999999999997,127.521879337441419011
0.153999999999999998,124.257622094684890612
0.154999999999999999,121.300985185151603218
0.156000000000000000,118.609344802951866882
0.157000000000000001,116.086379675001097667
0.158000000000000002,113.639863672294524122
0.159000000000000002,111.204237634634722554
0.160000000000000003,108.744543065960328931
0.161000000000000004,106.251652480754586350
0.162000000000000005,103.734466563257726079
0.163000000000000006,101.212079518724848981
0.164000000000000007,98.707298371845467955
0.165000000000000008,96.241968935078858749
0.166000000000000009,93.834060452581326217
0.167000000000000010,91.496225720535562687
0.168000000000000010,89.235474431882536805
0.169000000000000011,87.053604372901205011
0.170000000000000012,84.948084044550711269
0.171000000000000013,82.913144913546716452
0.172000000000000014,80.940906829506886311
0.173000000000000015,79.022418434639490670
0.174000000000000016,77.148542363895487028
0.175000000000000017,75.310652031950354512
0.176000000000000018,73.501133606051183733
0.177000000000000018,71.713704828116746626
0.178000000000000019,69.943573356986462386
0.179000000000000020,68.187462896021486358
0.180000000000000021,66.443537021642825380
0.181000000000000022,64.711249571506670009
0.182000000000000023,62.991147679687301775
0.183000000000000024,61.284649824478812263
0.184000000000000025,59.593817145608497299
0.185000000000000026,57.921132187493313381
0.186000000000000026,56.269295394685684641
0.187000000000000027,54.641046281465079915
0.188000000000000028,53.039013298127464680
0.189000000000000029,51.465594044250075001
0.190000000000000030,49.922865617932977500
0.191000000000000031,48.412523499002261929
0.192000000000000032,46.935846388564996801
0.193000000000000033,45.493683805910038132
0.194000000000000034,44.086462914434278559
0.195000000000000034,42.714210951668476923
0.196000000000000035,41.376589720299854491
0.197000000000000036,40.072938809384631043
0.198000000000000037,38.802324516635621876
0.199000000000000038,37.563591799544063576
0.200000000000000039,36.355416967457912847
0.201000000000000040,35.176359216853413159
0.202000000000000041,34.024909491439061071
0.203000000000000042,32.899535505508509914
0.204000000000000042,31.798722095021041412
0.205000000000000043,30.721006351297706516
0.206000000000000044,29.665007244548014853
0.207000000000000045,28.629449658231102660
0.208000000000000046,27.613182931520110941
0.209000000000000047,26.615194147969070571
0.210000000000000048,25.634616516689778365
0.211000000000000049,24.670733271196024106
0.212000000000000050,23.722977564048740362
0.213000000000000050,22.790928866085025106
0.214000000000000051,21.874306390795670296
0.215000000000000052,20.972960060627588774
0.216000000000000053,20.086859515685272726
0.217000000000000054,19.216081639269354753
0.218000000000000055,18.360797041403191798
0.219000000000000056,17.521255903136399468
0.220000000000000057,16.697773542848803885
0.221000000000000058,15.890716022602404678
0.222000000000000058,15.100486069107603271
0.223000000000000059,14.327509541160598161
0.224000000000000060,13.572222634305493472
0.225000000000000061,12.835059974624538626
0.226000000000000062,12.116443717430003701
0.227000000000000063,11.416773733538921221
0.228000000000000064,10.736418935948783826
0.229000000000000065,10.075709773178832762
0.230000000000000066,9.434931892297782952
0.231000000000000066,8.814320954646698070
0.232000000000000067,8.214058570359991762
0.233000000000000068,7.634269303815758967
0.234000000000000069,7.075018690911221597
0.235000000000000070,6.536312200340065104
0.236000000000000071,6.018095064615890166
0.237000000000000072,5.520252902204167533
0.238000000000000073,5.042613049561474270
0.239000000000000073,4.584946520907396739
0.240000000000000074,4.146970513949517212
0.241000000000000075,3.728351381342593918
0.242000000000000076,3.328707990191412058
0.243000000000000077,2.947615395225639645
0.244000000000000078,2.584608755220021870
0.245000000000000079,2.239187426656482849
0.246000000000000080,1.910819173393432990
0.247000000000000081,1.598944436103583389
0.248000000000000081,1.302980610363691172
0.249000000000000082,1.022326287437493875
0.250000000000000111,0.756365416910828814
0.251000000000000112,0.504471355352708262
0.252000000000000113,0.266010770033022925
0.253000000000000114,0.040347371387280354
0.254000000000000115,-0.173154547656838964
0.255000000000000115,-0.375126783207937797
0.256000000000000116,-0.566194116620956645
0.257000000000000117,-0.746971445612660601
0.258000000000000118,-0.918061157198256650
0.259000000000000119,-1.080050746353393709
0.260000000000000120,-1.233510681588205760
0.261000000000000121,-1.378992516189728956
0.262000000000000122,-1.517027241739356214
0.263000000000000123,-1.648123878629839112
0.264000000000000123,-1.772768296681362710
0.265000000000000124,-1.891422257572579202
0.266000000000000125,-2.004522669647162303
0.267000000000000126,-2.112481044712342992
0.268000000000000127,-2.215683145698771561
0.269000000000000128,-2.314488813483701168
0.270000000000000129,-2.409231960777194814
0.271000000000000130,-2.500220720717845957
0.272000000000000131,-2.587737737705423591
0.273000000000000131,-2.672040587998311345
0.274000000000000132,-2.753362317710165375
0.275000000000000133,-2.831912086039146903
0.276000000000000134,-2.907875901842327249
0.277000000000000135,-2.981417442015581010
0.278000000000000136,-3.052678940544915953
0.279000000000000137,-3.121782137548245295
0.280000000000000138,-3.188829278118219257
0.281000000000000139,-3.253904151298274705
0.282000000000000139,-3.317073160067863569
0.283000000000000140,-3.378386413771905072
0.284000000000000141,-3.437878834997547983
0.285000000000000142,-3.495571273473077945
0.286000000000000143,-3.551471620133901830
0.287000000000000144,-3.605575915064666681
0.288000000000000145,-3.657869443581944324
0.289000000000000146,-3.708327815263248173
0.290000000000000147,-3.756918021255329698
0.291000000000000147,-3.803599465702875104
0.292000000000000148,-3.848324967628229842
0.293000000000000149,-3.891041730060214032
0.294000000000000150,-3.931692273655772674
0.295000000000000151,-3.970215332480507620
0.296000000000000152,-4.006546710012488077
0.297000000000000153,-4.040620093808345636
0.298000000000000154,-4.072367827620666958
0.299000000000000155,-4.101721640081958498
0.300000000000000155,-4.128613329372610607
0.301000000000000156,-4.152975403569035606
0.302000000000000157,-4.174741676624175390
0.303000000000000158,-4.193847820165887086
0.304000000000000159,-4.210231871511103563
0.305000000000000160,-4.223834698484379757
0.306000000000000161,-4.234600421801227199
0.307000000000000162,-4.242476795928660671
0.308000000000000163,-4.247415549469490514
0.309000000000000163,-4.249372686234100804
0.310000000000000164,-4.248308748264128631
0.311000000000000165,-4.244189042157958447
0.312000000000000166,-4.236983830119466887
0.313000000000000167,-4.226668487209172653
0.314000000000000168,-4.213223626322622373
0.315000000000000169,-4.196635192454877483
0.316000000000000170,-4.176894527833516335
0.317000000000000171,-4.153998409516221457
0.318000000000000171,-4.127949061053856283
0.319000000000000172,-4.098754139816775499
0.320000000000000173,-4.066426701571407065
0.321000000000000174,-4.030985143876888444
0.322000000000000175,-3.992453129848539284
0.323000000000000176,-3.950859493806466283
0.324000000000000177,-3.906238130294519717
0.325000000000000178,-3.858627867917781451
0.326000000000000179,-3.808072329406281487
0.327000000000000179,-3.754619779268838720
0.328000000000000180,-3.698322960354872180
0.329000000000000181,-3.639238920594280557
0.330000000000000182,-3.577428831134809251
0.331000000000000183,-3.512957797046313058
0.332000000000000184,-3.445894661708396534
0.333000000000000185,-3.376311805945905409
0.334000000000000186,-3.304284942923596979
0.335000000000000187,-3.229892909758386388
0.336000000000000187,-3.153217456754964676
0.337000000000000188,-3.074343035118035861
0.338000000000000189,-2.993356583943003635
0.339000000000000190,-2.910347317235843612
0.340000000000000191,-2.825406511662857501
0.341000000000000192,-2.738627295682506180
0.342000000000000193,-2.650104440663215488
0.343000000000000194,-2.559934154545337126
0.344000000000000195,-2.468213878559729402
0.345000000000000195,-2.375042087472484909
0.346000000000000196,-2.280518093782796463
0.347000000000000197,-2.184741856260620896
0.348000000000000198,-2.087813793171989118
0.349000000000000199,-1.989834600502157214
0.350000000000000200,-1.890905075451564388
0.351000000000000201,-1.791125945444984824
0.352000000000000202,-1.690597702862276730
0.353000000000000203,-1.589420445668104476
0.354000000000000203,-1.487693724088791525
0.355000000000000204,-1.385516393456946105
0.356000000000000205,-1.282986473318463272
0.357000000000000206,-1.180201012871934907
0.358000000000000207,-1.077255962787457610
0.359000000000000208,-0.974246053430482872
0.360000000000000209,-0.871264679496029260
0.361000000000000210,-0.768403791039992567
0.362000000000000210,-0.665753790876854268
0.363000000000000211,-0.563403438297055081
0.364000000000000212,-0.461439759042512609
0.365000000000000213,-0.359947961465017396
0.366000000000000214,-0.259011358780017020
0.367000000000000215,-0.158711297316745797
0.368000000000000216,-0.059127090655598069
0.369000000000000217,0.039664040465768921
0.370000000000000218,0.137587022604239856
0.371000000000000218,0.234568978555085517
0.372000000000000219,0.330539270928258633
0.373000000000000220,0.425429540503382331
0.374000000000000221,0.519173739514283583
0.375000000000000222,0.611708160018304747
0.376000000000000223,0.702971457508696829
0.377000000000000224,0.792904669931432160
0.378000000000000225,0.881451232269622742
0.379000000000000226,0.968556986860488855
0.380000000000000226,1.054170189610593278
0.381000000000000227,1.138241512275749212
0.382000000000000228,1.220724040971860491
0.383000000000000229,1.301573271082526295
0.384000000000000230,1.380747098728648536
0.385000000000000231,1.458205808963668471
0.386000000000000232,1.533912060856911452
0.387000000000000233,1.607830869625432424
0.388000000000000234,1.679929585972715245
0.389000000000000234,1.750177872790050770
0.390000000000000235,1.818547679374049819
0.391000000000000236,1.885013213310493096
0.392000000000000237,1.949550910172189955
0.393000000000000238,2.012139401174833697
0.394000000000000239,2.072759478931867072
0.395000000000000240,2.131394061445701205
0.396000000000000241,2.188028154469132680
0.397000000000000242,2.242648812367107780
0.398000000000000242,2.295245097605244755
0.399000000000000243,2.345808038987693411
0.400000000000000244,2.394330588763243117
0.401000000000000245,2.440807578714248915
0.402000000000000246,2.485235675339646289
0.403000000000000247,2.527613334238934861
0.404000000000000248,2.567940753800280085
0.405000000000000249,2.606219828291963747
0.406000000000000250,2.642454100452539478
0.407000000000000250,2.676648713671089919
0.408000000000000251,2.708810363845323810
0.409000000000000252,2.738947251001230931
0.410000000000000253,2.767069030754566672
0.411000000000000254,2.793186765690423012
0.412000000000000255,2.817312876733834237
0.413000000000000256,2.839461094580503442
0.414000000000000257,2.859646411253520260
0.415000000000000258,2.877885031848228525
0.416000000000000258,2.894194326524339722
0.417000000000000259,2.908592782800810905
0.418000000000000260,2.921099958206062830
0.419000000000000261,2.931736433332851277
0.420000000000000262,2.940523765344084328
0.421000000000000263,2.947484441972946900
0.422000000000000264,2.952641836057845470
0.423000000000000265,2.956020160649898365
0.424000000000000266,2.957644424727857935
0.425000000000000266,2.957540389553030558
0.426000000000000267,2.955734525693944015
0.427000000000000268,2.952253970748237144
0.428000000000000269,2.947126487786851268
0.429000000000000270,2.940380424543343807
0.430000000000000271,2.932044673368910281
0.431000000000000272,2.922148631971695831
0.432000000000000273,2.910722164956869307
0.433000000000000274,2.897795566182057136
0.434000000000000274,2.883399521940805510
0.435000000000000275,2.867565074985095386
0.436000000000000276,2.850323589396071444
0.437000000000000277,2.831706716310640193
0.438000000000000278,2.811746360510011922
0.439000000000000279,2.790474647874765957
0.440000000000000280,2.767923893709606453
0.441000000000000281,2.744126571939751180
0.442000000000000282,2.719115285179394714
0.443000000000000282,2.692922735671815282
0.444000000000000283,2.665581697099191238
0.445000000000000284,2.637124987259441333
0.446000000000000285,2.607585441606226073
0.447000000000000286,2.576995887647248740
0.448000000000000287,2.545389120195284072
0.449000000000000288,2.512797877465323459
0.450000000000000289,2.479254818010563799
0.451000000000000290,2.444792498489192223
0.452000000000000290,2.409443352253222592
0.453000000000000291,2.373239668750029896
0.454000000000000292,2.336213573726616755
0.455000000000000293,2.298397010226096437
0.456000000000000294,2.259821720365412734
0.457000000000000295,2.220519227882821411
0.458000000000000296,2.180520821443219681
0.459000000000000297,2.139857538689125427
0.460000000000000298,2.098560151024574161
0.461000000000000298,2.056659149119174579
0.462000000000000299,2.014184729118944084
0.463000000000000300,1.971166779550627579
0.464000000000000301,1.927634868905732546
0.465000000000000302,1.883618233890545168
0.466000000000000303,1.839145768327997033
0.467000000000000304,1.794246012697394477
0.468000000000000305,1.748947144297670730
0.469000000000000306,1.703276968019898252
0.470000000000000306,1.657262907714705857
0.471000000000000307,1.610931998140147980
0.472000000000000308,1.564310877475651562
0.473000000000000309,1.517425780387577916
0.474000000000000310,1.470302531632114773
0.475000000000000311,1.422966540180930606
0.476000000000000312,1.375442793855606194
0.477000000000000313,1.327755854456284412
0.478000000000000314,1.279929853370676884
0.479000000000000314,1.231988487649208208
0.480000000000000315,1.183955016532467708
0.481000000000000316,1.135852258417105798
0.482000000000000317,1.087702588246558522
0.483000000000000318,1.039527935313027784
0.484000000000000319,0.991349781457372847
0.485000000000000320,0.943189159653704978
0.486000000000000321,0.895066652965627929
0.487000000000000322,0.847002393861281178
0.488000000000000322,0.799016063874497862
0.489000000000000323,0.751126893599620593
0.490000000000000324,0.703353663007625363
0.491000000000000325,0.655714702071535815
0.492000000000000326,0.608227891689174904
0.493000000000000327,0.560910664891647981
0.494000000000000328,0.513780008326027327
0.495000000000000329,0.466852464001034750
0.496000000000000330,0.420144131284690636
0.497000000000000330,0.373670669143070233
0.498000000000000331,0.327447298609637838
0.499000000000000332,0.281488805474799597
0.500000000000000333,0.235809543185435511
0.501000000000000334,0.190423435944614111
0.502000000000000335,0.145343982001704952
0.503000000000000336,0.100584257123497500
0.504000000000000337,0.056156918236989352
0.505000000000000338,0.012074207234918709
0.506000000000000338,-0.031652045064815219
0.507000000000000339,-0.075010414814424442
0.508000000000000340,-0.117989880894506613
0.509000000000000341,-0.160579820543492652
0.510000000000000342,-0.202770004866172637
0.511000000000000343,-0.244550594229019091
0.512000000000000344,-0.285912133549768133
0.513000000000000345,-0.326845547488528176
0.514000000000000346,-0.367342135547570503
0.515000000000000346,-0.407393567086516473
0.516000000000000347,-0.446991876259692500
0.517000000000000348,-0.486129456882069100
0.518000000000000349,-0.524799057230033505
0.519000000000000350,-0.562993774783032030
0.520000000000000351,-0.600707050912011153
0.521000000000000352,-0.637932665520264730
0.522000000000000353,-0.674664731642182103
0.523000000000000353,-0.710897690005267147
0.524000000000000354,-0.746626303560432247
0.525000000000000355,-0.781845651985640933
0.526000000000000356,-0.816551126167535002
0.527000000000000357,-0.850738422665740179
0.528000000000000358,-0.884403538164278968
0.529000000000000359,-0.917542763914243276
0.530000000000000360,-0.950152680171966524
0.531000000000000361,-0.982230150636548949
0.532000000000000361,-1.013772316890579450
0.533000000000000362,-1.044776592847627361
0.534000000000000363,-1.075240659210059402
0.535000000000000364,-1.105162457940493059
0.536000000000000365,-1.134540186750077506
0.537000000000000366,-1.163372293606701247
0.538000000000000367,-1.191657471266010182
0.539000000000000368,-1.219394651828089815
0.540000000000000369,-1.246583001322428164
0.541000000000000369,-1.273221914323741988
0.542000000000000370,-1.299311008601050199
0.543000000000000371,-1.324850119802347015
0.544000000000000372,-1.349839296177023362
0.545000000000000373,-1.374278793338114202
0.546000000000000374,-1.398169069066375725
0.547000000000000375,-1.421510778157990540
0.548000000000000376,-1.444304767317723170
0.549000000000000377,-1.466552070099116811
0.550000000000000377,-1.488253901893355380
0.551000000000000378,-1.509411654968183303
0.552000000000000379,-1.530026893558317003
0.553000000000000380,-1.550101349008598861
0.554000000000000381,-1.569636914971067609
0.555000000000000382,-1.588635642657138636
0.556000000000000383,-1.607099736145800595
0.557000000000000384,-1.625031547748912786
0.558000000000000385,-1.642433573434366023
0.559000000000000385,-1.659308448308000505
0.560000000000000386,-1.675658942154940600
0.561000000000000387,-1.691487955041065971
0.562000000000000388,-1.706798512975161941
0.563000000000000389,-1.721593763632356611
0.564000000000000390,-1.735876972139219987
0.565000000000000391,-1.749651516921022276
0.566000000000000392,-1.762920885611463095
0.567000000000000393,-1.775688671025178023
0.568000000000000393,-1.787958567193258741
0.569000000000000394,-1.799734365462012819
0.570000000000000395,-1.811019950655083477
0.571000000000000396,-1.821819297299009932
0.572000000000000397,-1.832136465912340473
0.573000000000000398,-1.841975599358255611
0.574000000000000399,-1.851340919260671569
0.575000000000000400,-1.860236722483795901
0.576000000000000401,-1.868667377674958274
0.577000000000000401,-1.876637321870645581
0.578000000000000402,-1.884151057165489362
0.579000000000000403,-1.891213147444025022
0.580000000000000404,-1.897828215174989896
0.581000000000000405,-1.904000938267826459
0.582000000000000406,-1.909736046991164615
0.583000000000000407,-1.915038320952844320
0.584000000000000408,-1.919912586141243382
0.585000000000000409,-1.924363712027394868
0.586000000000000409,-1.928396608727579231
0.587000000000000410,-1.932016224225937107
0.588000000000000411,-1.935227541656584282
0.589000000000000412,-1.938035576644889790
0.590000000000000413,-1.940445374707263415
0.591000000000000414,-1.942462008709072929
0.592000000000000415,-1.944090576380115509
0.593000000000000416,-1.945336197887060692
0.594000000000000417,-1.946204013462388804
0.595000000000000417,-1.946699181089199815
0.596000000000000418,-1.946826874241292860
0.597000000000000419,-1.946592279678005966
0.598000000000000420,-1.946000595293093438
0.599000000000000421,-1.945057028017125544
0.600000000000000422,-1.943766791772722602
0.601000000000000423,-1.942135105482003521
0.602000000000000424,-1.940167191125623969
0.603000000000000425,-1.937868271852755342
0.604000000000000425,-1.935243570141288671
0.605000000000000426,-1.932298306007692590
0.606000000000000427,-1.929037695265817032
0.607000000000000428,-1.925466947833911036
0.608000000000000429,-1.921591266089335281
0.609000000000000430,-1.917415843270085407
0.610000000000000431,-1.912945861922662916
0.611000000000000432,-1.908186492395419931
0.612000000000000433,-1.903142891376815582
0.613000000000000433,-1.897820200477869701
0.614000000000000434,-1.892223544858104178
0.615000000000000435,-1.886358031894289411
0.616000000000000436,-1.880228749891347917
