# Ce-001_1HBENZIMIDAZOLE-AC
# h[nm],U(h)[kJ/mol]
0.149999999999999994,130.311891301662939213
0.150999999999999995,125.833250407736684906
0.151999999999999996,121.280121908289174826
0.152999999999999997,116.758383249294411144
0.153999999999999998,112.335573703672622514
0.154999999999999999,108.043667364381718698
0.156000000000000000,103.888701940672518731
0.157000000000000001,99.861214563211689210
0.158000000000000002,95.944862926480027454
0.159000000000000002,92.122456313967930441
0.160000000000000003,88.379528344823214070
0.161000000000000004,84.705954956064957173
0.162000000000000005,81.096205024830140928
0.163000000000000006,77.548755062162712193
0.164000000000000007,74.065088360632998388
0.165000000000000008,70.648578588475714923
0.166000000000000009,67.303450347231503770
0.167000000000000010,64.033923326571922985
0.168000000000000010,60.843583677681841948
0.169000000000000011,57.734983712805728828
0.170000000000000012,54.709445192906613897
0.171000000000000013,51.767028213823685689
0.172000000000000014,48.906623340186961002
0.173000000000000015,46.126126089835011612
0.174000000000000016,43.422657748091232577
0.175000000000000017,40.792803035359732178
0.176000000000000018,38.232842148070304233
0.177000000000000018,35.738961359029275400
0.178000000000000019,33.307432243753979151
0.179000000000000020,30.934754476779751542
0.180000000000000021,28.617760961573470269
0.181000000000000022,26.353686869601574472
0.182000000000000023,24.140206079357700020
0.183000000000000024,21.975439665423767366
0.184000000000000025,19.857941639641001785
0.185000000000000026,17.786667234032272233
0.186000000000000026,15.760928766943418822
0.187000000000000027,13.780343660374390069
0.188000000000000028,11.844778568439362942
0.189000000000000029,9.954292906015778541
0.190000000000000030,8.109084387108117298
0.191000000000000031,6.309438533192076370
0.192000000000000032,4.555683518913838270
0.193000000000000033,2.848151201685026113
0.194000000000000034,1.187144740489364469
0.195000000000000034,-0.427087151001631304
0.196000000000000035,-1.994369554118404109
0.197000000000000036,-3.514614745008883823
0.198000000000000037,-4.987830237929343546
0.199000000000000038,-6.414122155979900874
0.200000000000000039,-7.793694657490894073
0.201000000000000040,-9.126846152915828014
0.202000000000000041,-10.413963024371707178
0.203000000000000042,-11.655511515328708327
0.204000000000000042,-12.852028397931729131
0.205000000000000043,-14.004110955627842472
0.206000000000000044,-15.112406743845093970
0.207000000000000045,-16.177603515188266670
0.208000000000000046,-17.200419620953041999
0.209000000000000047,-18.181595129940621547
0.210000000000000048,-19.121883840180096570
0.211000000000000049,-20.022046300288725007
0.212000000000000050,-20.882843905430160447
0.213000000000000050,-21.705034088398733161
0.214000000000000051,-22.489366589219677905
0.215000000000000052,-23.236580756532568159
0.216000000000000053,-23.947403810483912423
0.217000000000000054,-24.622549979349138027
0.218000000000000055,-25.262720410014829042
0.219000000000000056,-25.868603745127995097
0.220000000000000057,-26.440877256503405590
0.221000000000000058,-26.980208424619586793
0.222000000000000058,-27.487256857123583131
0.223000000000000059,-27.962676444617670768
0.224000000000000060,-28.407117659100670437
0.225000000000000061,-28.821229908805047870
0.226000000000000062,-29.205663872391891545
0.227000000000000063,-29.561073745178411798
0.228000000000000064,-29.888119339965122379
0.229000000000000065,-30.187467994849555453
0.230000000000000066,-30.459796249943991597
0.231000000000000066,-30.705791263995820373
0.232000000000000067,-30.926151950408552693
0.233000000000000068,-31.121589819989033288
0.234000000000000069,-31.292829524840062305
0.235000000000000070,-31.440609104139177532
0.236000000000000071,-31.565679938082325862
0.237000000000000072,-31.668806421029358944
0.238000000000000073,-31.750765368886344930
0.239000000000000073,-31.812345179028149289
0.240000000000000074,-31.854344763647468142
0.241000000000000075,-31.877572279357714535
0.242000000000000076,-31.882843677230010115
0.243000000000000077,-31.870981098265918519
0.244000000000000078,-31.842811139650763153
0.245000000000000079,-31.799163017054741687
0.246000000000000080,-31.740866647807269629
0.247000000000000081,-31.668750679014159743
0.248000000000000081,-31.583640483670841093
0.249000000000000082,-31.486356146593845295
0.250000000000000111,-31.377710460592123098
0.251000000000000112,-31.258506951769685855
0.252000000000000113,-31.129537951230219051
0.253000000000000114,-30.991582728771437161
0.254000000000000115,-30.845405702449152585
0.255000000000000115,-30.691754736175361984
0.256000000000000116,-30.531359535821344764
0.257000000000000117,-30.364930152640614125
0.258000000000000118,-30.193155601224162865
0.259000000000000119,-30.016702597667496377
0.260000000000000120,-29.836214422173600980
0.261000000000000121,-29.652309908946811845
0.262000000000000122,-29.465582564958264555
0.263000000000000123,-29.276599817983814944
0.264000000000000123,-29.085902393237621055
0.265000000000000124,-28.894003816945314611
0.266000000000000125,-28.701390044323318307
0.267000000000000126,-28.508519208650511700
0.268000000000000127,-28.315821487435943737
0.269000000000000128,-28.123699081095651309
0.270000000000000129,-27.932526299050756791
0.271000000000000130,-27.742649747742852639
0.272000000000000131,-27.554388614726878615
0.273000000000000131,-27.368035042740171292
0.274000000000000132,-27.183854587455897445
0.275000000000000133,-27.002086752502133749
0.276000000000000134,-26.822945595260694773
0.277000000000000135,-26.646620396946396170
0.278000000000000136,-26.473276390502935129
0.279000000000000137,-26.303055539930188189
0.280000000000000138,-26.136077364775751164
0.281000000000000139,-25.972439803675051451
0.282000000000000139,-25.812220111005341749
0.283000000000000140,-25.655475780925634410
0.284000000000000141,-25.502245493301845869
0.285000000000000142,-25.352550076261643142
0.286000000000000143,-25.206393480382629946
0.287000000000000144,-25.063763759786748864
0.288000000000000145,-24.924634055692141743
0.289000000000000146,-24.788963578255437170
0.290000000000000147,-24.656698582823292298
0.291000000000000147,-24.527773336997050535
0.292000000000000148,-24.402111075199005796
0.293000000000000149,-24.279624937708682353
0.294000000000000150,-24.160218891413759223
0.295000000000000151,-24.043788629789542455
0.296000000000000152,-23.930222449882730729
0.297000000000000153,-23.819402104329189029
0.298000000000000154,-23.711203626679342449
0.299000000000000155,-23.605498128539611713
0.300000000000000155,-23.502152567261980209
0.301000000000000156,-23.401030483126994852
0.302000000000000157,-23.301992705167474895
0.303000000000000158,-23.204898024970610493
0.304000000000000159,-23.109603837975441820
0.305000000000000160,-23.015966751950156066
0.306000000000000161,-22.923843162490065595
0.307000000000000162,-22.833089795522131027
0.308000000000000163,-22.743564216935631350
0.309000000000000163,-22.655125309581954696
0.310000000000000164,-22.567633717998795362
0.311000000000000165,-22.480952261316453189
0.312000000000000166,-22.394946314896397865
0.313000000000000167,-22.309484161335170427
0.314000000000000168,-22.224437311540434337
0.315000000000000169,-22.139680796651173722
0.316000000000000170,-22.055093431630982792
0.317000000000000171,-21.970558051412119482
0.318000000000000171,-21.885961720509762074
0.319000000000000172,-21.801195917060418594
0.320000000000000173,-21.716156692266370243
0.321000000000000174,-21.630744806249960988
0.322000000000000175,-21.544865841337546897
0.323000000000000176,-21.458430293803942845
0.324000000000000177,-21.371353645113792652
0.325000000000000178,-21.283556413697773735
0.326000000000000179,-21.194964188298889951
0.327000000000000179,-21.105507643916929794
0.328000000000000180,-21.015122541369777309
0.329000000000000181,-20.923749711476514079
0.330000000000000182,-20.831335024851245663
0.331000000000000183,-20.737829348278459918
0.332000000000000184,-20.643188488619351517
0.333000000000000185,-20.547373125176203956
0.334000000000000186,-20.450348731417417270
0.335000000000000187,-20.352085486939607506
0.336000000000000187,-20.252558180516558650
0.337000000000000188,-20.151746105055906355
0.338000000000000189,-20.049632945256295358
0.339000000000000190,-19.946206658727341221
0.340000000000000191,-19.841459351304859382
0.341000000000000192,-19.735387147263789842
0.342000000000000193,-19.627990055099637345
0.343000000000000194,-19.519271829519688310
0.344000000000000195,-19.409239830253600445
0.345000000000000195,-19.297904878263448580
0.346000000000000196,-19.185281109902376784
0.347000000000000197,-19.071385829541696921
0.348000000000000198,-18.956239361156892897
0.349000000000000199,-18.839864899333790049
0.350000000000000200,-18.722288360128551687
0.351000000000000201,-18.603538232186942025
0.352000000000000202,-18.483645428501723984
0.353000000000000203,-18.362643139160944372
0.354000000000000203,-18.240566685414183468
0.355000000000000204,-18.117453375359232837
0.356000000000000205,-17.993342361528217310
0.357000000000000206,-17.868274500628807289
0.358000000000000207,-17.742292215674030587
0.359000000000000208,-17.615439360713157413
0.360000000000000209,-17.487761088355654238
0.361000000000000210,-17.359303720260349735
0.362000000000000210,-17.230114620743584908
0.363000000000000211,-17.100242073642135665
0.364000000000000212,-16.969735162549675067
0.365000000000000213,-16.838643654529327875
0.366000000000000214,-16.707017887389756794
0.367000000000000215,-16.574908660597223786
0.368000000000000216,-16.442367129882974552
0.369000000000000217,-16.309444705591591429
0.370000000000000218,-16.176192954804527346
0.371000000000000218,-16.042663507260797928
0.372000000000000219,-15.908907965086694247
0.373000000000000220,-15.774977816336004821
0.374000000000000221,-15.640924352332893577
0.375000000000000222,-15.506798588800938532
0.376000000000000223,-15.372651190753710893
0.377000000000000224,-15.238532401114710524
0.378000000000000225,-15.104491973027865725
0.379000000000000226,-14.970579105812925391
0.380000000000000226,-14.836842384515023241
0.381000000000000227,-14.703329722991574258
0.382000000000000228,-14.570088310475711069
0.383000000000000229,-14.437164561550488884
0.384000000000000230,-14.304604069464463834
0.385000000000000231,-14.172451562716100071
0.386000000000000232,-14.040750864830831901
0.387000000000000233,-13.909544857252473804
0.388000000000000234,-13.778875445268056410
0.389000000000000234,-13.648783526883573103
0.390000000000000235,-13.519308964565954767
0.391000000000000236,-13.390490559765968470
0.392000000000000237,-13.262366030135046557
0.393000000000000238,-13.134971989348866117
0.394000000000000239,-13.008343929449491583
0.395000000000000240,-12.882516205618054883
0.396000000000000241,-12.757522023289697088
0.397000000000000242,-12.633393427522483066
0.398000000000000242,-12.510161294532903042
0.399000000000000243,-12.387855325310376031
0.400000000000000244,-12.266504041224399302
0.401000000000000245,-12.146134781538687974
0.402000000000000246,-12.026773702747522776
0.403000000000000247,-11.908445779650577379
0.404000000000000248,-11.791174808084022629
0.405000000000000249,-11.674983409226692643
0.406000000000000250,-11.559893035401604067
0.407000000000000250,-11.445923977294732765
0.408000000000000251,-11.333095372514279120
0.409000000000000252,-11.221425215415617771
0.410000000000000253,-11.110930368118392408
0.411000000000000254,-11.001626572644386926
0.412000000000000255,-10.893528464106237763
0.413000000000000256,-10.786649584879134167
0.414000000000000257,-10.681002399689168314
0.415000000000000258,-10.576598311554315401
0.416000000000000258,-10.473447678515476866
0.417000000000000259,-10.371559831097085791
0.418000000000000260,-10.270943090438827028
0.419000000000000261,-10.171604787041539808
0.420000000000000262,-10.073551280072738479
0.421000000000000263,-9.976787977178716460
0.422000000000000264,-9.881319354752166717
0.423000000000000265,-9.787148978606257543
0.424000000000000266,-9.694279525007850395
0.425000000000000266,-9.602712802024344185
0.426000000000000267,-9.512449771140454757
0.427000000000000268,-9.423490569103160297
0.428000000000000269,-9.335834529954613714
0.429000000000000270,-9.249480207214650918
0.430000000000000271,-9.164425396176264726
0.431000000000000272,-9.080667156278943608
0.432000000000000273,-8.998201833526588089
0.433000000000000274,-8.917025082918183188
0.434000000000000274,-8.837131890861035899
0.435000000000000275,-8.758516597537886028
0.436000000000000276,-8.681172919200790261
0.437000000000000277,-8.605093970365903289
0.438000000000000278,-8.530272285884999306
0.439000000000000279,-8.456699842870804673
0.440000000000000280,-8.384368082454411564
0.441000000000000281,-8.313267931354676676
0.442000000000000282,-8.243389823240528713
0.443000000000000282,-8.174723719868328686
0.444000000000000283,-8.107259131977802014
0.445000000000000284,-8.040985139931065007
0.446000000000000285,-7.975890414080266666
0.447000000000000286,-7.911963234850882820
0.448000000000000287,-7.849191512528065573
0.449000000000000288,-7.787562806735131460
0.450000000000000289,-7.727064345593769090
0.451000000000000290,-7.667683044556601324
0.452000000000000290,-7.609405524903739781
0.453000000000000291,-7.552218131895664044
0.454000000000000292,-7.496106952575706472
0.455000000000000293,-7.441057833216054185
0.456000000000000294,-7.387056396402167380
0.457000000000000295,-7.334088057750965284
0.458000000000000296,-7.282138042259042265
0.459000000000000297,-7.231191400277710457
0.460000000000000298,-7.181233023112312708
0.461000000000000298,-7.132247658243905164
0.462000000000000299,-7.084219924171915928
0.463000000000000300,-7.037134324876913816
0.464000000000000301,-6.990975263903239423
0.465000000000000302,-6.945727058061626380
0.466000000000000303,-6.901373950752460296
0.467000000000000304,-6.857900124910696782
0.468000000000000305,-6.815289715574024854
0.469000000000000306,-6.773526822076034293
0.470000000000000306,-6.732595519866748646
0.471000000000000307,-6.692479871962905058
0.472000000000000308,-6.653163940031187273
0.473000000000000309,-6.614631795107311696
0.474000000000000310,-6.576867527954645354
0.475000000000000311,-6.539855259066070126
0.476000000000000312,-6.503579148313066938
0.477000000000000313,-6.468023404246257435
0.478000000000000314,-6.433172293051822699
0.479000000000000314,-6.399010147168502805
0.480000000000000315,-6.365521373569825947
0.481000000000000316,-6.332690461716751429
0.482000000000000317,-6.300501991185628370
0.483000000000000318,-6.268940638976872926
0.484000000000000319,-6.237991186509636243
0.485000000000000320,-6.207638526308027593
0.486000000000000321,-6.177867668384386945
0.487000000000000322,-6.148663746325306434
0.488000000000000322,-6.120012023086092157
0.489000000000000323,-6.091897896499515852
0.490000000000000324,-6.064306904504632278
0.491000000000000325,-6.037224730101604209
0.492000000000000326,-6.010637206038363267
0.493000000000000327,-5.984530319235156881
0.494000000000000328,-5.958890214952825559
0.495000000000000329,-5.933703200710870540
0.496000000000000330,-5.908955749961171122
0.497000000000000330,-5.884634505523402837
0.498000000000000331,-5.860726282788008668
0.499000000000000332,-5.837218072692729187
0.500000000000000333,-5.814097044478479859
0.501000000000000334,-5.791350548230562723
0.502000000000000335,-5.768966117210903022
0.503000000000000336,-5.746931469987229590
0.504000000000000337,-5.725234512364801631
0.505000000000000338,-5.703863339126497678
0.506000000000000338,-5.682806235586782329
0.507000000000000339,-5.662051678965190682
0.508000000000000340,-5.641588339584872713
0.509000000000000341,-5.621405081901519551
0.510000000000000342,-5.601490965368202346
0.511000000000000343,-5.581835245141328450
0.512000000000000344,-5.562427372632983591
0.513000000000000345,-5.543256995914811469
0.514000000000000346,-5.524313959978564448
0.515000000000000346,-5.505588306858235192
0.516000000000000347,-5.487070275618763482
0.517000000000000348,-5.468750302216177417
0.518000000000000349,-5.450619019233815976
0.519000000000000350,-5.432667255499453063
0.520000000000000351,-5.414886035587802127
0.521000000000000352,-5.397266579212956827
0.522000000000000353,-5.379800300515144684
0.523000000000000353,-5.362478807246160883
0.524000000000000354,-5.345293899857717079
0.525000000000000355,-5.328237570496808573
0.526000000000000356,-5.311302001912218351
0.527000000000000357,-5.294479566276119265
0.528000000000000358,-5.277762823924659230
0.529000000000000359,-5.261144522021282910
0.530000000000000360,-5.244617593146610801
0.531000000000000361,-5.228175153818363619
0.532000000000000361,-5.211810502944987711
0.533000000000000362,-5.195517120216338824
0.534000000000000363,-5.179288664434869460
0.535000000000000364,-5.163118971790528811
0.536000000000000365,-5.147002054082592259
0.537000000000000366,-5.130932096891585026
0.538000000000000367,-5.114903457704201628
0.539000000000000368,-5.098910663994329795
0.540000000000000369,-5.082948411262879773
0.541000000000000369,-5.067011561039324263
0.542000000000000370,-5.051095138847586874
0.543000000000000371,-5.035194332138923201
0.544000000000000372,-5.019304488194352487
0.545000000000000373,-5.003421111999088566
0.546000000000000374,-4.987539864091391273
0.547000000000000375,-4.971656558388117375
0.548000000000000376,-4.955767159989309611
0.549000000000000377,-4.939867782963889731
0.550000000000000377,-4.923954688118639567
0.551000000000000378,-4.908024280752478319
0.552000000000000379,-4.892073108398028225
0.553000000000000380,-4.876097858552335573
0.554000000000000381,-4.860095356398611344
0.555000000000000382,-4.844062562520798032
0.556000000000000383,-4.827996570612551608
0.557000000000000384,-4.811894605182457596
0.558000000000000385,-4.795754019256927236
0.559000000000000385,-4.779572292082372442
0.560000000000000386,-4.763347026828106401
0.561000000000000387,-4.747075948291405112
0.562000000000000388,-4.730756900606069237
0.563000000000000389,-4.714387844955760798
0.564000000000000390,-4.697966857293456755
0.565000000000000391,-4.681492126068098614
0.566000000000000392,-4.664961949959686827
0.567000000000000393,-4.648374735623873377
0.568000000000000393,-4.631728995447067732
0.569000000000000394,-4.615023345313146841
0.570000000000000395,-4.598256502382663591
0.571000000000000396,-4.581427282885438323
0.572000000000000397,-4.564534599927513980
0.573000000000000398,-4.547577461313160541
0.574000000000000399,-4.530554967382828480
0.575000000000000400,-4.513466308867736920
0.576000000000000401,-4.496310764761789258
0.577000000000000401,-4.479087700211554335
0.578000000000000402,-4.461796564424860279
0.579000000000000403,-4.444436888598638724
0.580000000000000404,-4.427008283866586957
0.581000000000000405,-4.409510439267155135
0.582000000000000406,-4.391943119732330203
0.583000000000000407,-4.374306164097730765
0.584000000000000408,-4.356599483134398376
0.585000000000000409,-4.338823057602699151
0.586000000000000409,-4.320976936328699836
0.587000000000000410,-4.303061234303387828
0.588000000000000411,-4.285076130805002492
0.589000000000000412,-4.267021867544806391
0.590000000000000413,-4.248898746836533569
0.591000000000000414,-4.230707129789788468
0.592000000000000415,-4.212447434527552659
0.593000000000000416,-4.194120134428044544
0.594000000000000417,-4.175725756391072352
0.595000000000000417,-4.157264879129060731
0.596000000000000418,-4.138738131482783800
0.597000000000000419,-4.120146190762078220
0.598000000000000420,-4.101489781111435029
0.599000000000000421,-4.082769671900692288
0.600000000000000422,-4.063986676140783239
0.601000000000000423,-4.045141648924615474
0.602000000000000424,-4.026235485893098875
0.603000000000000425,-4.007269121726321437
0.604000000000000425,-3.988243528659817905
0.605000000000000426,-3.969159715025980084
0.606000000000000427,-3.950018723820529321
0.607000000000000428,-3.930821631293922813
