# Ce-001_PROPAN1OL-AC
# h[nm],U(h)[kJ/mol]
0.149999999999999994,133.366970969940041414
0.150999999999999995,130.611410343345539786
0.151999999999999996,127.127355555878040150
0.152999999999999997,123.503897300883252797
0.153999999999999998,119.996718381714657653
0.154999999999999999,116.680795470173023887
0.156000000000000000,113.544171560431735202
0.157000000000000001,110.542453192300826004
0.158000000000000002,107.627948298333620869
0.159000000000000002,104.763083427165526018
0.160000000000000003,101.924610513178635074
0.161000000000000004,99.102868775438224702
0.162000000000000005,96.298790206648888557
0.163000000000000006,93.520254774330169312
0.164000000000000007,90.778679164386787193
0.165000000000000008,88.086257536861609196
0.166000000000000009,85.453986834408595996
0.167000000000000010,82.890445460416586343
0.168000000000000010,80.401211133939938236
0.169000000000000011,77.988771933021240557
0.170000000000000012,75.652783442365148403
0.171000000000000013,73.390540629878088907
0.172000000000000014,71.197556482456576532
0.173000000000000015,69.068164825800991480
0.174000000000000016,66.996088785040797120
0.175000000000000017,64.974937254184339963
0.176000000000000018,62.998608813487180669
0.177000000000000018,61.061595691874586578
0.178000000000000019,59.159189917708943085
0.179000000000000020,57.287600226761696831
0.180000000000000021,55.443992162764160980
0.181000000000000022,53.626465670683614917
0.182000000000000023,51.833984856159659671
0.183000000000000024,50.066273908076937005
0.184000000000000025,48.323691820786216056
0.185000000000000026,46.607096798990156117
0.186000000000000026,44.917709304260633019
0.187000000000000027,43.256980770320922147
0.188000000000000028,41.626473187361156647
0.189000000000000029,40.027753106041195963
0.190000000000000030,38.462302180072718727
0.191000000000000031,36.931445169030943987
0.192000000000000032,35.436295359622697276
0.193000000000000033,33.977716621357402005
0.194000000000000034,32.556300771110038283
0.195000000000000034,31.172358555787990753
0.196000000000000035,29.825922346804002672
0.197000000000000036,28.516758547923149791
0.198000000000000037,27.244387724208781520
0.199000000000000038,26.008110541260244020
0.200000000000000039,24.807037740317699814
0.201000000000000040,23.640122548486679932
0.202000000000000041,22.506194119496090167
0.203000000000000042,21.403990806923012258
0.204000000000000042,20.332192279052623718
0.205000000000000043,19.289449685093952525
0.206000000000000044,18.274413270891102457
0.207000000000000045,17.285757014791236941
0.208000000000000046,16.322200008587671505
0.209000000000000047,15.382524443232355793
0.210000000000000048,14.465590174002485924
0.211000000000000049,13.570345935417680749
0.212000000000000050,12.695837353362666278
0.213000000000000050,11.841211961888690851
0.214000000000000051,11.005721476586522556
0.215000000000000052,10.188721606941758324
0.216000000000000053,9.389669708443705076
0.217000000000000054,8.608120583158468619
0.218000000000000055,7.843720736675312999
0.219000000000000056,7.096201391374994394
0.220000000000000057,6.365370542308503410
0.221000000000000058,5.651104323949931008
0.222000000000000058,4.953337934869590953
0.223000000000000059,4.272056344013495988
0.224000000000000060,3.607284977659185987
0.225000000000000061,2.959080561008919030
0.226000000000000062,2.327522263409083081
0.227000000000000063,1.712703271860529952
0.228000000000000064,1.114722894215563143
0.229000000000000065,0.533679271549020728
0.230000000000000066,-0.030337241127001514
0.231000000000000066,-0.577249985216813921
0.232000000000000067,-1.107001176127019537
0.233000000000000068,-1.619556339138394918
0.234000000000000069,-2.114908007650782462
0.235000000000000070,-2.593078699109486518
0.236000000000000071,-3.054123193401045988
0.237000000000000072,-3.498130146338012558
0.238000000000000073,-3.925223077142652617
0.239000000000000073,-4.335560773707183735
0.240000000000000074,-4.729337162981492426
0.241000000000000075,-5.106780696241380646
0.242000000000000076,-5.468153300353479018
0.243000000000000077,-5.813748946600926004
0.244000000000000078,-6.143891888288225189
0.245000000000000079,-6.458934617319944671
0.246000000000000080,-6.759255588355183697
0.247000000000000081,-7.045256757079658705
0.248000000000000081,-7.317360976701873021
0.249000000000000082,-7.576009294055189969
0.250000000000000111,-7.821658183750689552
0.251000000000000112,-8.054776755743276340
0.252000000000000113,-8.275843968509281723
0.253000000000000114,-8.485345876836003498
0.254000000000000115,-8.683772940043921196
0.255000000000000115,-8.871617413333680702
0.256000000000000116,-9.049370841909558649
0.257000000000000117,-9.217521674603442960
0.258000000000000118,-9.376553010930024357
0.259000000000000119,-9.526940492862772558
0.260000000000000120,-9.669150350143494776
0.261000000000000121,-9.803637605632790297
0.262000000000000122,-9.930844445083140570
0.263000000000000123,-10.051198753769547523
0.264000000000000123,-10.165112820647426162
0.265000000000000124,-10.272982209119160046
0.266000000000000125,-10.375184792077545737
0.267000000000000126,-10.472079947648296638
0.268000000000000127,-10.564007910970794057
0.269000000000000128,-10.651289276425940145
0.270000000000000129,-10.734224643936155275
0.271000000000000130,-10.813094402314980869
0.272000000000000131,-10.888158642123658026
0.273000000000000131,-10.959657190089821199
0.274000000000000132,-11.027809756849933365
0.275000000000000133,-11.092816189582467956
0.276000000000000134,-11.154856820994208277
0.277000000000000135,-11.214092906097956615
0.278000000000000136,-11.270667138268606777
0.279000000000000137,-11.324704236176319938
0.280000000000000138,-11.376311593363769958
0.281000000000000139,-11.425579982450791761
0.282000000000000139,-11.472584306207606275
0.283000000000000140,-11.517384388030295739
0.284000000000000141,-11.560025794673430610
0.285000000000000142,-11.600540684439065942
0.286000000000000143,-11.638948674383232884
0.287000000000000144,-11.675257720476015066
0.288000000000000145,-11.709465005035674778
0.289000000000000146,-11.741557826145328391
0.290000000000000147,-11.771514484151559543
0.291000000000000147,-11.799305160732281195
0.292000000000000148,-11.824892786405897027
0.293000000000000149,-11.848233892730736017
0.294000000000000150,-11.869279445812548346
0.295000000000000151,-11.887975658096021192
0.296000000000000152,-11.904264775761962625
0.297000000000000153,-11.918085839385001989
0.298000000000000154,-11.929375415824734930
0.299000000000000155,-11.938068299627326851
0.300000000000000155,-11.944098182502060013
0.301000000000000156,-11.947398289709724395
0.302000000000000157,-11.947901982455432446
0.303000000000000158,-11.945543325617967056
0.304000000000000159,-11.940257620371301783
0.305000000000000160,-11.931981901460627427
0.306000000000000161,-11.920655399087156212
0.307000000000000162,-11.906219965531237293
0.308000000000000163,-11.888620466804079356
0.309000000000000163,-11.867805139764385558
0.310000000000000164,-11.843725915267663495
0.311000000000000165,-11.816338708034134442
0.312000000000000166,-11.785603674026145171
0.313000000000000167,-11.751485436218313652
0.314000000000000168,-11.713953279724345080
0.315000000000000169,-11.672981317313665173
0.316000000000000170,-11.628548626410088573
0.317000000000000171,-11.580639358713026965
0.318000000000000171,-11.529242823621709491
0.319000000000000172,-11.474353546673228266
0.320000000000000173,-11.415971304228111904
0.321000000000000174,-11.354101135652102883
0.322000000000000175,-11.288753334251126148
0.323000000000000176,-11.219943418218301545
0.324000000000000177,-11.147692082847925121
0.325000000000000178,-11.072025135261899464
0.326000000000000179,-10.992973412880711948
0.327000000000000179,-10.910572686851976343
0.328000000000000180,-10.824863551627988301
0.329000000000000181,-10.735891301858323743
0.330000000000000182,-10.643705797734217100
0.331000000000000183,-10.548361319891487398
0.332000000000000184,-10.449916414944407705
0.333000000000000185,-10.348433732688288700
0.334000000000000186,-10.243979855971534931
0.335000000000000187,-10.136625124199770909
0.336000000000000187,-10.026443451395749662
0.337000000000000188,-9.913512139698575254
0.338000000000000189,-9.797911689145792025
0.339000000000000190,-9.679725604541028261
0.340000000000000191,-9.559040200168967161
0.341000000000000192,-9.435944403079371767
0.342000000000000193,-9.310529555620497888
0.343000000000000194,-9.182889217863307252
0.344000000000000195,-9.053118970517349595
0.345000000000000195,-8.921316218901196748
0.346000000000000196,-8.787579998491583666
0.347000000000000197,-8.652010782538406275
0.348000000000000198,-8.514710292196514985
0.349000000000000199,-8.375781309589429569
0.350000000000000200,-8.235327494186433839
0.351000000000000201,-8.093453202840599658
0.352000000000000202,-7.950263313803773713
0.353000000000000203,-7.805863055003399609
0.354000000000000203,-7.660357836836295675
0.355000000000000204,-7.513853089706090671
0.356000000000000205,-7.366454106503785404
0.357000000000000206,-7.218265890204706992
0.358000000000000207,-7.069393006730303242
0.359000000000000208,-6.919939443199761619
0.360000000000000209,-6.770008471673828687
0.361000000000000210,-6.619702518472077024
0.362000000000000210,-6.469123039124829333
0.363000000000000211,-6.318370399002023241
0.364000000000000212,-6.167543759643652201
0.365000000000000213,-6.016740970799565602
0.366000000000000214,-5.866058468171108764
0.367000000000000215,-5.715591176832364617
0.368000000000000216,-5.565432420295388205
0.369000000000000217,-5.415673835171265438
0.370000000000000218,-5.266405291367349584
0.371000000000000218,-5.117714817750264267
0.372000000000000219,-4.969688533194751123
0.373000000000000220,-4.822410582929305356
0.374000000000000221,-4.675963080081770862
0.375000000000000222,-4.530426052320476238
0.376000000000000223,-4.385877393480223319
0.377000000000000224,-4.242392820056519298
0.378000000000000225,-4.100045832446317817
0.379000000000000226,-3.958907680809043761
0.380000000000000226,-3.819047335417944389
0.381000000000000227,-3.680531461368239832
0.382000000000000228,-3.543424397506146128
0.383000000000000229,-3.407788139440479203
0.384000000000000230,-3.273682326496614614
0.385000000000000231,-3.141164232471847839
0.386000000000000232,-3.010288760049756096
0.387000000000000233,-2.881108438731178722
0.388000000000000234,-2.753673426139106706
0.389000000000000234,-2.628031512555312865
0.390000000000000235,-2.504228128546828636
0.391000000000000236,-2.382306355541777165
0.392000000000000237,-2.262306939214670187
0.393000000000000238,-2.144268305543351794
0.394000000000000239,-2.028226579400943752
0.395000000000000240,-1.914215605548364563
0.396000000000000241,-1.802266971894989522
0.397000000000000242,-1.692410034897189330
0.398000000000000242,-1.584671946967156186
0.399000000000000243,-1.479077685766771566
0.400000000000000244,-1.375650085263889766
0.401000000000000245,-1.274409868431729986
0.402000000000000246,-1.175375681474242651
0.403000000000000247,-1.078564129463803312
0.404000000000000248,-0.983989813280536141
0.405000000000000249,-0.891665367745557491
0.406000000000000250,-0.801601500843677983
0.407000000000000250,-0.713807033934312996
0.408000000000000251,-0.628288942852428534
0.409000000000000252,-0.545052399804833665
0.410000000000000253,-0.464100815970033387
0.411000000000000254,-0.385435884713450916
0.412000000000000255,-0.309057625332744557
0.413000000000000256,-0.234964427251442565
0.414000000000000257,-0.163153094582018876
0.415000000000000258,-0.093618890983034692
0.416000000000000258,-0.026355584737788519
0.417000000000000259,0.038644506014728061
0.418000000000000260,0.101390467962853642
0.419000000000000261,0.161892747282539384
0.420000000000000262,0.220163104335054538
0.421000000000000263,0.276214568459547449
0.422000000000000264,0.330061392914917928
0.423000000000000265,0.381719010022774974
0.424000000000000266,0.431203986560253660
0.425000000000000266,0.478533979449174418
0.426000000000000267,0.523727691785078830
0.427000000000000268,0.566804829247267605
0.428000000000000269,0.607786056928509621
0.429000000000000270,0.646692956620583237
0.430000000000000271,0.683547984589536362
0.431000000000000272,0.718374429872243203
0.432000000000000273,0.751196373123623418
0.433000000000000274,0.782038646041744556
0.434000000000000274,0.810926791395968904
0.435000000000000275,0.837887023681284426
0.436000000000000276,0.862946190420031067
0.437000000000000277,0.886131734130370829
0.438000000000000278,0.907471654979035591
0.439000000000000279,0.926994474134138158
0.440000000000000280,0.944729197832213652
0.441000000000000281,0.960705282172036434
0.442000000000000282,0.974952598646105173
0.443000000000000282,0.987501400419484754
0.444000000000000283,0.998382289363916597
0.445000000000000284,1.007626183854068991
0.446000000000000285,1.015264287331401949
0.447000000000000286,1.021328057639727005
0.448000000000000287,1.025849177135672141
0.449000000000000288,1.028859523575856638
0.450000000000000289,1.030391141781682895
0.451000000000000290,1.030476216081587015
0.452000000000000290,1.029147043529613503
0.453000000000000291,1.026436007898305913
0.454000000000000292,1.022375554443003765
0.455000000000000293,1.016998165433862678
0.456000000000000294,1.010336336451111539
0.457000000000000295,1.002422553438392816
0.458000000000000296,0.993289270508255995
0.459000000000000297,0.982968888493390702
0.460000000000000298,0.971493734236385742
0.461000000000000298,0.958896040610520251
0.462000000000000299,0.945207927263244096
0.463000000000000300,0.930461382073849763
0.464000000000000301,0.914688243316151839
0.465000000000000302,0.897920182516738108
0.466000000000000303,0.880188687998839425
0.467000000000000304,0.861525049101720897
0.468000000000000305,0.841960341064910578
0.469000000000000306,0.821525410566567471
0.470000000000000306,0.800250861904866939
0.471000000000000307,0.778167043811091919
0.472000000000000308,0.755304036882933572
0.473000000000000309,0.731691641626309952
0.474000000000000310,0.707359367093902791
0.475000000000000311,0.682336420108312414
0.476000000000000312,0.656651695057930973
0.477000000000000313,0.630333764253176221
0.478000000000000314,0.603410868830965841
0.479000000000000314,0.575910910195043924
0.480000000000000315,0.547861441979900166
0.481000000000000316,0.519289662525841411
0.482000000000000317,0.490222407852941189
0.483000000000000318,0.460686145121461998
0.484000000000000319,0.430706966566465232
0.485000000000000320,0.400310583894306571
0.486000000000000321,0.369522323128813057
0.487000000000000322,0.338367119894963930
0.488000000000000322,0.306869515127988435
0.489000000000000323,0.275053651195908355
0.490000000000000324,0.242943268423575137
0.491000000000000325,0.210561702006437951
0.492000000000000326,0.177931879302338586
0.493000000000000327,0.145076317489797380
0.494000000000000328,0.112017121581296106
0.495000000000000329,0.078775982780331336
0.496000000000000330,0.045374177171017605
0.497000000000000330,0.011832564729265341
0.498000000000000331,-0.021828411355354550
0.499000000000000332,-0.055588725057687159
0.500000000000000333,-0.089428767605673490
0.501000000000000334,-0.123329347289890617
0.502000000000000335,-0.157271689004226389
0.503000000000000336,-0.191237433527665479
0.504000000000000337,-0.225208636557114122
0.505000000000000338,-0.259167767500861512
0.506000000000000338,-0.293097708042237781
0.507000000000000339,-0.326981750482763511
0.508000000000000340,-0.360803595873926131
0.509000000000000341,-0.394547351946519465
0.510000000000000342,-0.428197530846349206
0.511000000000000343,-0.461739046684853716
0.512000000000000344,-0.495157212913056199
0.513000000000000345,-0.528437739527014672
0.514000000000000346,-0.561566730112894374
0.515000000000000346,-0.594530678739366936
0.516000000000000347,-0.627316466705093445
0.517000000000000348,-0.659911359148731336
0.518000000000000349,-0.692303001528743578
0.519000000000000350,-0.724479415980098240
0.520000000000000351,-0.756428997554859039
0.521000000000000352,-0.788140510353313894
0.522000000000000353,-0.819603083552265632
0.523000000000000353,-0.850806207336887832
0.524000000000000354,-0.881739728742303663
0.525000000000000355,-0.912393847411015257
0.526000000000000356,-0.942759111271955108
0.527000000000000357,-0.972826412146952535
0.528000000000000358,-1.002586981290141344
0.529000000000000359,-1.032032384865590569
0.530000000000000360,-1.061154519368505467
0.531000000000000361,-1.089945606994940031
0.532000000000000361,-1.118398190964989825
0.533000000000000362,-1.146505130804141181
0.534000000000000363,-1.174259597587410386
0.535000000000000364,-1.201655069150692867
0.536000000000000365,-1.228685325273599860
0.537000000000000366,-1.255344442837941887
0.538000000000000367,-1.281626790965845641
0.539000000000000368,-1.307527026141386717
0.540000000000000369,-1.333040087319440348
0.541000000000000369,-1.358161191025354597
0.542000000000000370,-1.382885826448891908
0.543000000000000371,-1.407209750535783455
0.544000000000000372,-1.431128983080089290
0.545000000000000373,-1.454639801820437839
0.546000000000000374,-1.477738737543123460
0.547000000000000375,-1.500422569194868050
0.548000000000000376,-1.522688319008022706
0.549000000000000377,-1.544533247640747842
0.550000000000000377,-1.565954849334745713
0.551000000000000378,-1.586950847092891470
0.552000000000000379,-1.607519187879055567
0.553000000000000380,-1.627658037842325767
0.554000000000000381,-1.647365777567675549
0.555000000000000382,-1.666640997355113951
0.556000000000000383,-1.685482492529148058
0.557000000000000384,-1.703889258780421745
0.558000000000000385,-1.721860487541170048
0.559000000000000385,-1.739395561396196443
0.560000000000000386,-1.756494049530803014
0.561000000000000387,-1.773155703217223378
0.562000000000000388,-1.789380451340860656
0.563000000000000389,-1.805168395967678752
0.564000000000000390,-1.820519807953896230
0.565000000000000391,-1.835435122599199387
0.566000000000000392,-1.849914935344495914
0.567000000000000393,-1.863959997515223010
0.568000000000000393,-1.877571212111139642
0.569000000000000394,-1.890749629643493579
0.570000000000000395,-1.903496444020342349
0.571000000000000396,-1.915812988480756429
0.572000000000000397,-1.927700731578660953
0.573000000000000398,-1.939161273216842174
0.574000000000000399,-1.950196340731767508
0.575000000000000400,-1.960807785029701877
0.576000000000000401,-1.970997576774575988
0.577000000000000401,-1.980767802628057295
0.578000000000000402,-1.990120661542156499
0.579000000000000403,-1.999058461104684881
0.580000000000000404,-2.007583613937879541
0.581000000000000405,-2.015698634150370872
0.582000000000000406,-2.023406133842726273
0.583000000000000407,-2.030708819666681819
0.584000000000000408,-2.037609489438215071
0.585000000000000409,-2.044111028804466823
0.586000000000000409,-2.050216407964621457
0.587000000000000410,-2.055928678444697510
0.588000000000000411,-2.061250969926219145
0.589000000000000412,-2.066186487128748972
0.590000000000000413,-2.070738506746120144
0.591000000000000414,-2.074910374436303773
0.592000000000000415,-2.078705501864744676
0.593000000000000416,-2.082127363800956310
0.594000000000000417,-2.085179495268227434
0.595000000000000417,-2.087865488746167841
0.596000000000000418,-2.090188991425856457
0.597000000000000419,-2.092153702517341340
0.598000000000000420,-2.093763370609156294
0.599000000000000421,-2.095021791079572537
0.600000000000000422,-2.095932803559258595
0.601000000000000423,-2.096500289444942045
0.602000000000000424,-2.096728169463785374
0.603000000000000425,-2.096620401288053159
0.604000000000000425,-2.096180977199625151
0.605000000000000426,-2.095413921804031965
0.606000000000000427,-2.094323289793542653
0.607000000000000428,-2.092913163758804984
0.608000000000000429,-2.091187652048732915
0.609000000000000430,-2.089150886677991537
0.610000000000000431,-2.086807021281789964
0.611000000000000432,-2.084160229117352880
0.612000000000000433,-2.081214701111643528
0.613000000000000433,-2.077974643954866529
