# Montmorillonite-001-NaCEC90_HISAA: HID 0.14621171572600097 HIE 0.5848468629040039 HIP 0.2689414213699952
# h[nm],U(h)[kJ/mol]
0.149999999999999994,121.293401352276134730
0.150999999999999995,118.594500144260621255
0.151999999999999996,116.764654273437315624
0.152999999999999997,115.118289308445866936
0.153999999999999998,113.406995445146890233
0.154999999999999999,111.587016983235528755
0.156000000000000000,109.693869007416836325
0.157000000000000001,107.780026743972499048
0.158000000000000002,105.888191980971313910
0.159000000000000002,104.043402430146343818
0.160000000000000003,102.254133278605110036
0.161000000000000004,100.516856615932510977
0.162000000000000005,98.821163187567805153
0.163000000000000006,97.154110026779335385
0.164000000000000007,95.503335088855521917
0.165000000000000008,93.858937948435823273
0.166000000000000009,92.214333692266961862
0.167000000000000010,90.566353394025611578
0.168000000000000010,88.914856157935133751
0.169000000000000011,87.262075108638498477
0.170000000000000012,85.611866166348391971
0.171000000000000013,83.968976469278146624
0.172000000000000014,82.338404792395579079
0.173000000000000015,80.724891303799992670
0.174000000000000016,79.132548412053679954
0.175000000000000017,77.564627153119275249
0.176000000000000018,76.023403000011256836
0.177000000000000018,74.510159564950839695
0.178000000000000019,73.025246962603262091
0.179000000000000020,71.568192402939999397
0.180000000000000021,70.137842921556227793
0.181000000000000022,68.732523306806442065
0.182000000000000023,67.350195724005587294
0.183000000000000024,65.988610912133381703
0.184000000000000025,64.645443914819921361
0.185000000000000026,63.318409981198598757
0.186000000000000026,62.005358481686862149
0.187000000000000027,60.704344426605509000
0.188000000000000028,59.413678481423737310
0.189000000000000029,58.131957289677906431
0.190000000000000030,56.858076500640265749
0.191000000000000031,55.591229213256454500
0.192000000000000032,54.330892648156051905
0.193000000000000033,53.076805798095378464
0.194000000000000034,51.828940629977353183
0.195000000000000034,50.587469157486800952
0.196000000000000035,49.352728404234042614
0.197000000000000036,48.125184958353216302
0.198000000000000037,46.905400500040627776
0.199000000000000038,45.693999377659906713
0.200000000000000039,44.491639025526346529
0.201000000000000040,43.298983763469976793
0.202000000000000041,42.116682298053433442
0.203000000000000042,40.945349058964247035
0.204000000000000042,39.785549351019582787
0.205000000000000043,38.637788180648385605
0.206000000000000044,37.502502523078987906
0.207000000000000045,36.380056729717317410
0.208000000000000046,35.270740731065011175
0.209000000000000047,34.174770665670962444
0.210000000000000048,33.092291556796823215
0.211000000000000049,32.023381662658181313
0.212000000000000050,30.968058140481616647
0.213000000000000050,29.926283686691345309
0.214000000000000051,28.897973843103535785
0.215000000000000052,27.883004690175344109
0.216000000000000053,26.881220681532219885
0.217000000000000054,25.892442407870049692
0.218000000000000055,24.916474111838461170
0.219000000000000056,23.953110807837404650
0.220000000000000057,23.002144891170338781
0.221000000000000058,22.063372149260914057
0.222000000000000058,21.136597113346891064
0.223000000000000059,20.221637712060431369
0.224000000000000060,19.318329208512007966
0.225000000000000061,18.426527419940001096
0.226000000000000062,17.546111233749918767
0.227000000000000063,16.676984445978309424
0.228000000000000064,15.819076958045874548
0.229000000000000065,14.972345375299608961
0.230000000000000066,14.136773056496794609
0.231000000000000066,13.312369667259808637
0.232000000000000067,12.499170292848639008
0.233000000000000068,11.697234166560511071
0.234000000000000069,10.906643069875080698
0.235000000000000070,10.127499459305123963
0.236000000000000071,9.359924372962318273
0.237000000000000072,8.604055167262245618
0.238000000000000073,7.860043131120281856
0.239000000000000073,7.128051021558078126
0.240000000000000074,6.408250560959912967
0.241000000000000075,5.700819932395146949
0.242000000000000076,5.005941305536575570
0.243000000000000077,4.323798421830076677
0.244000000000000078,3.654574263769182707
0.245000000000000079,2.998448829446433095
0.246000000000000080,2.355597030034123129
0.247000000000000081,1.726186724516108217
0.248000000000000081,1.110376902877352912
0.249000000000000082,0.508316026070803506
0.250000000000000111,-0.079859471567592544
0.251000000000000112,-0.654026514189719466
0.252000000000000113,-1.214076549489919277
0.253000000000000114,-1.759916547762471417
0.254000000000000115,-2.291469837473531612
0.255000000000000115,-2.808676781324238814
0.256000000000000116,-3.311495298036066348
0.257000000000000117,-3.799901236142187333
0.258000000000000118,-4.273888606932787937
0.259000000000000119,-4.733469684393760701
0.260000000000000120,-5.178674980509010872
0.261000000000000121,-5.609553104681114455
0.262000000000000122,-6.026170516278907208
0.263000000000000123,-6.428611179454787994
0.264000000000000123,-6.816976129405159845
0.265000000000000124,-7.191382959184667634
0.266000000000000125,-7.551965236042445184
0.267000000000000126,-7.898871856036847383
0.268000000000000127,-8.232266345415505171
0.269000000000000128,-8.552326116928389510
0.270000000000000129,-8.859241688883621180
0.271000000000000130,-9.153215874366527061
0.272000000000000131,-9.434462947628608376
0.273000000000000131,-9.703207794223196458
0.274000000000000132,-9.959685051022821867
0.275000000000000133,-10.204138241806722576
0.276000000000000134,-10.436818913659070773
0.277000000000000135,-10.657985778973495528
0.278000000000000136,-10.867903867422523234
0.279000000000000137,-11.066843691822239037
0.280000000000000138,-11.255080431407264996
0.281000000000000139,-11.432893135630529002
0.282000000000000139,-11.600563951217715442
0.283000000000000140,-11.758377374839625418
0.284000000000000141,-11.906619533417421408
0.285000000000000142,-12.045577493747309461
0.286000000000000143,-12.175538602822161494
0.287000000000000144,-12.296789859938833445
0.288000000000000145,-12.409617321411936075
0.289000000000000146,-12.514305538465315237
0.290000000000000147,-12.611137028644634483
0.291000000000000147,-12.700391780884105586
0.292000000000000148,-12.782346794170168280
0.293000000000000149,-12.857275649571723974
0.294000000000000150,-12.925448115251596093
0.295000000000000151,-12.987129783935214888
0.296000000000000152,-13.042581742189650384
0.297000000000000153,-13.092060270758745233
0.298000000000000154,-13.135816575106462167
0.299000000000000155,-13.174096545240658429
0.300000000000000155,-13.207140543821918044
0.301000000000000156,-13.235183221506188644
0.302000000000000157,-13.258453358425079216
0.303000000000000158,-13.277173730672506835
0.304000000000000159,-13.291561000640871981
0.305000000000000160,-13.301825630032235281
0.306000000000000161,-13.308171814360743923
0.307000000000000162,-13.310797437759747552
0.308000000000000163,-13.309894046910679677
0.309000000000000163,-13.305646842920227257
0.310000000000000164,-13.298234689986763613
0.311000000000000165,-13.287830139715634203
0.312000000000000166,-13.274599469966094745
0.313000000000000167,-13.258702737138399641
0.314000000000000168,-13.240293840839122197
0.315000000000000169,-13.219520599894059032
0.316000000000000170,-13.196524838712122119
0.317000000000000171,-13.171442483038635629
0.318000000000000171,-13.144403664173459845
0.319000000000000172,-13.115532830767159922
0.320000000000000173,-13.084948867346748003
0.321000000000000174,-13.052765218761543053
0.322000000000000175,-13.019090019779115508
0.323000000000000176,-12.984026229100178895
0.324000000000000177,-12.947671767100462858
0.325000000000000178,-12.910119656646209307
0.326000000000000179,-12.871458166368176634
0.327000000000000179,-12.831770955816359958
0.328000000000000180,-12.791137221954357983
0.329000000000000181,-12.749631846488520992
0.330000000000000182,-12.707325543561259096
0.331000000000000183,-12.664285007372498626
0.332000000000000184,-12.620573059325412402
0.333000000000000185,-12.576248794324659031
0.334000000000000186,-12.531367725885566244
0.335000000000000187,-12.485981929742026253
0.336000000000000187,-12.440140185669136486
0.337000000000000188,-12.393888117262875426
0.338000000000000189,-12.347268329445414636
0.339000000000000190,-12.300320543488496128
0.340000000000000191,-12.253081729370453701
0.341000000000000192,-12.205586235304700438
0.342000000000000193,-12.157865914297818932
0.343000000000000194,-12.109950247615250518
0.344000000000000195,-12.061866465050590236
0.345000000000000195,-12.013639661912325352
0.346000000000000196,-11.965292912657305990
0.347000000000000197,-11.916847381116072668
0.348000000000000198,-11.868322427268678254
0.349000000000000199,-11.819735710543103124
0.350000000000000200,-11.771103289620352683
0.351000000000000201,-11.722439718741608061
0.352000000000000202,-11.673758140523004201
0.353000000000000203,-11.625070375293413250
0.354000000000000203,-11.576387006979022232
0.355000000000000204,-11.527717465566494681
0.356000000000000205,-11.479070106183797861
0.357000000000000206,-11.430452284844308863
0.358000000000000207,-11.381870430905348002
0.359000000000000208,-11.333330116297986478
0.360000000000000209,-11.284836121589233215
0.361000000000000210,-11.236392498941949469
0.362000000000000210,-11.188002632041428086
0.363000000000000211,-11.139669293060485700
0.364000000000000212,-11.091394696737818748
0.365000000000000213,-11.043180551646155862
0.366000000000000214,-10.995028108728991612
0.367000000000000215,-10.946938207185613834
0.368000000000000216,-10.898911317785687558
0.369000000000000217,-10.850947583694948051
0.370000000000000218,-10.803046858894411741
0.371000000000000218,-10.755208744275325472
0.372000000000000219,-10.707432621492319669
0.373000000000000220,-10.659717684656712322
0.374000000000000221,-10.612062969951518099
0.375000000000000222,-10.564467383248857146
0.376000000000000223,-10.516929725809877283
0.377000000000000224,-10.469448718145924815
0.378000000000000225,-10.422023022118761304
0.379000000000000226,-10.374651261356225618
0.380000000000000226,-10.327332040058463392
0.381000000000000227,-10.280063960268044809
0.382000000000000228,-10.232845637676144079
0.383000000000000229,-10.185675716034893412
0.384000000000000230,-10.138552880244450449
0.385000000000000231,-10.091475868181737141
0.386000000000000232,-10.044443481335582291
0.387000000000000233,-9.997454594311545151
0.388000000000000234,-9.950508163267532069
0.389000000000000234,-9.903603233339708822
0.390000000000000235,-9.856738945115932182
0.391000000000000236,-9.809914540212457013
0.392000000000000237,-9.763129366007316179
0.393000000000000238,-9.716382879582328158
0.394000000000000239,-9.669674650923306913
0.395000000000000240,-9.623004365426677253
0.396000000000000241,-9.576371825758389633
0.397000000000000242,-9.529776953109562854
0.398000000000000242,-9.483219787891188801
0.399000000000000243,-9.436700489908695033
0.400000000000000244,-9.390219338055223020
0.401000000000000245,-9.343776729560950400
0.402000000000000246,-9.297373178833913343
0.403000000000000247,-9.251009315926351562
0.404000000000000248,-9.204685884658813322
0.405000000000000249,-9.158403740432930817
0.406000000000000250,-9.112163847761937774
0.407000000000000250,-9.065967277546889136
0.408000000000000251,-9.019815204124814301
0.409000000000000252,-8.973708902113852304
0.410000000000000253,-8.927649743078927003
0.411000000000000254,-8.881639192040339026
0.412000000000000255,-8.835678803846260365
0.413000000000000256,-8.789770219429120957
0.414000000000000257,-8.743915161964345373
0.415000000000000258,-8.698115432949219183
0.416000000000000258,-8.652372908218184833
0.417000000000000259,-8.606689533910024892
0.418000000000000260,-8.561067322401379798
0.419000000000000261,-8.515508348219992030
0.420000000000000262,-8.470014743950194713
0.421000000000000263,-8.424588696142382815
0.422000000000000264,-8.379232441237078888
0.423000000000000265,-8.333948261513679512
0.424000000000000266,-8.288738481073153253
0.425000000000000266,-8.243605461862948403
0.426000000000000267,-8.198551599752054386
0.427000000000000268,-8.153579320663258301
0.428000000000000269,-8.108691076768955952
0.429000000000000270,-8.063889342756519696
0.430000000000000271,-8.019176612168337215
0.431000000000000272,-7.974555393821387561
0.432000000000000273,-7.930028208310403670
0.433000000000000274,-7.885597584598535548
0.434000000000000274,-7.841266056698573905
0.435000000000000275,-7.797036160447690989
0.436000000000000276,-7.752910430378078033
0.437000000000000277,-7.708891396685446651
0.438000000000000278,-7.664981582297136775
0.439000000000000279,-7.621183500041114556
0.440000000000000280,-7.577499649916832780
0.441000000000000281,-7.533932516468701657
0.442000000000000282,-7.490484566262592736
0.443000000000000282,-7.447158245465468340
0.444000000000000283,-7.403955977528150711
0.445000000000000284,-7.360880160970892483
0.446000000000000285,-7.317933167271125861
0.447000000000000286,-7.275117338852929549
0.448000000000000287,-7.232434987177028596
0.449000000000000288,-7.189888390930568640
0.450000000000000289,-7.147479794315217738
0.451000000000000290,-7.105211405432422467
0.452000000000000290,-7.063085394764334168
0.453000000000000291,-7.021103893748750657
0.454000000000000292,-6.979268993446515523
0.455000000000000293,-6.937582743299525845
0.456000000000000294,-6.896047149977527546
0.457000000000000295,-6.854664176311839441
0.458000000000000296,-6.813435740313895650
0.459000000000000297,-6.772363714276733226
0.460000000000000298,-6.731449923957203652
0.461000000000000298,-6.690696147836884933
0.462000000000000299,-6.650104116459511161
0.463000000000000300,-6.609675511842691975
0.464000000000000301,-6.569411966961838267
0.465000000000000302,-6.529315065303990195
0.466000000000000303,-6.489386340489336824
0.467000000000000304,-6.449627275958267347
0.468000000000000305,-6.410039304721680153
0.469000000000000306,-6.370623809172315966
0.470000000000000306,-6.331382120955035830
0.471000000000000307,-6.292315520893628999
0.472000000000000308,-6.253425238972247335
0.473000000000000309,-6.214712454369070826
0.474000000000000310,-6.176178295540236896
0.475000000000000311,-6.137823840351806837
0.476000000000000312,-6.099650116257848254
0.477000000000000313,-6.061658100522390846
0.478000000000000314,-6.023848720483390373
0.479000000000000314,-5.986222853856673964
0.480000000000000315,-5.948781329077872826
0.481000000000000316,-5.911524925680542886
0.482000000000000317,-5.874454374708474091
0.483000000000000318,-5.837570359160456412
0.484000000000000319,-5.800873514465646252
0.485000000000000320,-5.764364428987851063
0.486000000000000321,-5.728043644556956693
0.487000000000000322,-5.691911657025880977
0.488000000000000322,-5.655968916851349171
0.489000000000000323,-5.620215829697068344
0.490000000000000324,-5.584652757057594563
0.491000000000000325,-5.549280016901510848
0.492000000000000326,-5.514097884332368693
0.493000000000000327,-5.479106592266136389
0.494000000000000328,-5.444306332123605152
0.495000000000000329,-5.409697254536599331
0.496000000000000330,-5.375279470066574916
0.497000000000000330,-5.341053049934520125
0.498000000000000331,-5.307018026760758289
0.499000000000000332,-5.273174395313750651
0.500000000000000333,-5.239522113266589898
0.501000000000000334,-5.206061101960186122
0.502000000000000335,-5.172791247172138007
0.503000000000000336,-5.139712399890264294
0.504000000000000337,-5.106824377089872691
0.505000000000000338,-5.074126962513798134
0.506000000000000338,-5.041619907454418126
0.507000000000000339,-5.009302931536733006
0.508000000000000340,-4.977175723501717997
0.509000000000000341,-4.945237941989266695
0.510000000000000342,-4.913489216319844921
0.511000000000000343,-4.881929147274290059
0.512000000000000344,-4.850557307871000923
0.513000000000000345,-4.819373244139930179
0.514000000000000346,-4.788376475892792250
0.515000000000000346,-4.757566497488845414
0.516000000000000347,-4.726942778595760508
0.517000000000000348,-4.696504764945103716
0.518000000000000349,-4.666251879081817933
0.519000000000000350,-4.636183521107391847
0.520000000000000351,-4.606299069416193603
0.521000000000000352,-4.576597881424611103
0.522000000000000353,-4.547079294292602825
0.523000000000000353,-4.517742625637266585
0.524000000000000354,-4.488587174238223731
0.525000000000000355,-4.459612220734338273
0.526000000000000356,-4.430817028311604844
0.527000000000000357,-4.402200843381939954
0.528000000000000358,-4.373762896252532784
0.529000000000000359,-4.345502401785681812
0.530000000000000360,-4.317418560048762011
0.531000000000000361,-4.289510556954267528
0.532000000000000361,-4.261777564889660752
0.533000000000000362,-4.234218743336955804
0.534000000000000363,-4.206833239481845510
0.535000000000000364,-4.179620188812288362
0.536000000000000365,-4.152578715706439105
0.537000000000000366,-4.125707934009858135
0.538000000000000367,-4.099006947601854911
0.539000000000000368,-4.072474850951047110
0.540000000000000369,-4.046110729659893046
0.541000000000000369,-4.019913660998376770
0.542000000000000370,-3.993882714426633118
0.543000000000000371,-3.968016952106627304
0.544000000000000372,-3.942315429402833082
0.545000000000000373,-3.916777195371953013
0.546000000000000374,-3.891401293241635972
0.547000000000000375,-3.866186760878300266
0.548000000000000376,-3.841132631244056128
0.549000000000000377,-3.816237932842788005
0.550000000000000377,-3.791501690155417492
0.551000000000000378,-3.766922924064456613
0.552000000000000379,-3.742500652267904293
0.553000000000000380,-3.718233889682537097
0.554000000000000381,-3.694121648836687033
0.555000000000000382,-3.670162940252649442
0.556000000000000383,-3.646356772818689418
0.557000000000000384,-3.622702154150895026
0.558000000000000385,-3.599198090944843109
0.559000000000000385,-3.575843589317302396
0.560000000000000386,-3.552637655137988570
0.561000000000000387,-3.529579294351563146
0.562000000000000388,-3.506667513289926763
0.563000000000000389,-3.483901318975012096
0.564000000000000390,-3.461279719412106992
0.565000000000000391,-3.438801723873918803
0.566000000000000392,-3.416466343175467379
0.567000000000000393,-3.394272589939949736
0.568000000000000393,-3.372219478855710051
0.569000000000000394,-3.350306026924453562
0.570000000000000395,-3.328531253700868220
0.571000000000000396,-3.306894181523723386
0.572000000000000397,-3.285393835738696033
0.573000000000000398,-3.264029244912951100
0.574000000000000399,-3.242799441041727349
0.575000000000000400,-3.221703459746969589
0.576000000000000401,-3.200740340468233747
0.577000000000000401,-3.179909126645994899
0.578000000000000402,-3.159208865897456420
0.579000000000000403,-3.138638610185040534
0.580000000000000404,-3.118197415977746800
0.581000000000000405,-3.097884344405426482
0.582000000000000406,-3.077698461406216168
0.583000000000000407,-3.057638837867197701
0.584000000000000408,-3.037704549758494466
0.585000000000000409,-3.017894678260894636
0.586000000000000409,-2.998208309887166578
0.587000000000000410,-2.978644536597228942
0.588000000000000411,-2.959202455907259388
0.589000000000000412,-2.939881170992965753
0.590000000000000413,-2.920679790787055197
0.591000000000000414,-2.901597430071131356
0.592000000000000415,-2.882633209562131427
0.593000000000000416,-2.863786255993378660
0.594000000000000417,-2.845055702190454561
0.595000000000000417,-2.826440687142056873
0.596000000000000418,-2.807940356065792731
0.597000000000000419,-2.789553860469307978
0.598000000000000420,-2.771280358206616778
0.599000000000000421,-2.753119013529949921
0.600000000000000422,-2.735068997137139135
0.601000000000000423,-2.717129486214705292
0.602000000000000424,-2.699299664476761951
0.603000000000000425,-2.681578722199858600
0.604000000000000425,-2.663965856253860398
0.605000000000000426,-2.646460270129006975
0.606000000000000427,-2.629061173959295061
0.607000000000000428,-2.611767784542144089
0.608000000000000429,-2.594579325354737787
