# Montmorillonite-001-NaCEC90_NC4-AC
# h[nm],U(h)[kJ/mol]
0.149999999999999994,132.669854269524591928
0.150999999999999995,130.661215086066391677
0.151999999999999996,129.129450550032800038
0.152999999999999997,127.621803645399310767
0.153999999999999998,126.007973387028613388
0.154999999999999999,124.296167658514875143
0.156000000000000000,122.538086635941084523
0.157000000000000001,120.784960649562250978
0.158000000000000002,119.071388501966069384
0.159000000000000002,117.413115714033807535
0.160000000000000003,115.810818053246947557
0.161000000000000004,114.255609028837895380
0.162000000000000005,112.734175197755661202
0.163000000000000006,111.232696460518837966
0.164000000000000007,109.739383652494893795
0.165000000000000008,108.245792630305430748
0.166000000000000009,106.747199772123806838
0.167000000000000010,105.242340385857303886
0.168000000000000010,103.732774929801962571
0.169000000000000011,102.222090924875402607
0.170000000000000012,100.715089007056263881
0.171000000000000013,99.217048714672145593
0.172000000000000014,97.733126935588870765
0.173000000000000015,96.267910037731141415
0.174000000000000016,94.825118598212128518
0.175000000000000017,93.407449685177581955
0.176000000000000018,92.016534024874587772
0.177000000000000018,90.652982409858026358
0.178000000000000019,89.316495918556213951
0.179000000000000020,88.006016749228223262
0.180000000000000021,86.719899825107432889
0.181000000000000022,85.456089148438337588
0.182000000000000023,84.212286718570084076
0.183000000000000024,82.986105393984757939
0.184000000000000025,81.775200203646733144
0.185000000000000026,80.577375222517986231
0.186000000000000026,79.390665205048492226
0.187000000000000027,78.213392745385775129
0.188000000000000028,77.044202854984945361
0.189000000000000029,75.882077580825040286
0.190000000000000030,74.726333698230050118
0.191000000000000031,73.576606667430866082
0.192000000000000032,72.432824003423689874
0.193000000000000033,71.295171028170031491
0.194000000000000034,70.164051698554487757
0.195000000000000034,69.040046870487771002
0.196000000000000035,67.923871999186943071
0.197000000000000036,66.816335911107927359
0.198000000000000037,65.718301931305148855
0.199000000000000038,64.630652323060374442
0.200000000000000039,63.554256702130338397
0.201000000000000040,62.489944830170529144
0.202000000000000041,61.438483972429104085
0.203000000000000042,60.400560823299386470
0.204000000000000042,59.376767857971728404
0.205000000000000043,58.367593856468431568
0.206000000000000044,57.373418264401536248
0.207000000000000045,56.394508999190541942
0.208000000000000046,55.431023277446172415
0.209000000000000047,54.483011025089808754
0.210000000000000048,53.550420433048735447
0.211000000000000049,52.633105234840023456
0.212000000000000050,51.730833305140492939
0.213000000000000050,50.843296207998562863
0.214000000000000051,49.970119357477734923
0.215000000000000052,49.110872490373864707
0.216000000000000053,48.265080188683242568
0.217000000000000054,47.432232227465235042
0.218000000000000055,46.611793560664779079
0.219000000000000056,45.803213792586333852
0.220000000000000057,45.005936015495777269
0.221000000000000058,44.219404923905656801
0.222000000000000058,43.443074143237843998
0.223000000000000059,42.676412734661120396
0.224000000000000060,41.918910858953630338
0.225000000000000061,41.170084600316258161
0.226000000000000062,40.429479966284610271
0.227000000000000063,39.696676092428091920
0.228000000000000064,38.971287690582094854
0.229000000000000065,38.252966787149361494
0.230000000000000066,37.541403803761198787
0.231000000000000066,36.836328036531256203
0.232000000000000067,36.137507592495488495
0.233000000000000068,35.444748842824665758
0.234000000000000069,34.757895452228986244
0.235000000000000070,34.076827042839404669
0.236000000000000071,33.401457548924497587
0.237000000000000072,32.731733316245787080
0.238000000000000073,32.067630996813697664
0.239000000000000073,31.409155286410545216
0.240000000000000074,30.756336548604764403
0.241000000000000075,30.109228365196496924
0.242000000000000076,29.467905049186263966
0.243000000000000077,28.832459152519835044
0.244000000000000078,28.202998997092045386
0.245000000000000079,27.579646253835370828
0.246000000000000080,26.962533591218097229
0.247000000000000081,26.351802411154825023
0.248000000000000081,25.747600687216213089
0.249000000000000082,25.150080917126580005
0.250000000000000111,24.559398198866290386
0.251000000000000112,23.975708437256741945
0.252000000000000113,23.399166685696521029
0.253000000000000114,22.829925625737320871
0.254000000000000115,22.268134185428028360
0.255000000000000115,21.713936295809297405
0.256000000000000116,21.167469783596953192
0.257000000000000117,20.628865396939563226
0.258000000000000118,20.098245960162451240
0.259000000000000119,19.575725652602329774
0.260000000000000120,19.061409405981613929
0.261000000000000121,18.555392414257045886
0.262000000000000122,18.057759749488148771
0.263000000000000123,17.568586076997060985
0.264000000000000123,17.087935462918441232
0.265000000000000124,16.615861267155416670
0.266000000000000125,16.152406114754125355
0.267000000000000126,15.697601938774141672
0.268000000000000127,15.251470087855238944
0.269000000000000128,14.814021491855109858
0.270000000000000129,14.385256879146766096
0.271000000000000130,13.965167039413026728
0.272000000000000131,13.553733126051332292
0.273000000000000131,13.150926992597913312
0.274000000000000132,12.756711557892062459
0.275000000000000133,12.371041195022311143
0.276000000000000134,11.993862139423635327
0.277000000000000135,11.625112911824306394
0.278000000000000136,11.264724752067987623
0.279000000000000137,10.912622060160474646
0.280000000000000138,10.568722841207378593
0.281000000000000139,10.232939151216321250
0.282000000000000139,9.905177541035403266
0.283000000000000140,9.585339495984909419
0.284000000000000141,9.273321869012557173
0.285000000000000142,8.969017305461601808
0.286000000000000143,8.672314657786374781
0.287000000000000144,8.383099388780724581
0.288000000000000145,8.101253962100141592
0.289000000000000146,7.826658219060623090
0.290000000000000147,7.559189740882915842
0.291000000000000147,7.298724195724176411
0.292000000000000148,7.045135669996585470
0.293000000000000149,6.798296983617869493
0.294000000000000150,6.558079988969953256
0.295000000000000151,6.324355853461146815
0.296000000000000152,6.096995325694262391
0.297000000000000153,5.875868985338783546
0.298000000000000154,5.660847476889740548
0.299000000000000155,5.451801727570795286
0.300000000000000155,5.248603149703900961
0.301000000000000156,5.051123827924184795
0.302000000000000157,4.859236691666215968
0.303000000000000158,4.672815673388271307
0.304000000000000159,4.491735853033854475
0.305000000000000160,4.315873589256560727
0.306000000000000161,4.145106637954476980
0.307000000000000162,3.979314258675661797
0.308000000000000163,3.818377309466259639
0.309000000000000163,3.662178330738492527
0.310000000000000164,3.510601618737406060
0.311000000000000165,3.363533289183517461
0.312000000000000166,3.220861331663356086
0.313000000000000167,3.082475655332119313
0.314000000000000168,2.948268126482636919
0.315000000000000169,2.818132598522314680
0.316000000000000170,2.691964934885741290
0.317000000000000171,2.569663025395216405
0.318000000000000171,2.451126796564484955
0.319000000000000172,2.336258216323172654
0.320000000000000173,2.224961293620909775
0.321000000000000174,2.117142073350944287
0.322000000000000175,2.012708627013315876
0.323000000000000176,1.911571039517970361
0.324000000000000177,1.813641392508104300
0.325000000000000178,1.718833744564295385
0.326000000000000179,1.627064108629779238
0.327000000000000179,1.538250426978092777
0.328000000000000180,1.452312544024779273
0.329000000000000181,1.369172177265896240
0.330000000000000182,1.288752886608011128
0.331000000000000183,1.210980042335955797
0.332000000000000184,1.135780791947680557
0.333000000000000185,1.063084026068569221
0.334000000000000186,0.992820343641410807
0.335000000000000187,0.924922016572834793
0.336000000000000187,0.859322954001974226
0.337000000000000188,0.795958666343228982
0.338000000000000189,0.734766229241155311
0.339000000000000190,0.675684247562834073
0.340000000000000191,0.618652819541016585
0.341000000000000192,0.563613501169584197
0.342000000000000193,0.510509270942226423
0.343000000000000194,0.459284495014846861
0.344000000000000195,0.409884892862965144
0.345000000000000195,0.362257503495889976
0.346000000000000196,0.316350652281644995
0.347000000000000197,0.272113918428424584
0.348000000000000198,0.229498103161304756
0.349000000000000199,0.188455198626233028
0.350000000000000200,0.148938357547023226
0.351000000000000201,0.110901863655552019
0.352000000000000202,0.074301102910008646
0.353000000000000203,0.039092535511287087
0.354000000000000203,0.005233668723287765
0.355000000000000204,-0.027316969500995426
0.356000000000000205,-0.058599856089417202
0.357000000000000206,-0.088654497621677611
0.358000000000000207,-0.117519454309004526
0.359000000000000208,-0.145232363193086300
0.360000000000000209,-0.171829960576805940
0.361000000000000210,-0.197348103701344535
0.362000000000000210,-0.221821791686011766
0.363000000000000211,-0.245285185748513074
0.364000000000000212,-0.267771628724751243
0.365000000000000213,-0.289313663908114083
0.366000000000000214,-0.309943053229213505
0.367000000000000215,-0.329690794797537212
0.368000000000000216,-0.348587139827201908
0.369000000000000217,-0.366661608969029662
0.370000000000000218,-0.383943008071759795
0.371000000000000218,-0.400459443394903247
0.372000000000000219,-0.416238336296101075
0.373000000000000220,-0.431306437415461374
0.374000000000000221,-0.445689840379303814
0.375000000000000222,-0.459413995045217682
0.376000000000000223,-0.472503720310396613
0.377000000000000224,-0.484983216504310199
0.378000000000000225,-0.496876077386614046
0.379000000000000226,-0.508205301770525031
0.380000000000000226,-0.518993304791462884
0.381000000000000227,-0.529261928839910079
0.382000000000000228,-0.539032454177119313
0.383000000000000229,-0.548325609251408053
0.384000000000000230,-0.557161580732171702
0.385000000000000231,-0.565560023278205759
0.386000000000000232,-0.573540069055969215
0.387000000000000233,-0.581120337023026678
0.388000000000000234,-0.588318941990898514
0.389000000000000234,-0.595153503481171686
0.390000000000000235,-0.601641154387761001
0.391000000000000236,-0.607798549457701065
0.392000000000000237,-0.613641873602080112
0.393000000000000238,-0.619186850048150328
0.394000000000000239,-0.624448748342872784
0.395000000000000240,-0.629442392217687496
0.396000000000000241,-0.634182167323522394
0.397000000000000242,-0.638682028844541505
0.398000000000000242,-0.642955508998573455
0.399000000000000243,-0.647015724431482253
0.400000000000000244,-0.650875383512311001
0.401000000000000245,-0.654546793535519478
0.402000000000000246,-0.658041867835931105
0.403000000000000247,-0.661372132821845371
0.404000000000000248,-0.664548734931000751
0.405000000000000249,-0.667582447513854316
0.406000000000000250,-0.670483677648052612
0.407000000000000250,-0.673262472887739882
0.408000000000000251,-0.675928527950817037
0.409000000000000252,-0.678491191346998312
0.410000000000000253,-0.680959471949154849
0.411000000000000254,-0.683342045510093699
0.412000000000000255,-0.685647261126628882
0.413000000000000256,-0.687883147652576743
0.414000000000000257,-0.690057420061898630
0.415000000000000258,-0.692177485763208145
0.416000000000000258,-0.694250450866328750
0.417000000000000259,-0.696283126401672114
0.418000000000000260,-0.698282034492802128
0.419000000000000261,-0.700253414482484460
0.420000000000000262,-0.702203229012283381
0.421000000000000263,-0.704137170055716632
0.422000000000000264,-0.706060664904697100
0.423000000000000265,-0.707978882108991847
0.424000000000000266,-0.709896737368338360
0.425000000000000266,-0.711818899376545522
0.426000000000000267,-0.713749795617129035
0.427000000000000268,-0.715693618109706442
0.428000000000000269,-0.717654329106401034
0.429000000000000270,-0.719635666737525659
0.430000000000000271,-0.721641150605566439
0.431000000000000272,-0.723674087326708237
0.432000000000000273,-0.725737576018864572
0.433000000000000274,-0.727834513735353905
0.434000000000000274,-0.729967600843193454
0.435000000000000275,-0.732139346345078490
0.436000000000000276,-0.734352073144071915
0.437000000000000277,-0.736607923250002239
0.438000000000000278,-0.738908862926638377
0.439000000000000279,-0.741256687778690249
0.440000000000000280,-0.743653027777681386
0.441000000000000281,-0.746099352225769730
0.442000000000000282,-0.748596974656729808
0.443000000000000282,-0.751147057673058671
0.444000000000000283,-0.753750617718593974
0.445000000000000284,-0.756408529785680406
0.446000000000000285,-0.759121532056194370
0.447000000000000286,-0.761890230475783081
0.448000000000000287,-0.764715103260496520
0.449000000000000288,-0.767596505335345514
0.450000000000000289,-0.770534672704066059
0.451000000000000290,-0.773529726749623947
0.452000000000000290,-0.776581678464980163
0.453000000000000291,-0.779690432613587392
0.454000000000000292,-0.782855791819329849
0.455000000000000293,-0.786077460585455357
0.456000000000000294,-0.789355049242270956
0.457000000000000295,-0.792688077823325066
0.458000000000000296,-0.796075979869849459
0.459000000000000297,-0.799518106163337627
0.460000000000000298,-0.803013728386140380
0.461000000000000298,-0.806562042710011085
0.462000000000000299,-0.810162173312600209
0.463000000000000300,-0.813813175821897827
0.464000000000000301,-0.817514040688755550
0.465000000000000302,-0.821263696487570249
0.466000000000000303,-0.825061013145286681
0.467000000000000304,-0.828904805098972686
0.468000000000000305,-0.832793834382171361
0.469000000000000306,-0.836726813640331635
0.470000000000000306,-0.840702409075692492
0.471000000000000307,-0.844719243321892854
0.472000000000000308,-0.848775898248808724
0.473000000000000309,-0.852870917698016706
0.474000000000000310,-0.857002810149334215
0.475000000000000311,-0.861170051318996377
0.476000000000000312,-0.865371086689976643
0.477000000000000313,-0.869604333975037669
0.478000000000000314,-0.873868185513075546
0.479000000000000314,-0.878161010599465719
0.480000000000000315,-0.882481157750956924
0.481000000000000316,-0.886826956905911068
0.482000000000000317,-0.891196721560476801
0.483000000000000318,-0.895588750841522341
0.484000000000000319,-0.900001331517013448
0.485000000000000320,-0.904432739944625252
0.486000000000000321,-0.908881243959389074
0.487000000000000322,-0.913345104701162924
0.488000000000000322,-0.917822578382717857
0.489000000000000323,-0.922311917999357744
0.490000000000000324,-0.926811374980848313
0.491000000000000325,-0.931319200786538959
0.492000000000000326,-0.935833648444567401
0.493000000000000327,-0.940352974036021139
0.494000000000000328,-0.944875438124954448
0.495000000000000329,-0.949399307135161075
0.496000000000000330,-0.953922854674596365
0.497000000000000330,-0.958444362808445582
0.498000000000000331,-0.962962123281603466
0.499000000000000332,-0.967474438691671268
0.500000000000000333,-0.971979623613301369
0.501000000000000334,-0.976476005674794534
0.502000000000000335,-0.980961926587997857
0.503000000000000336,-0.985435743132313413
0.504000000000000337,-0.989895828093856678
0.505000000000000338,-0.994340571160623909
0.506000000000000338,-0.998768379774654713
0.507000000000000339,-1.003177679942092615
0.508000000000000340,-1.007566917002062690
0.509000000000000341,-1.011934556355363224
0.510000000000000342,-1.016279084153770107
0.511000000000000343,-1.020599007951000781
0.512000000000000344,-1.024892857316148875
0.513000000000000345,-1.029159184410544770
0.514000000000000346,-1.033396564528959338
0.515000000000000346,-1.037603596605972900
0.516000000000000347,-1.041778903688455937
0.517000000000000348,-1.045921133375043333
0.518000000000000349,-1.050028958223408138
0.519000000000000350,-1.054101076126275682
0.520000000000000351,-1.058136210656948517
0.521000000000000352,-1.062133111385285655
0.522000000000000353,-1.066090554164844439
0.523000000000000353,-1.070007341392128941
0.524000000000000354,-1.073882302238671427
0.525000000000000355,-1.077714292856808198
0.526000000000000356,-1.081502196559873230
0.527000000000000357,-1.085244923977689790
0.528000000000000358,-1.088941413188017071
0.529000000000000359,-1.092590629824823356
0.530000000000000360,-1.096191567164012115
0.531000000000000361,-1.099743246187458556
0.532000000000000361,-1.103244715625987693
0.533000000000000362,-1.106695051982061084
0.534000000000000363,-1.110093359532829060
0.535000000000000364,-1.113438770314293613
0.536000000000000365,-1.116730444087191021
0.537000000000000366,-1.119967568285322734
0.538000000000000367,-1.123149357946907623
0.539000000000000368,-1.126275055629713640
0.540000000000000369,-1.129343931310446747
0.541000000000000369,-1.132355282269168040
0.542000000000000370,-1.135308432959187375
0.543000000000000371,-1.138202734863161369
0.544000000000000372,-1.141037566335879605
0.545000000000000373,-1.143812332434358536
0.546000000000000374,-1.146526464735762252
0.547000000000000375,-1.149179421143709856
0.548000000000000376,-1.151770685683512152
0.549000000000000377,-1.154299768286814132
0.550000000000000377,-1.156766204566206380
0.551000000000000378,-1.159169555580233268
0.552000000000000379,-1.161509407589350396
0.553000000000000380,-1.163785371803243596
0.554000000000000381,-1.165997084119992921
0.555000000000000382,-1.168144204857556545
0.556000000000000383,-1.170226418477940067
0.557000000000000384,-1.172243433304573035
0.558000000000000385,-1.174194981233199098
0.559000000000000385,-1.176080817436787607
0.560000000000000386,-1.177900720064781082
0.561000000000000387,-1.179654489937111528
0.562000000000000388,-1.181341950233300908
0.563000000000000389,-1.182962946177096963
0.564000000000000390,-1.184517344716887965
0.565000000000000391,-1.186005034202320729
0.566000000000000392,-1.187425924057404769
0.567000000000000393,-1.188779944450463644
0.568000000000000393,-1.190067045961190839
0.569000000000000394,-1.191287199245167017
0.570000000000000395,-1.192440394696101524
0.571000000000000396,-1.193526642106072178
0.572000000000000397,-1.194545970324086381
0.573000000000000398,-1.195498426913156997
0.574000000000000399,-1.196384077806217139
0.575000000000000400,-1.197203006961080618
0.576000000000000401,-1.197955316014683635
0.577000000000000401,-1.198641123936904140
0.578000000000000402,-1.199260566684085205
0.579000000000000403,-1.199813796852533088
0.580000000000000404,-1.200300983332235116
0.581000000000000405,-1.200722310960882888
0.582000000000000406,-1.201077980178535842
0.583000000000000407,-1.201368206682981166
0.584000000000000408,-1.201593221086061369
0.585000000000000409,-1.201753268571088773
0.586000000000000409,-1.201848608551525643
0.587000000000000410,-1.201879514331113397
0.588000000000000411,-1.201846272765531243
0.589000000000000412,-1.201749183925834963
0.590000000000000413,-1.201588560763700908
0.591000000000000414,-1.201364728778690605
0.592000000000000415,-1.201078025687640327
0.593000000000000416,-1.200728801096254683
0.594000000000000417,-1.200317416173080076
0.595000000000000417,-1.199844243325957960
0.596000000000000418,-1.199309665880986753
0.597000000000000419,-1.198714077764216901
0.598000000000000420,-1.198057883186053330
0.599000000000000421,-1.197341496328535371
0.600000000000000422,-1.196565341035540797
0.601000000000000423,-1.195729850505982572
0.602000000000000424,-1.194835466990126438
0.603000000000000425,-1.193882641489038665
0.604000000000000425,-1.192871833457253894
0.605000000000000426,-1.191803510508730124
0.606000000000000427,-1.190678148126172786
0.607000000000000428,-1.189496229373671943
0.608000000000000429,-1.188258244612902415
0.609000000000000430,-1.186964691222678336
0.610000000000000431,-1.185616073322156350
0.611000000000000432,-1.184212901497538883
0.612000000000000433,-1.182755692532387215
0.613000000000000433,-1.181244969141610923
