# Montmorillonite-001-NaCEC90_GLY-JS
# h[nm],U(h)[kJ/mol]
0.149999999999999994,70.140460482184280977
0.150999999999999995,68.780728948103757148
0.151999999999999996,67.697990552928075658
0.152999999999999997,66.665734055122470636
0.153999999999999998,65.604260379214366594
0.154999999999999999,64.502685672526183680
0.156000000000000000,63.376576938500555514
0.157000000000000001,62.246735345847000076
0.158000000000000002,61.130019216671186655
0.159000000000000002,60.036616044094330391
0.160000000000000003,58.970439301655133590
0.161000000000000004,57.930759056586268230
0.162000000000000005,56.914060309454590936
0.163000000000000006,55.915652197565727022
0.164000000000000007,54.930853801257640612
0.165000000000000008,53.955743810401841642
0.166000000000000009,52.987537649421895480
0.167000000000000010,52.024682754301196042
0.168000000000000010,51.066763145268197377
0.169000000000000011,50.114292059557989489
0.170000000000000012,49.168454314214045553
0.171000000000000013,48.230842746118611331
0.172000000000000014,47.303217762759828702
0.173000000000000015,46.387306624053010751
0.174000000000000016,45.484649689962033392
0.175000000000000017,44.596494239823613270
0.176000000000000018,43.723732151789761247
0.177000000000000018,42.866875235362954299
0.178000000000000019,42.026060874449697735
0.179000000000000020,41.201080461782602526
0.180000000000000021,40.391423560180101049
0.181000000000000022,39.596331556541187524
0.182000000000000023,38.814855590500144444
0.183000000000000024,38.045914606203794506
0.184000000000000025,37.288350402178146226
0.185000000000000026,36.540977484747955373
0.186000000000000026,35.802626334840319089
0.187000000000000027,35.072179364678952140
0.188000000000000028,34.348599371004397085
0.189000000000000029,33.630950694334266871
0.190000000000000030,32.918413583439409820
0.191000000000000031,32.210292456925728288
0.192000000000000032,31.506018866353095120
0.193000000000000033,30.805150013807132581
0.194000000000000034,30.107363676020231225
0.195000000000000034,29.412450350009116562
0.196000000000000035,28.720303372846096579
0.197000000000000036,28.030907689796599414
0.198000000000000037,27.344327858025319955
0.199000000000000038,26.660695783164207739
0.200000000000000039,25.980198597588241682
0.201000000000000040,25.303067005382548160
0.202000000000000041,24.629564341823815710
0.203000000000000042,23.959976526033464950
0.204000000000000042,23.294603024937345026
0.205000000000000043,22.633748894939248686
0.206000000000000044,21.977717924561542162
0.207000000000000045,21.326806866251196482
0.208000000000000046,20.681300717938185585
0.209000000000000047,20.041468994011097493
0.210000000000000048,19.407562910337894380
0.211000000000000049,18.779813397998431412
0.212000000000000050,18.158429854719436491
0.213000000000000050,17.543599540875170817
0.214000000000000051,16.935487527648952266
0.215000000000000052,16.334237107931329547
0.216000000000000053,15.739970585212267551
0.217000000000000054,15.152790361634449923
0.218000000000000055,14.572780253107643134
0.219000000000000056,14.000006966602043690
0.220000000000000057,13.434521682158083067
0.221000000000000058,12.876361689552931367
0.222000000000000058,12.325552036764095831
0.223000000000000059,11.782107154243085745
0.224000000000000060,11.246032425451238268
0.225000000000000061,10.717325680053626513
0.226000000000000062,10.195978591571964955
0.227000000000000063,9.681977966145110415
0.228000000000000064,9.175306913333376002
0.229000000000000065,8.675945893640708562
0.230000000000000066,8.183873640640294767
0.231000000000000066,7.699067958300569892
0.232000000000000067,7.221506396357415092
0.233000000000000068,6.751166808399664987
0.234000000000000069,6.288027798770462695
0.235000000000000070,5.832069065475623759
0.236000000000000071,5.383271647072859878
0.237000000000000072,4.941618082028897518
0.238000000000000073,4.507092489314724837
0.239000000000000073,4.079680579095090742
0.240000000000000074,3.659369602288003342
0.241000000000000075,3.246148247555667776
0.242000000000000076,2.840006493963575629
0.243000000000000077,2.440935427134107716
0.244000000000000078,2.048927026247056027
0.245000000000000079,1.663973928718397888
0.246000000000000080,1.286069178839150284
0.247000000000000081,0.915205966088612710
0.248000000000000081,0.551377358265919493
0.249000000000000082,0.194576034017857863
0.250000000000000111,-0.155205981211929883
0.251000000000000112,-0.497977572319948714
0.252000000000000113,-0.833748781782975845
0.253000000000000114,-1.162531044497115307
0.254000000000000115,-1.484337408161986449
0.255000000000000115,-1.799182737571590751
0.256000000000000116,-2.107083901556344063
0.257000000000000117,-2.408059941669225879
0.258000000000000118,-2.702132222022946451
0.259000000000000119,-2.989324559966784811
0.260000000000000120,-3.269663337540956061
0.261000000000000121,-3.543177593864403896
0.262000000000000122,-3.809899098801647455
0.263000000000000123,-4.069862408415606758
0.264000000000000123,-4.323104902849868481
0.265000000000000124,-4.569666807396005836
0.266000000000000125,-4.809591197592252954
0.267000000000000126,-5.042923989270387430
0.268000000000000127,-5.269713914520639086
0.269000000000000128,-5.490012484580463870
0.270000000000000129,-5.703873940675191712
0.271000000000000130,-5.911355193847978029
0.272000000000000131,-6.112515754814156210
0.273000000000000131,-6.307417654863665568
0.274000000000000132,-6.496125358815072914
0.275000000000000133,-6.678705670997783450
0.276000000000000134,-6.855227635206205150
0.277000000000000135,-7.025762429531570596
0.278000000000000136,-7.190383256936206280
0.279000000000000137,-7.349165232390300950
0.280000000000000138,-7.502185267344685826
0.281000000000000139,-7.649521952265493141
0.282000000000000139,-7.791255437907532055
0.283000000000000140,-7.927467315954508820
0.284000000000000141,-8.058240499605274110
0.285000000000000142,-8.183659104637335702
0.286000000000000143,-8.303808331431712375
0.287000000000000144,-8.418774348397187524
0.288000000000000145,-8.528644177188118292
0.289000000000000146,-8.633505580066749729
0.290000000000000147,-8.733446949720768515
0.291000000000000147,-8.828557201807601729
0.292000000000000148,-8.918925670460652100
0.293000000000000149,-9.004642006957597644
0.294000000000000150,-9.085796081718811479
0.295000000000000151,-9.162477889773331441
0.296000000000000152,-9.234777459801751576
0.297000000000000153,-9.302784766839247155
0.298000000000000154,-9.366589648697882353
0.299000000000000155,-9.426281726145329998
0.300000000000000155,-9.481950326856978251
0.301000000000000156,-9.533684413140061764
0.302000000000000157,-9.581572513412194070
0.303000000000000158,-9.625702657401516760
0.304000000000000159,-9.666162315022962304
0.305000000000000160,-9.703038338872946866
0.306000000000000161,-9.736416910275087488
0.307000000000000162,-9.766383488800251200
0.308000000000000163,-9.793022765176836231
0.309000000000000163,-9.816418617500634269
0.310000000000000164,-9.836654070648254589
0.311000000000000165,-9.853811258793681915
0.312000000000000166,-9.867971390924084929
0.313000000000000167,-9.879214719248388121
0.314000000000000168,-9.887620510390181749
0.315000000000000169,-9.893267019255379324
0.316000000000000170,-9.896231465464669697
0.317000000000000171,-9.896590012240512380
0.318000000000000171,-9.894417747639188576
0.319000000000000172,-9.889788668019443563
0.320000000000000173,-9.882775663640348540
0.321000000000000174,-9.873450506282994255
0.322000000000000175,-9.861883838792568469
0.323000000000000176,-9.848145166439584486
0.324000000000000177,-9.832302850001639172
0.325000000000000178,-9.814424100469580026
0.326000000000000179,-9.794574975285092577
0.327000000000000179,-9.772820376019332400
0.328000000000000180,-9.749224047405432358
0.329000000000000181,-9.723848577641001967
0.330000000000000182,-9.696755399879375403
0.331000000000000183,-9.668004794832281590
0.332000000000000184,-9.637655894409006052
0.333000000000000185,-9.605766686320944103
0.334000000000000186,-9.572394019583178704
0.335000000000000187,-9.537593610848055903
0.336000000000000187,-9.501420051508677744
0.337000000000000188,-9.463926815513241664
0.338000000000000189,-9.425166267834219624
0.339000000000000190,-9.385189673539130695
0.340000000000000191,-9.344047207412367939
0.341000000000000192,-9.301787964080535431
0.342000000000000193,-9.258459968596039147
0.343000000000000194,-9.214110187436482136
0.344000000000000195,-9.168784539879567319
0.345000000000000195,-9.122527909715980599
0.346000000000000196,-9.075384157264444696
0.347000000000000197,-9.027396131655766709
0.348000000000000198,-8.978605683354501821
0.349000000000000199,-8.929053676888901947
0.350000000000000200,-8.878780003761720607
0.351000000000000201,-8.827823595516210986
0.352000000000000202,-8.776222436933332816
0.353000000000000203,-8.724013579337867696
0.354000000000000203,-8.671233153992655929
0.355000000000000204,-8.617916385561517956
0.356000000000000205,-8.564097605622929876
0.357000000000000206,-8.509810266217844088
0.358000000000000207,-8.455086953416008910
0.359000000000000208,-8.399959400886626071
0.360000000000000209,-8.344458503460066012
0.361000000000000210,-8.288614330668414354
0.362000000000000210,-8.232456140253574972
0.363000000000000211,-8.176012391632587750
0.364000000000000212,-8.119310759310664594
0.365000000000000213,-8.062378146233081466
0.366000000000000214,-8.005240697068062516
0.367000000000000215,-7.947923811413190265
0.368000000000000216,-7.890452156918732030
0.369000000000000217,-7.832849682321741724
0.370000000000000218,-7.775139630385417888
0.371000000000000218,-7.717344550738611808
0.372000000000000219,-7.659486312611003100
0.373000000000000220,-7.601586117459743441
0.374000000000000221,-7.543664511483965995
0.375000000000000222,-7.485741398023639803
0.376000000000000223,-7.427836049839998012
0.377000000000000224,-7.369967121274706656
0.378000000000000225,-7.312152660285501149
0.379000000000000226,-7.254410120356148184
0.380000000000000226,-7.196756372278954927
0.381000000000000227,-7.139207715808131738
0.382000000000000228,-7.081779891182707232
0.383000000000000229,-7.024488090517770900
0.384000000000000230,-6.967346969062956141
0.385000000000000231,-6.910370656327477157
0.386000000000000232,-6.853572767070846616
0.387000000000000233,-6.796966412158882420
0.388000000000000234,-6.740564209284388042
0.389000000000000234,-6.684378293552427408
0.390000000000000235,-6.628420327929754663
0.391000000000000236,-6.572701513558499187
0.392000000000000237,-6.517232599933909576
0.393000000000000238,-6.462023894946385738
0.394000000000000239,-6.407085274787800877
0.395000000000000240,-6.352426193722422454
0.396000000000000241,-6.298055693722675485
0.397000000000000242,-6.243982413970014633
0.398000000000000242,-6.190214600221436214
0.399000000000000243,-6.136760114041903691
0.400000000000000244,-6.083626441903241755
0.401000000000000245,-6.030820704150053224
0.402000000000000246,-5.978349663833141037
0.403000000000000247,-5.926219735411040190
0.404000000000000248,-5.874436993320339973
0.405000000000000249,-5.823007180415406658
0.406000000000000250,-5.771935716278170148
0.407000000000000250,-5.721227705398751695
0.408000000000000251,-5.670887945227569560
0.409000000000000252,-5.620920934099805422
0.410000000000000253,-5.571330879032868388
0.411000000000000254,-5.522121703397779413
0.412000000000000255,-5.473297054465206202
0.413000000000000256,-5.424860310827044785
0.414000000000000257,-5.376814589694356883
0.415000000000000258,-5.329162754072570785
0.416000000000000258,-5.281907419814799276
0.417000000000000259,-5.235050962554208986
0.418000000000000260,-5.188595524516337321
0.419000000000000261,-5.142543021212280685
0.420000000000000262,-5.096895148013717680
0.421000000000000263,-5.051653386610754026
0.422000000000000264,-5.006819011353465854
0.423000000000000265,-4.962393095478200067
0.424000000000000266,-4.918376517219662070
0.425000000000000266,-4.874769965809673700
0.426000000000000267,-4.831573947363737354
0.427000000000000268,-4.788788790656377969
0.428000000000000269,-4.746414652786301147
0.429000000000000270,-4.704451524732471412
0.430000000000000271,-4.662899236802067193
0.431000000000000272,-4.621757463971500002
0.432000000000000273,-4.581025731121477484
0.433000000000000274,-4.540703418167280958
0.434000000000000274,-4.500789765085266403
0.435000000000000275,-4.461283876836751539
0.436000000000000276,-4.422184728190422298
0.437000000000000277,-4.383491168444268560
0.438000000000000278,-4.345201926048298802
0.439000000000000279,-4.307315613129103937
0.440000000000000280,-4.269830729917386769
0.441000000000000281,-4.232745669079650774
0.442000000000000282,-4.196058719955194860
0.443000000000000282,-4.159768072699483454
0.444000000000000283,-4.123871822335184234
0.445000000000000284,-4.088367972711944631
0.446000000000000285,-4.053254440376024448
0.447000000000000286,-4.018529058351153260
0.448000000000000287,-3.984189579831517669
0.449000000000000288,-3.950233681788283491
0.450000000000000289,-3.916658968490676962
0.451000000000000290,-3.883462974942868406
0.452000000000000290,-3.850643170237843638
0.453000000000000291,-3.818196960829382647
0.454000000000000292,-3.786121693723411230
0.455000000000000293,-3.754414659589797587
0.456000000000000294,-3.723073095795876863
0.457000000000000295,-3.692094189362809864
0.458000000000000296,-3.661475079845958991
0.459000000000000297,-3.631212862140498210
0.460000000000000298,-3.601304589213347729
0.461000000000000298,-3.571747274762695490
0.462000000000000299,-3.542537895806187720
0.463000000000000300,-3.513673395198980476
0.464000000000000301,-3.485150684082814365
0.465000000000000302,-3.456966644267269295
0.466000000000000303,-3.429118130544305476
0.467000000000000304,-3.401601972937267959
0.468000000000000305,-3.374414978885494243
0.469000000000000306,-3.347553935365604527
0.470000000000000306,-3.321015610950686980
0.471000000000000307,-3.294796757808374998
0.472000000000000308,-3.268894113639045251
0.473000000000000309,-3.243304403555151261
0.474000000000000310,-3.218024341902831598
0.475000000000000311,-3.193050634026843859
0.476000000000000312,-3.168379977979982165
0.477000000000000313,-3.144009066177916090
0.478000000000000314,-3.119934587000631865
0.479000000000000314,-3.096153226341484821
0.480000000000000315,-3.072661669104864934
0.481000000000000316,-3.049456600653598137
0.482000000000000317,-3.026534708207011537
0.483000000000000318,-3.003892682190744345
0.484000000000000319,-2.981527217539266861
0.485000000000000320,-2.959435014952139120
0.486000000000000321,-2.937612782104950249
0.487000000000000322,-2.916057234815950139
0.488000000000000322,-2.894765098169274520
0.489000000000000323,-2.873733107595811465
0.490000000000000324,-2.852958009912546000
0.491000000000000325,-2.832436564321384687
0.492000000000000326,-2.812165543368314591
0.493000000000000327,-2.792141733863875430
0.494000000000000328,-2.772361937765769113
0.495000000000000329,-2.752822973024529940
0.496000000000000330,-2.733521674393111223
0.497000000000000330,-2.714454894201254742
0.498000000000000331,-2.695619503095463276
0.499000000000000332,-2.677012390745466597
0.500000000000000333,-2.658630466517946989
0.501000000000000334,-2.640470660118351187
0.502000000000000335,-2.622529922201608965
0.503000000000000336,-2.604805224952529752
0.504000000000000337,-2.587293562636643340
0.505000000000000338,-2.569991952122256063
0.506000000000000338,-2.552897433374486269
0.507000000000000339,-2.536007069921992318
0.508000000000000340,-2.519317949297128933
0.509000000000000341,-2.502827183450270443
0.510000000000000342,-2.486531909138967045
0.511000000000000343,-2.470429288292639747
0.512000000000000344,-2.454516508353501880
0.513000000000000345,-2.438790782594355555
0.514000000000000346,-2.423249350413954062
0.515000000000000346,-2.407889477610517304
0.516000000000000347,-2.392708456634071279
0.517000000000000348,-2.377703606818258208
0.518000000000000349,-2.362872274592137334
0.519000000000000350,-2.348211833672662063
0.520000000000000351,-2.333719685238389019
0.521000000000000352,-2.319393258084969212
0.522000000000000353,-2.305230008763026195
0.523000000000000353,-2.291227421698928790
0.524000000000000354,-2.277383009299053462
0.525000000000000355,-2.263694312038017742
0.526000000000000356,-2.250158898531414486
0.527000000000000357,-2.236774365593602543
0.528000000000000358,-2.223538338280962812
0.529000000000000359,-2.210448469921211245
0.530000000000000360,-2.197502442129144917
0.531000000000000361,-2.184697964809382054
0.532000000000000361,-2.172032776146470390
0.533000000000000362,-2.159504642582876777
0.534000000000000363,-2.147111358785247059
0.535000000000000364,-2.134850747599399412
0.536000000000000365,-2.122720659994437931
0.537000000000000366,-2.110718974996425246
0.538000000000000367,-2.098843599611970312
0.539000000000000368,-2.087092468742187901
0.540000000000000369,-2.075463545087321116
0.541000000000000369,-2.063954819042493227
0.542000000000000370,-2.052564308584867270
0.543000000000000371,-2.041290059152621517
0.544000000000000372,-2.030130143516064578
0.545000000000000373,-2.019082661641237841
0.546000000000000374,-2.008145740546303237
0.547000000000000375,-1.997317534151075602
0.548000000000000376,-1.986596223119996285
0.549000000000000377,-1.975980014698840437
0.550000000000000377,-1.965467142545458845
0.551000000000000378,-1.955055866554854305
0.552000000000000379,-1.944744472678861857
0.553000000000000380,-1.934531272740712238
0.554000000000000381,-1.924414604244718774
0.555000000000000382,-1.914392830181413485
0.556000000000000383,-1.904464338828281811
0.557000000000000384,-1.894627543546442583
0.558000000000000385,-1.884880882573436667
0.559000000000000385,-1.875222818812402492
0.560000000000000386,-1.865651839617824992
0.561000000000000387,-1.856166456578113966
0.562000000000000388,-1.846765205295185508
0.563000000000000389,-1.837446645161287861
0.564000000000000390,-1.828209359133239120
0.565000000000000391,-1.819051953504290164
0.566000000000000392,-1.809973057673798014
0.567000000000000393,-1.800971323914883016
0.568000000000000393,-1.792045427140252611
0.569000000000000394,-1.783194064666358214
0.570000000000000395,-1.774415955976061054
0.571000000000000396,-1.765709842479944003
0.572000000000000397,-1.757074487276456098
0.573000000000000398,-1.748508674911011029
0.574000000000000399,-1.740011211134205427
0.575000000000000400,-1.731580922659272659
0.576000000000000401,-1.723216656918934664
0.577000000000000401,-1.714917281821776385
0.578000000000000402,-1.706681685508244950
0.579000000000000403,-1.698508776106424367
0.580000000000000404,-1.690397481487697195
0.581000000000000405,-1.682346749022389787
0.582000000000000406,-1.674355545335534767
0.583000000000000407,-1.666422856062832025
0.584000000000000408,-1.658547685606934774
0.585000000000000409,-1.650729056894127300
0.586000000000000409,-1.642966011131522519
0.587000000000000410,-1.635257607564844395
0.588000000000000411,-1.627602923236885157
0.589000000000000412,-1.620001052746742776
0.590000000000000413,-1.612451108009876677
0.591000000000000414,-1.604952218019097598
0.592000000000000415,-1.597503528606556866
0.593000000000000416,-1.590104202206777728
0.594000000000000417,-1.582753417620822001
0.595000000000000417,-1.575450369781678628
0.596000000000000418,-1.568194269520856166
0.597000000000000419,-1.560984343336336178
0.598000000000000420,-1.553819833161869113
0.599000000000000421,-1.546699996137701039
0.600000000000000422,-1.539624104382772751
0.601000000000000423,-1.532591444768439448
0.602000000000000424,-1.525601318693757591
0.603000000000000425,-1.518653041862381148
0.604000000000000425,-1.511745944061109403
0.605000000000000426,-1.504879368940115869
0.606000000000000427,-1.498052673794932677
0.607000000000000428,-1.491265229350131616
0.608000000000000429,-1.484516419544893218
0.609000000000000430,-1.477805641320288021
0.610000000000000431,-1.471132304408507840
0.611000000000000432,-1.464495831123918901
0.612000000000000433,-1.457895656156014130
0.613000000000000433,-1.451331226364331206
