# Montmorillonite-001-NaCEC90_CS-61686-AC
# h[nm],U(h)[kJ/mol]
0.149999999999999994,81.728237643246373523
0.150999999999999995,80.072624775591663138
0.151999999999999996,78.667075656315248011
0.152999999999999997,77.305852834908009186
0.153999999999999998,75.916853755850993934
0.154999999999999999,74.491017479656960631
0.156000000000000000,73.043730409043291729
0.157000000000000001,71.595326082524621825
0.158000000000000002,70.162529097307725579
0.159000000000000002,68.755814809592607162
0.160000000000000003,67.379675990908154404
0.161000000000000004,66.034070745107769085
0.162000000000000005,64.716122677573281408
0.163000000000000006,63.421624128033315060
0.164000000000000007,62.146170229946584129
0.165000000000000008,60.885901459224783139
0.166000000000000009,59.637904952110581291
0.167000000000000010,58.400352353368177205
0.168000000000000010,57.172454644883671904
0.169000000000000011,55.954304832217211185
0.170000000000000012,54.746664968601614021
0.171000000000000013,53.550738946948719388
0.172000000000000014,52.367958927614438380
0.173000000000000015,51.199802098382569682
0.174000000000000016,50.047645879299999194
0.175000000000000017,48.912663506195187324
0.176000000000000018,47.795757796121748129
0.177000000000000018,46.697528405110531935
0.178000000000000019,45.618266636462116992
0.179000000000000020,44.557971496237229303
0.180000000000000021,43.516380931427825374
0.181000000000000022,42.493012796465862380
0.182000000000000023,41.487210902282825487
0.183000000000000024,40.498192384211094463
0.184000000000000025,39.525093495110169783
0.185000000000000026,38.567011733620553571
0.186000000000000026,37.623042923216850397
0.187000000000000027,36.692312451639999438
0.188000000000000028,35.774000360122471420
0.189000000000000029,34.867360343223062102
0.190000000000000030,33.971732993456313920
0.191000000000000031,33.086553813121966527
0.192000000000000032,32.211356632567081704
0.193000000000000033,31.345773133068053795
0.194000000000000034,30.489529186198097932
0.195000000000000034,29.642438701201125895
0.196000000000000035,28.804395627259072654
0.197000000000000036,27.975364696782371254
0.198000000000000037,27.155371425628960225
0.199000000000000038,26.344491811739846554
0.200000000000000039,25.542842099107012643
0.201000000000000040,24.750568902237326085
0.202000000000000041,23.967839919422708306
0.203000000000000042,23.194835402518275913
0.204000000000000042,22.431740497317388616
0.205000000000000043,21.678738522295979863
0.206000000000000044,20.936005214421701481
0.207000000000000045,20.203703938587032951
0.208000000000000046,19.481981831549191497
0.209000000000000047,18.770966831456501467
0.210000000000000048,18.070765529462299526
0.211000000000000049,17.381461769904689163
0.212000000000000050,16.703115919398467071
0.213000000000000050,16.035764722315640540
0.214000000000000051,15.379421659926109101
0.215000000000000052,14.734077732396556826
0.216000000000000053,14.099702586417777184
0.217000000000000054,13.476245916025590077
0.218000000000000055,12.863639069831512174
0.219000000000000056,12.261796804076531942
0.220000000000000057,11.670619127400895465
0.221000000000000058,11.089993189780015470
0.222000000000000058,10.519795174531797244
0.223000000000000059,9.959892158531216566
0.224000000000000060,9.410143911667926631
0.225000000000000061,8.870404612084112017
0.226000000000000062,8.340524458785028017
0.227000000000000063,7.820351167796099290
0.228000000000000064,7.309731342138230836
0.229000000000000065,6.808511709507291343
0.230000000000000066,6.316540224690535332
0.231000000000000066,5.833667036448074050
0.232000000000000067,5.359745320861618367
0.233000000000000068,4.894631985032356525
0.234000000000000069,4.438188246529331416
0.235000000000000070,3.990280095181834241
0.236000000000000071,3.550778644708997511
0.237000000000000072,3.119560382318436798
0.238000000000000073,2.696507324818095519
0.239000000000000073,2.281507090001217986
0.240000000000000074,1.874452892110386015
0.241000000000000075,1.475243470093740017
0.242000000000000076,1.083782957155427606
0.243000000000000077,0.699980699797140060
0.244000000000000078,0.323751034168243690
0.245000000000000079,-0.044986972894478908
0.246000000000000080,-0.406309811233280915
0.247000000000000081,-0.760289836743230696
0.248000000000000081,-1.106995596874339238
0.249000000000000082,-1.446492166908926791
0.250000000000000111,-1.778841492184487949
0.251000000000000112,-2.104102731945179272
0.252000000000000113,-2.422332601003732044
0.253000000000000114,-2.733585705872227933
0.254000000000000115,-3.037914872475918404
0.255000000000000115,-3.335371462991825631
0.256000000000000116,-3.626005679755215816
0.257000000000000117,-3.909866854548911697
0.258000000000000118,-4.187003721932664568
0.259000000000000119,-4.457464675583450386
0.260000000000000120,-4.721298006901777811
0.261000000000000121,-4.978552125394807071
0.262000000000000122,-5.229275760576176602
0.263000000000000123,-5.473518145324463902
0.264000000000000123,-5.711329180820458262
0.265000000000000124,-5.942759583337282159
0.266000000000000125,-6.167861013290286465
0.267000000000000126,-6.386686187065366838
0.268000000000000127,-6.599288972238310791
0.269000000000000128,-6.805724466873442680
0.270000000000000129,-7.006049063650602093
0.271000000000000130,-7.200320499615957992
0.272000000000000131,-7.388597892385396548
0.273000000000000131,-7.570941763651687140
0.274000000000000132,-7.747414050858303369
0.275000000000000133,-7.918078107906206142
0.276000000000000134,-8.082998695755199137
0.277000000000000135,-8.242241963769689761
0.278000000000000136,-8.395875422642186336
0.279000000000000137,-8.543967909705532549
0.280000000000000138,-8.686589547418851254
0.281000000000000139,-8.823811695783298603
0.282000000000000139,-8.955706899411447708
0.283000000000000140,-9.082348829940693591
0.284000000000000141,-9.203812224445471202
0.285000000000000142,-9.320172820467153230
0.286000000000000143,-9.431507288243459186
0.287000000000000144,-9.537893160682383353
0.288000000000000145,-9.639408761589056240
0.289000000000000146,-9.736133132617155184
0.290000000000000147,-9.828145959381375363
0.291000000000000147,-9.915527497132169188
0.292000000000000148,-9.998358496360646441
0.293000000000000149,-10.076720128668601006
0.294000000000000150,-10.150693913207510022
0.295000000000000151,-10.220361643960377052
0.296000000000000152,-10.285805318111741258
0.297000000000000153,-10.347107065724133079
0.298000000000000154,-10.404349080913672054
0.299000000000000155,-10.457613554693356406
0.300000000000000155,-10.506982609630146186
0.301000000000000156,-10.552538236440536679
0.302000000000000157,-10.594362232629901399
0.303000000000000158,-10.632536143262406370
0.304000000000000159,-10.667141203931517879
0.305000000000000160,-10.698258285985298599
0.306000000000000161,-10.725967844046680355
0.307000000000000162,-10.750349865855600484
0.308000000000000163,-10.771483824447937394
0.309000000000000163,-10.789448632675432194
0.310000000000000164,-10.804322600061036397
0.311000000000000165,-10.816183391975172867
0.312000000000000166,-10.825107991110836991
0.313000000000000167,-10.831172661228119836
0.314000000000000168,-10.834452913132940566
0.315000000000000169,-10.835023472849126591
0.316000000000000170,-10.832958251938544336
0.317000000000000171,-10.828330319919711400
0.318000000000000171,-10.821211878732118095
0.319000000000000172,-10.811674239190633529
0.320000000000000173,-10.799787799371975083
0.321000000000000174,-10.785622024873365632
0.322000000000000175,-10.769245430882220305
0.323000000000000176,-10.750725565994574850
0.324000000000000177,-10.730128997719351247
0.325000000000000178,-10.707521299605133436
0.326000000000000179,-10.682967039926275277
0.327000000000000179,-10.656529771865134393
0.328000000000000180,-10.628272025127788680
0.329000000000000181,-10.598255298931286816
0.330000000000000182,-10.566540056301104045
0.331000000000000183,-10.533185719618737508
0.332000000000000184,-10.498250667360169430
0.333000000000000185,-10.461792231967418587
0.334000000000000186,-10.423866698796597774
0.335000000000000187,-10.384529306087220135
0.336000000000000187,-10.343834245899296675
0.337000000000000188,-10.301834665965730053
0.338000000000000189,-10.258582672409726655
0.339000000000000190,-10.214129333278062717
0.340000000000000191,-10.168524682842747353
0.341000000000000192,-10.121817726625565115
0.342000000000000193,-10.074056447101032319
0.343000000000000194,-10.025287810035624858
0.344000000000000195,-9.975557771421964759
0.345000000000000195,-9.924911284969081038
0.346000000000000196,-9.873392310110657988
0.347000000000000197,-9.821043820495333421
0.348000000000000198,-9.767907812924260469
0.349000000000000199,-9.714025316702777246
0.350000000000000200,-9.659436403374566993
0.351000000000000201,-9.604180196807842407
0.352000000000000202,-9.548294883604784289
0.353000000000000203,-9.491817723806557083
0.354000000000000203,-9.434785061867723144
0.355000000000000204,-9.377232337874884749
0.356000000000000205,-9.319194098985894570
0.357000000000000206,-9.260704011066959396
0.358000000000000207,-9.201794870506057933
0.359000000000000208,-9.142498616182383131
0.360000000000000209,-9.082846341572402338
0.361000000000000210,-9.022868306974173080
0.362000000000000210,-8.962593951832532824
0.363000000000000211,-8.902051907148756271
0.364000000000000212,-8.841270007959080246
0.365000000000000213,-8.780275305867418112
0.366000000000000214,-8.719094081618342429
0.367000000000000215,-8.657751857697245867
0.368000000000000216,-8.596273410945332927
0.369000000000000217,-8.534682785177773567
0.370000000000000218,-8.473003303794067520
0.371000000000000218,-8.411257582370257779
0.372000000000000219,-8.349467541223326350
0.373000000000000220,-8.287654417938679074
0.374000000000000221,-8.225838779852137961
0.375000000000000222,-8.164040536478374577
0.376000000000000223,-8.102278951878405522
0.377000000000000224,-8.040572656959012576
0.378000000000000225,-7.978939661697563857
0.379000000000000226,-7.917397367286080900
0.380000000000000226,-7.855962578188945500
0.381000000000000227,-7.794651514108721813
0.382000000000000228,-7.733479821855408609
0.383000000000000229,-7.672462587114317500
0.384000000000000230,-7.611614346108424911
0.385000000000000231,-7.550949097151312017
0.386000000000000232,-7.490480312086963188
0.387000000000000233,-7.430220947613181970
0.388000000000000234,-7.370183456485477791
0.389000000000000234,-7.310379798598735768
0.390000000000000235,-7.250821451943989970
0.391000000000000236,-7.191519423438085923
0.392000000000000237,-7.132484259624034095
0.393000000000000238,-7.073726057240287801
0.394000000000000239,-7.015254473657106082
0.395000000000000240,-6.957078737178632011
0.396000000000000241,-6.899207657209305289
0.397000000000000242,-6.841649634283418990
0.398000000000000242,-6.784412669956921604
0.399000000000000243,-6.727504376560541566
0.400000000000000244,-6.670931986813547709
0.401000000000000245,-6.614702363297650933
0.402000000000000246,-6.558822007790539033
0.403000000000000247,-6.503297070458754270
0.404000000000000248,-6.448133358909754698
0.405000000000000249,-6.393336347103047324
0.406000000000000250,-6.338911184120417985
0.407000000000000250,-6.284862702795379619
0.408000000000000251,-6.231195428202033426
0.409000000000000252,-6.177913586003706214
0.410000000000000253,-6.125021110661643675
0.411000000000000254,-6.072521653504315609
0.412000000000000255,-6.020418590657820701
0.413000000000000256,-5.968715030838008140
0.414000000000000257,-5.917413823004984863
0.415000000000000258,-5.866517563880753627
0.416000000000000258,-5.816028605330761714
0.417000000000000259,-5.765949061610220028
0.418000000000000260,-5.716280816476094984
0.419000000000000261,-5.667025530165697766
0.420000000000000262,-5.618184646242911029
0.421000000000000263,-5.569759398313078869
0.422000000000000264,-5.521750816607605472
0.423000000000000265,-5.474159734439399294
0.424000000000000266,-5.426986794530389346
0.425000000000000266,-5.380232455212178522
0.426000000000000267,-5.333896996501129806
0.427000000000000268,-5.287980526049134156
0.428000000000000269,-5.242482984971283955
0.429000000000000270,-5.197404153551834938
0.430000000000000271,-5.152743656829674279
0.431000000000000272,-5.108500970064731028
0.432000000000000273,-5.064675424086628297
0.433000000000000274,-5.021266210527019602
0.434000000000000274,-4.978272386936926530
0.435000000000000275,-4.935692881790555653
0.436000000000000276,-4.893526499377011341
0.437000000000000277,-4.851771924581285589
0.438000000000000278,-4.810427727556034760
0.439000000000000279,-4.769492368285593642
0.440000000000000280,-4.728964201043622140
0.441000000000000281,-4.688841478745939817
0.442000000000000282,-4.649122357199984457
0.443000000000000282,-4.609804899252353039
0.444000000000000283,-4.570887078835955464
0.445000000000000284,-4.532366784918236746
0.446000000000000285,-4.494241825351911857
0.447000000000000286,-4.456509930629839467
0.448000000000000287,-4.419168757545304693
0.449000000000000288,-4.382215892759431242
0.450000000000000289,-4.345648856277003702
0.451000000000000290,-4.309465104832291615
0.452000000000000290,-4.273662035186339025
0.453000000000000291,-4.238236987337131723
0.454000000000000292,-4.203187247644186719
0.455000000000000293,-4.168510051868942412
0.456000000000000294,-4.134202588132462886
0.457000000000000295,-4.100261999791880996
0.458000000000000296,-4.066685388236986221
0.459000000000000297,-4.033469815608445863
0.460000000000000298,-4.000612307439013193
0.461000000000000298,-3.968109855219185356
0.462000000000000299,-3.935959418888695716
0.463000000000000300,-3.904157929255182236
0.464000000000000301,-3.872702290341496045
0.465000000000000302,-3.841589381662966041
0.466000000000000303,-3.810816060435958885
0.467000000000000304,-3.780379163719109759
0.468000000000000305,-3.750275510488575215
0.469000000000000306,-3.720501903648545383
0.470000000000000306,-3.691055131978441040
0.471000000000000307,-3.661931972017951065
0.472000000000000308,-3.633129189891316280
0.473000000000000309,-3.604643543072042711
0.474000000000000310,-3.576471782089323703
0.475000000000000311,-3.548610652177393465
0.476000000000000312,-3.521056894869095455
0.477000000000000313,-3.493807249534765624
0.478000000000000314,-3.466858454867710382
0.479000000000000314,-3.440207250317454335
0.480000000000000315,-3.413850377471844943
0.481000000000000316,-3.387784581389287730
0.482000000000000317,-3.362006611882098817
0.483000000000000318,-3.336513224752233775
0.484000000000000319,-3.311301182980376900
0.485000000000000320,-3.286367257869577063
0.486000000000000321,-3.261708230144426235
0.487000000000000322,-3.237320891006885581
0.488000000000000322,-3.213202043149746778
0.489000000000000323,-3.189348501728839214
0.490000000000000324,-3.165757095294899237
0.491000000000000325,-3.142424666686164603
0.492000000000000326,-3.119348073882606709
0.493000000000000327,-3.096524190822854017
0.494000000000000328,-3.073949908184647306
0.495000000000000329,-3.051622134129855279
0.496000000000000330,-3.029537795014886292
0.497000000000000330,-3.007693836067469650
0.498000000000000331,-2.986087222030608945
0.499000000000000332,-2.964714937774675541
0.500000000000000333,-2.943573988878405601
0.501000000000000334,-2.922661402179701717
0.502000000000000335,-2.901974226297014958
0.503000000000000336,-2.881509532122186190
0.504000000000000337,-2.861264413285455444
0.505000000000000338,-2.841235986593488416
0.506000000000000338,-2.821421392441151532
0.507000000000000339,-2.801817795197793615
0.508000000000000340,-2.782422383568762925
0.509000000000000341,-2.763232370932913184
0.510000000000000342,-2.744244995656763386
0.511000000000000343,-2.725457521386031701
0.512000000000000344,-2.706867237315210506
0.513000000000000345,-2.688471458435862882
0.514000000000000346,-2.670267525764292493
0.515000000000000346,-2.652252806549203701
0.516000000000000347,-2.634424694459990945
0.517000000000000348,-2.616780609756311993
0.518000000000000349,-2.599317999439440641
0.519000000000000350,-2.582034337386112544
0.520000000000000351,-2.564927124465333108
0.521000000000000352,-2.547993888638788729
0.522000000000000353,-2.531232185045346306
0.523000000000000353,-2.514639596070205929
0.524000000000000354,-2.498213731399265392
0.525000000000000355,-2.481952228059143728
0.526000000000000356,-2.465852750443401575
0.527000000000000357,-2.449912990325473494
0.528000000000000358,-2.434130666858718151
0.529000000000000359,-2.418503526564146355
0.530000000000000360,-2.403029343306188004
0.531000000000000361,-2.387705918257030824
0.532000000000000361,-2.372531079849891533
0.533000000000000362,-2.357502683721704351
0.534000000000000363,-2.342618612645595455
0.535000000000000364,-2.327876776453570606
0.536000000000000365,-2.313275111949801399
0.537000000000000366,-2.298811582814908494
0.538000000000000367,-2.284484179501566015
0.539000000000000368,-2.270290919121892070
0.540000000000000369,-2.256229845326839012
0.541000000000000369,-2.242299028178081244
0.542000000000000370,-2.228496564012609760
0.543000000000000371,-2.214820575300433525
0.544000000000000372,-2.201269210495696349
0.545000000000000373,-2.187840643881498348
0.546000000000000374,-2.174533075408738192
0.547000000000000375,-2.161344730529264346
0.548000000000000376,-2.148273860023639958
0.549000000000000377,-2.135318739823780287
0.550000000000000377,-2.122477670830714480
0.551000000000000378,-2.109748978727784774
0.552000000000000379,-2.097131013789491849
0.553000000000000380,-2.084622150686263886
0.554000000000000381,-2.072220788285352278
0.555000000000000382,-2.059925349448156418
0.556000000000000383,-2.047734280824097031
0.557000000000000384,-2.035646052641386206
0.558000000000000385,-2.023659158494785171
0.559000000000000385,-2.011772115130653127
0.560000000000000386,-1.999983462229411035
0.561000000000000387,-1.988291762185683265
0.562000000000000388,-1.976695599886237442
0.563000000000000389,-1.965193582485967649
0.564000000000000390,-1.953784339182044194
0.565000000000000391,-1.942466520986439793
0.566000000000000392,-1.931238800496962060
0.567000000000000393,-1.920099871667001024
0.568000000000000393,-1.909048449574077821
0.569000000000000394,-1.898083270187405969
0.570000000000000395,-1.887203090134583094
0.571000000000000396,-1.876406686467528839
0.572000000000000397,-1.865692856427869417
0.573000000000000398,-1.855060417211810364
0.574000000000000399,-1.844508205734706863
0.575000000000000400,-1.834035078395383822
0.576000000000000401,-1.823639910840360701
0.577000000000000401,-1.813321597728101198
0.578000000000000402,-1.803079052493349099
0.579000000000000403,-1.792911207111690386
0.580000000000000404,-1.782817011864446854
0.581000000000000405,-1.772795435103966755
0.582000000000000406,-1.762845463019426573
0.583000000000000407,-1.752966099403223454
0.584000000000000408,-1.743156365418050857
0.585000000000000409,-1.733415299364719386
0.586000000000000409,-1.723741956450836499
0.587000000000000410,-1.714135408560374163
0.588000000000000411,-1.704594744024233055
0.589000000000000412,-1.695119067391861689
0.590000000000000413,-1.685707499203968229
0.591000000000000414,-1.676359175766435783
0.592000000000000415,-1.667073248925468931
0.593000000000000416,-1.657848885844021014
0.594000000000000417,-1.648685268779571889
0.595000000000000417,-1.639581594863337433
0.596000000000000418,-1.630537075880865050
0.597000000000000419,-1.621550938054188595
0.598000000000000420,-1.612622421825465668
0.599000000000000421,-1.603750781642232726
0.600000000000000422,-1.594935285744254472
0.601000000000000423,-1.586175215952036144
0.602000000000000424,-1.577469867457028219
0.603000000000000425,-1.568818548613547303
0.604000000000000425,-1.560220580732450957
0.605000000000000426,-1.551675297876588200
0.606000000000000427,-1.543182046658089446
0.607000000000000428,-1.534740186037419241
0.608000000000000429,-1.526349087124384329
0.609000000000000430,-1.518008132980908087
0.610000000000000431,-1.509716718425806681
0.611000000000000432,-1.501474249841411313
