# Montmorillonite-001-NaCEC90_CHOL-JS
# h[nm],U(h)[kJ/mol]
0.149999999999999994,125.619923367347013254
0.150999999999999995,123.821890841042574039
0.151999999999999996,122.743665884351045747
0.152999999999999997,121.773838667035420258
0.153999999999999998,120.700505047346993592
0.154999999999999999,119.495530903086731200
0.156000000000000000,118.199302717099726578
0.157000000000000001,116.864298854831488939
0.158000000000000002,115.531581822943422821
0.159000000000000002,114.224525686556447113
0.160000000000000003,112.950602701729593491
0.161000000000000004,111.706118501424185752
0.162000000000000005,110.481257838972553031
0.163000000000000006,109.264254330949526661
0.164000000000000007,108.044307147855008111
0.165000000000000008,106.813283876240078030
0.166000000000000009,105.566432448300588476
0.167000000000000010,104.302377905831193061
0.168000000000000010,103.022664792125851818
0.169000000000000011,101.731060814252217028
0.170000000000000012,100.432783575383325569
0.171000000000000013,99.133761009103764650
0.172000000000000014,97.839992881315978934
0.173000000000000015,96.557047018810649774
0.174000000000000016,95.289699495105196547
0.175000000000000017,94.041711635809122072
0.176000000000000018,92.815726838615574934
0.177000000000000018,91.613265271023323066
0.178000000000000019,90.434793108966587738
0.179000000000000020,89.279843942158692016
0.180000000000000021,88.147172374535657013
0.181000000000000022,87.034922997448077808
0.182000000000000023,85.940801313470018385
0.183000000000000024,84.862236505364961658
0.184000000000000025,83.796528969276252496
0.185000000000000026,82.740978149443279221
0.186000000000000026,81.692988377428832791
0.187000000000000027,80.650152132193738908
0.188000000000000028,79.610311428384605392
0.189000000000000029,78.571598956168770655
0.190000000000000030,77.532461192278077533
0.191000000000000031,76.491666035849917193
0.192000000000000032,75.448297649087436412
0.193000000000000033,74.401741151700065302
0.194000000000000034,73.351659673310422249
0.195000000000000034,72.297966046535748319
0.196000000000000035,71.240791155615042385
0.197000000000000036,70.180450665337090754
0.198000000000000037,69.117411561096858463
0.199000000000000038,68.052259646761456224
0.200000000000000039,66.985668882140274150
0.201000000000000040,65.918373202332873007
0.202000000000000041,64.851141250482370992
0.203000000000000042,63.784754274812442532
0.204000000000000042,62.719987290023972548
0.205000000000000043,61.657593480802276531
0.206000000000000044,60.598291729199047495
0.207000000000000045,59.542757075400814415
0.208000000000000046,58.491613870027812538
0.209000000000000047,57.445431342709106559
0.210000000000000048,56.404721293396320903
0.211000000000000049,55.369937607010818681
0.212000000000000050,54.341477296073755099
0.213000000000000050,53.319682787710839023
0.214000000000000051,52.304845188869784067
0.215000000000000052,51.297208285037342534
0.216000000000000053,50.296973051740280880
0.217000000000000054,49.304302483458890549
0.218000000000000055,48.319326570294293788
0.219000000000000056,47.342147278035611180
0.220000000000000057,46.372843411570912053
0.221000000000000058,45.411475264445030575
0.222000000000000058,44.458088978468481400
0.223000000000000059,43.512720556442488373
0.224000000000000060,42.575399488174760165
0.225000000000000061,41.646151964995326011
0.226000000000000062,40.725003670971091196
0.227000000000000063,39.811982150039604278
0.228000000000000064,38.907118757445672941
0.229000000000000065,38.010450211301204604
0.230000000000000066,37.122019765949609393
0.231000000000000066,36.241878033253719593
0.232000000000000067,35.370083481103009149
0.233000000000000068,34.506702640503554846
0.234000000000000069,33.651810053730002892
0.235000000000000070,32.805487996319953936
0.236000000000000071,31.967826005318734417
0.237000000000000072,31.138920245251902941
0.238000000000000073,30.318872741934647763
0.239000000000000073,29.507790512516816506
0.240000000000000074,28.705784618198066482
0.241000000000000075,27.912969163914386428
0.242000000000000076,27.129460267054490430
0.243000000000000077,26.355375014975198411
0.244000000000000078,25.590830428795946716
0.245000000000000079,24.835942448702674312
0.246000000000000080,24.090824953815751286
0.247000000000000081,23.355588827596378110
0.248000000000000081,22.630341077804867922
0.249000000000000082,21.915184018194025839
0.250000000000000111,21.210214517430291181
0.251000000000000112,20.515523319192471519
0.252000000000000113,19.831194436000792791
0.253000000000000114,19.157304618082982017
0.254000000000000115,18.493922897478707768
0.255000000000000115,17.841110206621159762
0.256000000000000116,17.198919069803714876
0.257000000000000117,16.567393365235520974
0.258000000000000118,15.946568154804632300
0.259000000000000119,15.336469578190584429
0.260000000000000120,14.737114807592496035
0.261000000000000121,14.148512059055629919
0.262000000000000122,13.570660656177585324
0.263000000000000123,13.003551141848936012
0.264000000000000123,12.447165433621377062
0.265000000000000124,11.901477018292753840
0.266000000000000125,11.366451181344666921
0.267000000000000126,10.842045266956990446
0.268000000000000127,10.328208964448098328
0.269000000000000128,9.824884617144849841
0.270000000000000129,9.332007549864680840
0.271000000000000130,8.849506411389594263
0.272000000000000131,8.377303528524457477
0.273000000000000131,7.915315268553436923
0.274000000000000132,7.463452407137344480
0.275000000000000133,7.021620498926177234
0.276000000000000134,6.589720248392663571
0.277000000000000135,6.167647878623319535
0.278000000000000136,5.755295496027985180
0.279000000000000137,5.352551449148639229
0.280000000000000138,4.959300679960698233
0.281000000000000139,4.575425066262371665
0.282000000000000139,4.200803753942155438
0.283000000000000140,3.835313478097285067
0.284000000000000141,3.478828872148960638
0.285000000000000142,3.131222764261195390
0.286000000000000143,2.792366460520441684
0.287000000000000144,2.462130014471962891
0.288000000000000145,2.140382482735941672
0.289000000000000146,1.826992166543588869
0.290000000000000147,1.521826839138090248
0.291000000000000147,1.224753959081358534
0.292000000000000148,0.935640869591670032
0.293000000000000149,0.654354984113582172
0.294000000000000150,0.380763958387038248
0.295000000000000151,0.114735849340603435
0.296000000000000152,-0.143860738817183753
0.297000000000000153,-0.395156520892132601
0.298000000000000154,-0.639281408934128992
0.299000000000000155,-0.876364401923445890
0.300000000000000155,-1.106533486413180167
0.301000000000000156,-1.329915547610672322
0.302000000000000157,-1.546636290369926670
0.303000000000000158,-1.756820169559780709
0.304000000000000159,-1.960590329270592180
0.305000000000000160,-2.158068550322973955
0.306000000000000161,-2.349375205546944567
0.307000000000000162,-2.534629222307139162
0.308000000000000163,-2.713948051759724756
0.309000000000000163,-2.887447644338883901
0.310000000000000164,-3.055242430984908886
0.311000000000000165,-3.217445309641442375
0.312000000000000166,-3.374167636566677508
0.313000000000000167,-3.525519222021143317
0.314000000000000168,-3.671608329913750079
0.315000000000000169,-3.812541681007217242
0.316000000000000170,-3.948424459304128220
0.317000000000000171,-4.079360321254732469
0.318000000000000171,-4.205451407448197898
0.319000000000000172,-4.326798356469225837
0.320000000000000173,-4.443500320621938116
0.321000000000000174,-4.555654983242747313
0.322000000000000175,-4.663358577343591271
0.323000000000000176,-4.766705905345643757
0.324000000000000177,-4.865790359682319988
0.325000000000000178,-4.960703944068028726
0.326000000000000179,-5.051537295246842696
0.327000000000000179,-5.138379705051391078
0.328000000000000180,-5.221319142618446207
0.329000000000000181,-5.300442276623039461
0.330000000000000182,-5.375834497406909662
0.331000000000000183,-5.447579938891456308
0.332000000000000184,-5.515761500177782217
0.333000000000000185,-5.580460866748984117
0.334000000000000186,-5.641758531201231719
0.335000000000000187,-5.699733813440895247
0.336000000000000187,-5.754464880295229179
0.337000000000000188,-5.806028764493015970
0.338000000000000189,-5.854501382980815904
0.339000000000000190,-5.899957554548031169
0.340000000000000191,-5.942471016741429857
0.341000000000000192,-5.982114442056638559
0.342000000000000193,-6.018959453400098525
0.343000000000000194,-6.053076638820753530
0.344000000000000195,-6.084535565515307276
0.345000000000000195,-6.113404793116165692
0.346000000000000196,-6.139751886274325443
0.347000000000000197,-6.163643426553722549
0.348000000000000198,-6.185145023656298591
0.349000000000000199,-6.204321325999851311
0.350000000000000200,-6.221236030673130912
0.351000000000000201,-6.235951892794480145
0.352000000000000202,-6.248530734302016221
0.353000000000000203,-6.259033452204692871
0.354000000000000203,-6.267520026324602256
0.355000000000000204,-6.274049526561486623
0.356000000000000205,-6.278680119711188112
0.357000000000000206,-6.281469075870002250
0.358000000000000207,-6.282472774456691056
0.359000000000000208,-6.281746709884298063
0.360000000000000209,-6.279345496913288471
0.361000000000000210,-6.275322875717182391
0.362000000000000210,-6.269731716691462786
0.363000000000000211,-6.262624025035593789
0.364000000000000212,-6.254050945137530348
0.365000000000000213,-6.244062764788894881
0.366000000000000214,-6.232708919258365121
0.367000000000000215,-6.220037995249501073
0.368000000000000216,-6.206097734768482255
0.369000000000000217,-6.190935038925784895
0.370000000000000218,-6.174595971694991192
0.371000000000000218,-6.157125763650405759
0.372000000000000219,-6.138568815704276815
0.373000000000000220,-6.118968702862985332
0.374000000000000221,-6.098368178020469266
0.375000000000000222,-6.076809175805704122
0.376000000000000223,-6.054332816500290093
0.377000000000000224,-6.030979410040496091
0.378000000000000225,-6.006788460117235218
0.379000000000000226,-5.981798668386136164
0.380000000000000226,-5.956047938798920249
0.381000000000000227,-5.929573382065798093
0.382000000000000228,-5.902411320258005745
0.383000000000000229,-5.874597291558122159
0.384000000000000230,-5.846166055164957243
0.385000000000000231,-5.817151596358920429
0.386000000000000232,-5.787587131732569112
0.387000000000000233,-5.757505114590387940
0.388000000000000234,-5.726937240520728167
0.389000000000000234,-5.695914453142255418
0.390000000000000235,-5.664466950026215031
0.391000000000000236,-5.632624188795285036
0.392000000000000237,-5.600414893398840910
0.393000000000000238,-5.567867060564087645
0.394000000000000239,-5.535007966421483516
0.395000000000000240,-5.501864173302701388
0.396000000000000241,-5.468461536708502990
0.397000000000000242,-5.434825212443483267
0.398000000000000242,-5.400979663914281304
0.399000000000000243,-5.366948669587175758
0.400000000000000244,-5.332755330600735810
0.401000000000000245,-5.298422078528892243
0.402000000000000246,-5.263970683289128871
0.403000000000000247,-5.229422261190609156
0.404000000000000248,-5.194797283116468378
0.405000000000000249,-5.160115582834364112
0.406000000000000250,-5.125396365429153889
0.407000000000000250,-5.090658215851421531
0.408000000000000251,-5.055919107575279625
0.409000000000000252,-5.021196411358925360
0.410000000000000253,-4.986506904101140059
0.411000000000000254,-4.951866777786969820
0.412000000000000255,-4.917291648515624836
0.413000000000000256,-4.882796565603766403
0.414000000000000257,-4.848396020757101965
0.415000000000000258,-4.814103957303450976
0.416000000000000258,-4.779933779480183276
0.417000000000000259,-4.745898361769244289
0.418000000000000260,-4.712010058272773527
0.419000000000000261,-4.678280712122544927
0.420000000000000262,-4.644721664916444226
0.421000000000000263,-4.611343766175346914
0.422000000000000264,-4.578157382813778931
0.423000000000000265,-4.545172408617849769
0.424000000000000266,-4.512398273724276265
0.425000000000000266,-4.479843954094005376
0.426000000000000267,-4.447517980974555307
0.427000000000000268,-4.415428450344997202
0.428000000000000269,-4.383583032337774910
0.429000000000000270,-4.351988980631789516
0.430000000000000271,-4.320653141811073183
0.431000000000000272,-4.289581964683895521
0.432000000000000273,-4.258781509556993861
0.433000000000000274,-4.228257457459988267
0.434000000000000274,-4.198015119315094523
0.435000000000000275,-4.168059445047527234
0.436000000000000276,-4.138395032632074866
0.437000000000000277,-4.109026137071514206
0.438000000000000278,-4.079956679302787492
0.439000000000000279,-4.051190255026958731
0.440000000000000280,-4.022730143459148699
0.441000000000000281,-3.994579315994872815
0.442000000000000282,-3.966740444789409903
0.443000000000000282,-3.939215911246812141
0.444000000000000283,-3.912007814415673579
0.445000000000000284,-3.885117979288595258
0.446000000000000285,-3.858547965002643743
0.447000000000000286,-3.832299072938390339
0.448000000000000287,-3.806372354714876671
0.449000000000000288,-3.780768620078528208
0.450000000000000289,-3.755488444683747762
0.451000000000000290,-3.730532177763370871
0.452000000000000290,-3.705899949687243122
0.453000000000000291,-3.681591679407183015
0.454000000000000292,-3.657607081787029646
0.455000000000000293,-3.633945674816312810
0.456000000000000294,-3.610606786706450411
0.457000000000000295,-3.587589562868432669
0.458000000000000296,-3.564892972770997037
0.459000000000000297,-3.542515816678645901
0.460000000000000298,-3.520456732268716138
0.461000000000000298,-3.498714201127097745
0.462000000000000299,-3.477286555122090839
0.463000000000000300,-3.456171982656120356
0.464000000000000301,-3.435368534795175233
0.465000000000000302,-3.414874131275842384
0.466000000000000303,-3.394686566389921722
0.467000000000000304,-3.374803514746828714
0.468000000000000305,-3.355222536913933684
0.469000000000000306,-3.335941084935140744
0.470000000000000306,-3.316956507728173076
0.471000000000000307,-3.298266056360923848
0.472000000000000308,-3.279866889207530445
0.473000000000000309,-3.261756076984771546
0.474000000000000310,-3.243930607669473609
0.475000000000000311,-3.226387391297708351
0.476000000000000312,-3.209123264646695617
0.477000000000000313,-3.192134995800189223
0.478000000000000314,-3.175419288598402723
0.479000000000000314,-3.158972786973502256
0.480000000000000315,-3.142792079171651043
0.481000000000000316,-3.126873701862864952
0.482000000000000317,-3.111214144139698767
0.483000000000000318,-3.095809851406114976
0.484000000000000319,-3.080657229157699017
0.485000000000000320,-3.065752646654563485
0.486000000000000321,-3.051092440488253565
0.487000000000000322,-3.036672918044041491
0.488000000000000322,-3.022490360859923619
0.489000000000000323,-3.008541027883886443
0.490000000000000324,-2.994821158630754709
0.491000000000000325,-2.981326976240154636
0.492000000000000326,-2.968054690437066601
0.493000000000000327,-2.955000500396503416
0.494000000000000328,-2.942160597513810760
0.495000000000000329,-2.929531168082143644
0.496000000000000330,-2.917108395878666105
0.497000000000000330,-2.904888464661083525
0.498000000000000331,-2.892867560575973052
0.499000000000000332,-2.881041874480632536
0.500000000000000333,-2.869407604179954774
0.501000000000000334,-2.857960956579877365
0.502000000000000335,-2.846698149759112617
0.503000000000000336,-2.835615414960662495
0.504000000000000337,-2.824708998504738666
0.505000000000000338,-2.813975163624682807
0.506000000000000338,-2.803410192227471676
0.507000000000000339,-2.793010386580387472
0.508000000000000340,-2.782772070925401575
0.509000000000000341,-2.772691593022936551
0.510000000000000342,-2.762765325626436841
0.511000000000000343,-2.752989667889403691
0.512000000000000344,-2.743361046706382034
0.513000000000000345,-2.733875917989452287
0.514000000000000346,-2.724530767881780058
0.515000000000000346,-2.715322113909645729
0.516000000000000347,-2.706246506074520664
0.517000000000000348,-2.697300527886687949
0.518000000000000349,-2.688480797341777251
0.519000000000000350,-2.679783967841778747
0.520000000000000351,-2.671206729061874174
0.521000000000000352,-2.662745807764601125
0.522000000000000353,-2.654397968562652643
0.523000000000000353,-2.646160014631763424
0.524000000000000354,-2.638028788375046840
0.525000000000000355,-2.630001172040107527
0.526000000000000356,-2.622074088290244021
0.527000000000000357,-2.614244500731137677
0.528000000000000358,-2.606509414394190483
0.529000000000000359,-2.598865876177947953
0.530000000000000360,-2.591310975248666715
0.531000000000000361,-2.583841843401458505
0.532000000000000361,-2.576455655383073307
0.533000000000000362,-2.569149629177610361
0.534000000000000363,-2.561921026256266387
0.535000000000000364,-2.554767151792332047
0.536000000000000365,-2.547685354842523342
0.537000000000000366,-2.540673028495798569
0.538000000000000367,-2.533727609990699570
0.539000000000000368,-2.526846580802382558
0.540000000000000369,-2.520027466700265784
0.541000000000000369,-2.513267837777468205
0.542000000000000370,-2.506565308452896268
0.543000000000000371,-2.499917537447108096
0.544000000000000372,-2.493322227732826857
0.545000000000000373,-2.486777126461131360
0.546000000000000374,-2.480280024864160104
0.547000000000000375,-2.473828758135337758
0.548000000000000376,-2.467421205287957164
0.549000000000000377,-2.461055288992992196
0.550000000000000377,-2.454728975397011403
0.551000000000000378,-2.448440273920997612
0.552000000000000379,-2.442187237040921222
0.553000000000000380,-2.435967960050828385
0.554000000000000381,-2.429780580809221213
0.555000000000000382,-2.423623279469539149
0.556000000000000383,-2.417494278195365442
0.557000000000000384,-2.411391840861225155
0.558000000000000385,-2.405314272739532466
0.559000000000000385,-2.399259920174489746
0.560000000000000386,-2.393227170243515722
0.561000000000000387,-2.387214450406914157
0.562000000000000388,-2.381220228146351481
0.563000000000000389,-2.375243010592850368
0.564000000000000390,-2.369281344144785528
0.565000000000000391,-2.363333814076553629
0.566000000000000392,-2.357399044138422717
0.567000000000000393,-2.351475696148176642
0.568000000000000393,-2.345562469574996811
0.569000000000000394,-2.339658101116182998
0.570000000000000395,-2.333761364267187055
0.571000000000000396,-2.327871068885410732
0.572000000000000397,-2.321986060748333358
0.573000000000000398,-2.316105221106310452
0.574000000000000399,-2.310227466230603266
0.575000000000000400,-2.304351746956975866
0.576000000000000401,-2.298477048225334496
0.577000000000000401,-2.292602388615827103
0.578000000000000402,-2.286726819881726325
0.579000000000000403,-2.280849426479515163
0.580000000000000404,-2.274969325096598549
0.581000000000000405,-2.269085664176853978
0.582000000000000406,-2.263197623444535900
0.583000000000000407,-2.257304413426692857
0.584000000000000408,-2.251405274974564108
0.585000000000000409,-2.245499478784160452
0.586000000000000409,-2.239586324916377880
0.587000000000000410,-2.233665142316916707
0.588000000000000411,-2.227735288336256225
0.589000000000000412,-2.221796148250022362
0.590000000000000413,-2.215847134779894922
0.591000000000000414,-2.209887687615391005
0.592000000000000415,-2.203917272936731564
0.593000000000000416,-2.197935382938983828
0.594000000000000417,-2.191941535357732285
0.595000000000000417,-2.185935272996518464
0.596000000000000418,-2.179916163256122363
0.597000000000000419,-2.173883797666050999
0.598000000000000420,-2.167837791418254945
0.599000000000000421,-2.161777782903363310
0.600000000000000422,-2.155703433249526402
0.601000000000000423,-2.149614425864072143
0.602000000000000424,-2.143510465978102353
0.603000000000000425,-2.137391280194187893
0.604000000000000425,-2.131256616037281226
0.605000000000000426,-2.125106241508974758
0.606000000000000427,-2.118939944645304330
0.607000000000000428,-2.112757533078009509
0.608000000000000429,-2.106558833599696978
0.609000000000000430,-2.100343691732608153
0.610000000000000431,-2.094111971301455988
0.611000000000000432,-2.087863554010181311
0.612000000000000433,-2.081598339022788124
