# Montmorillonite-001-NaCEC90_BSAI13
# h[nm],U(h)[kJ/mol]
0.149999999999999994,77.809142989713592442
0.150999999999999995,75.908423864793590496
0.151999999999999996,74.165969355965756904
0.152999999999999997,72.453327594171810233
0.153999999999999998,70.732741785952612190
0.154999999999999999,69.005990714746445747
0.156000000000000000,67.287639857973715607
0.157000000000000001,65.592444735750461859
0.158000000000000002,63.930558988588188640
0.159000000000000002,62.306727562287036903
0.160000000000000003,60.721251667161617149
0.161000000000000004,59.171511137626865207
0.162000000000000005,57.653433879014279739
0.163000000000000006,56.162653583331106688
0.164000000000000007,54.695290191043184791
0.165000000000000008,53.248384448397338531
0.166000000000000009,51.820058174733276246
0.167000000000000010,50.409480672571916671
0.168000000000000010,49.016714581635639547
0.169000000000000011,47.642500611160350843
0.170000000000000012,46.288025187989305209
0.171000000000000013,44.954700836253991270
0.172000000000000014,43.643977253598798427
0.173000000000000015,42.357191893743213029
0.174000000000000016,41.095462263263293323
0.175000000000000017,39.859617729887204973
0.176000000000000018,38.650165985156611725
0.177000000000000018,37.467287978835045692
0.178000000000000019,36.310854767439622037
0.179000000000000020,35.180459981011878767
0.180000000000000021,34.075462263867692059
0.181000000000000022,32.995032901115273205
0.182000000000000023,31.938204770360719920
0.183000000000000024,30.903919667208811006
0.184000000000000025,29.891071887324805800
0.185000000000000026,28.898546675474857892
0.186000000000000026,27.925252759739066732
0.187000000000000027,26.970148676086932227
0.188000000000000028,26.032262961876902807
0.189000000000000029,25.110708568498147031
0.190000000000000030,24.204692027554763456
0.191000000000000031,23.313518016591991966
0.192000000000000032,22.436590023795030646
0.193000000000000033,21.573407819595807666
0.194000000000000034,20.723562418394443796
0.195000000000000034,19.886729165619584592
0.196000000000000035,19.062659522383910371
0.197000000000000036,18.251172048687426042
0.198000000000000037,17.452143011662059280
0.199000000000000038,16.665496971636216017
0.200000000000000039,15.891197628631852368
0.201000000000000040,15.129239147187984571
0.202000000000000041,14.379638119300039989
0.203000000000000042,13.642426274365297090
0.204000000000000042,12.917644001478430837
0.205000000000000043,12.205334713056705809
0.206000000000000044,11.505540049184144635
0.207000000000000045,10.818295898698382373
0.208000000000000046,10.143629195258693443
0.209000000000000047,9.481555433747059780
0.210000000000000048,8.832076843680795264
0.211000000000000049,8.195181151191176738
0.212000000000000050,7.570840858922762706
0.213000000000000050,6.959012973365029886
0.214000000000000051,6.359639111124751665
0.215000000000000052,5.772645919036321516
0.216000000000000053,5.197945747396836680
0.217000000000000054,4.635437520671735534
0.218000000000000055,4.085007755469382218
0.219000000000000056,3.546531681204991848
0.220000000000000057,3.019874424481198361
0.221000000000000058,2.504892223671364881
0.222000000000000058,2.001433645387797888
0.223000000000000059,1.509340779383669062
0.224000000000000060,1.028450392917234613
0.225000000000000061,0.558595029673368826
0.226000000000000062,0.099604041976643382
0.227000000000000063,-0.348695451758281094
0.228000000000000064,-0.786477689596996488
0.229000000000000065,-1.213917471537683923
0.230000000000000066,-1.631189448681739318
0.231000000000000066,-2.038467495281782060
0.232000000000000067,-2.435924161462883042
0.233000000000000068,-2.823730203335313327
0.234000000000000069,-3.202054186391895652
0.235000000000000070,-3.571062157480852761
0.236000000000000071,-3.930917380235255276
0.237000000000000072,-4.281780128597117319
0.238000000000000073,-4.623807532969852474
0.239000000000000073,-4.957153473544200217
0.240000000000000074,-5.281968515450865986
0.241000000000000075,-5.598399880574144838
0.242000000000000076,-5.906591451101992796
0.243000000000000077,-6.206683800172230647
0.244000000000000078,-6.498814245289212366
0.245000000000000079,-6.783116920519674409
0.246000000000000080,-7.059722863820299565
0.247000000000000081,-7.328760116196875174
0.248000000000000081,-7.590353829736633529
0.249000000000000082,-7.844626381888676114
0.250000000000000111,-8.091697493687206588
0.251000000000000112,-8.331684349915260412
0.252000000000000113,-8.564701719492081367
0.253000000000000114,-8.790862074630636513
0.254000000000000115,-9.010275707556591129
0.255000000000000115,-9.223050843801326337
0.256000000000000116,-9.429293751283150726
0.257000000000000117,-9.629108844570671621
0.258000000000000118,-9.822598783882217077
0.259000000000000119,-10.009864568515723704
0.260000000000000120,-10.191005624526260576
0.261000000000000121,-10.366119886573255116
0.262000000000000122,-10.535303873949265707
0.263000000000000123,-10.698652760876930401
0.264000000000000123,-10.856260441222572055
0.265000000000000124,-11.008219587824337182
0.266000000000000125,-11.154621706671907333
0.267000000000000126,-11.295557186203831534
0.268000000000000127,-11.431115342009752212
0.269000000000000128,-11.561384457237922518
0.270000000000000129,-11.686451819015648113
0.271000000000000130,-11.806403751192165785
0.272000000000000131,-11.921325643710215303
0.273000000000000131,-12.031301978906043360
0.274000000000000132,-12.136416355027701997
0.275000000000000133,-12.236751507249142179
0.276000000000000134,-12.332389326443635724
0.277000000000000135,-12.423410875964014721
0.278000000000000136,-12.509896406661111357
0.279000000000000137,-12.591925370354534408
0.280000000000000138,-12.669576431952197737
0.281000000000000139,-12.742927480398240192
0.282000000000000139,-12.812055638611354880
0.283000000000000140,-12.877037272559316960
0.284000000000000141,-12.937947999599217042
0.285000000000000142,-12.994862696197818863
0.286000000000000143,-13.047855505132044840
0.287000000000000144,-13.096999842255746316
0.288000000000000145,-13.142368402907001368
0.289000000000000146,-13.184033168017823101
0.290000000000000147,-13.222065409978222661
0.291000000000000147,-13.256535698296417536
0.292000000000000148,-13.287513905088832900
0.293000000000000149,-13.315069210425416912
0.294000000000000150,-13.339270107549200617
0.295000000000000151,-13.360184407983050292
0.296000000000000152,-13.377879246531454882
0.297000000000000153,-13.392421086180799961
0.298000000000000154,-13.403875722897987899
0.299000000000000155,-13.412308290324242321
0.300000000000000155,-13.417783264358684292
0.301000000000000156,-13.420364467624221305
0.302000000000000157,-13.420115073807332706
0.303000000000000158,-13.417097611862084605
0.304000000000000159,-13.411373970068675376
0.305000000000000160,-13.403005399936224862
0.306000000000000161,-13.392052519940188304
0.307000000000000162,-13.378575319084944795
0.308000000000000163,-13.362633160282836542
0.309000000000000163,-13.344284783541942474
0.310000000000000164,-13.323588308955731208
0.311000000000000165,-13.300601239488930361
0.312000000000000166,-13.275380463555247701
0.313000000000000167,-13.247982257383778659
0.314000000000000168,-13.218462287172219050
0.315000000000000169,-13.186875611026511734
0.316000000000000170,-13.153276680687735478
0.317000000000000171,-13.117719343048429792
0.318000000000000171,-13.080256841461784134
0.319000000000000172,-13.040941816848439672
0.320000000000000173,-12.999826308606824199
0.321000000000000174,-12.956961755333827213
0.322000000000000175,-12.912398995364062770
0.323000000000000176,-12.866188267136582368
0.324000000000000177,-12.818379209398978347
0.325000000000000178,-12.769020861259363642
0.326000000000000179,-12.718161662097864806
0.327000000000000179,-12.665849451349339816
0.328000000000000180,-12.612131468169893722
0.329000000000000181,-12.557054351000244807
0.330000000000000182,-12.500664137038967283
0.331000000000000183,-12.443006261639419918
0.332000000000000184,-12.384125557643855586
0.333000000000000185,-12.324066254668711196
0.334000000000000186,-12.262871978354819902
0.335000000000000187,-12.200585749596418950
0.336000000000000187,-12.137249983762719907
0.337000000000000188,-12.072906489925362195
0.338000000000000189,-12.007596470105376341
0.339000000000000190,-11.941360518552434300
0.340000000000000191,-11.874238621069146404
0.341000000000000192,-11.806270154392800364
0.342000000000000193,-11.737493885646321345
0.343000000000000194,-11.667947971870052726
0.344000000000000195,-11.597669959645038773
0.345000000000000195,-11.526696784818650343
0.346000000000000196,-11.455064772342080204
0.347000000000000197,-11.382809636229252348
0.348000000000000198,-11.309966479645945370
0.349000000000000199,-11.236569795137111072
0.350000000000000200,-11.162653465000262898
0.351000000000000201,-11.088250761811632827
0.352000000000000202,-11.013394349111692350
0.353000000000000203,-10.938116282255659684
0.354000000000000203,-10.862448009434292118
0.355000000000000204,-10.786420372869372386
0.356000000000000205,-10.710063610187974703
0.357000000000000206,-10.633407355978928166
0.358000000000000207,-10.556480643534104757
0.359000000000000208,-10.479311906776988650
0.360000000000000209,-10.401928982380129085
0.361000000000000210,-10.324359112072636790
0.362000000000000210,-10.246628945138411382
0.363000000000000211,-10.168764541105224097
0.364000000000000212,-10.090791372624376976
0.365000000000000213,-10.012734328540066286
0.366000000000000214,-9.934617717147300908
0.367000000000000215,-9.856465269636665028
0.368000000000000216,-9.778300143723901883
0.369000000000000217,-9.700144927461865407
0.370000000000000218,-9.622021643232050891
0.371000000000000218,-9.543951751912596038
0.372000000000000219,-9.465956157219224565
0.373000000000000220,-9.388055210215462409
0.374000000000000221,-9.310268713988129718
0.375000000000000222,-9.232615928483687284
0.376000000000000223,-9.155115575501104885
0.377000000000000224,-9.077785843836409185
0.378000000000000225,-9.000644394574038643
0.379000000000000226,-8.923708366519869983
0.380000000000000226,-8.846994381770793225
0.381000000000000227,-8.770518551415220188
0.382000000000000228,-8.694296481359248929
0.383000000000000229,-8.618343278272774910
0.384000000000000230,-8.542673555649752615
0.385000000000000231,-8.467301439977072519
0.386000000000000232,-8.392240577005996016
0.387000000000000233,-8.317504138120449753
0.388000000000000234,-8.243104826796129103
0.389000000000000234,-8.169054885144722888
0.390000000000000235,-8.095366100537114917
0.391000000000000236,-8.022049812299881566
0.392000000000000237,-7.949116918479037786
0.393000000000000238,-7.876577882665347197
0.394000000000000239,-7.804442740875312090
0.395000000000000240,-7.732721108482110139
0.396000000000000241,-7.661422187190900956
0.397000000000000242,-7.590554772052736432
0.398000000000000242,-7.520127258511730695
0.399000000000000243,-7.450147649479946566
0.400000000000000244,-7.380623562434633911
0.401000000000000245,-7.311562236532703096
0.402000000000000246,-7.242970539737205726
0.403000000000000247,-7.174854975950746727
0.404000000000000248,-7.107221692151059145
0.405000000000000249,-7.040076485523854899
0.406000000000000250,-6.973424810588272571
0.407000000000000250,-6.907271786310461792
0.408000000000000251,-6.841622203200754093
0.409000000000000252,-6.776480530390334600
0.410000000000000253,-6.711850922683043841
0.411000000000000254,-6.647737227578465635
0.412000000000000255,-6.584142992262350447
0.413000000000000256,-6.521071470560639405
0.414000000000000257,-6.458525629853490102
0.415000000000000258,-6.396508157945854478
0.416000000000000258,-6.335021469891261248
0.417000000000000259,-6.274067714765612536
0.418000000000000260,-6.213648782388011327
0.419000000000000261,-6.153766309985574168
0.420000000000000262,-6.094421688799584125
0.421000000000000263,-6.035616070630302588
0.422000000000000264,-5.977350374317873971
0.423000000000000265,-5.919625292156993623
0.424000000000000266,-5.862441296243157574
0.425000000000000266,-5.805798644748234594
0.426000000000000267,-5.749697388123481190
0.427000000000000268,-5.694137375228118358
0.428000000000000269,-5.639118259381656451
0.429000000000000270,-5.584639504338470672
0.430000000000000271,-5.530700390182977877
0.431000000000000272,-5.477300019144147214
0.432000000000000273,-5.424437321327975958
0.433000000000000274,-5.372111060366853152
0.434000000000000274,-5.320319838984642224
0.435000000000000275,-5.269062104476615715
0.436000000000000276,-5.218336154103388580
0.437000000000000277,-5.168140140397996518
0.438000000000000278,-5.118472076385577552
0.439000000000000279,-5.069329840715044888
0.440000000000000280,-5.020711182702255471
0.441000000000000281,-4.972613727284299401
0.442000000000000282,-4.925034979884662434
0.443000000000000282,-4.877972331188938249
0.444000000000000283,-4.831423061831044308
0.445000000000000284,-4.785384346989834725
0.446000000000000285,-4.739853260896077281
0.447000000000000286,-4.694826781250004188
0.448000000000000287,-4.650301793549390439
0.449000000000000288,-4.606275095328582481
0.450000000000000289,-4.562743400308578501
0.451000000000000290,-4.519703342458576856
0.452000000000000290,-4.477151479969402104
0.453000000000000291,-4.435084299139171904
0.454000000000000292,-4.393498218171812297
0.455000000000000293,-4.352389590888857462
0.456000000000000294,-4.311754710355203635
0.457000000000000295,-4.271589812419443355
0.458000000000000296,-4.231891079169425751
0.459000000000000297,-4.192654642303816459
0.460000000000000298,-4.153876586420357064
0.461000000000000298,-4.115552952221682048
0.462000000000000299,-4.077679739639466838
0.463000000000000300,-4.040252910877797810
0.464000000000000301,-4.003268393376623990
0.465000000000000302,-3.966722082696267471
0.466000000000000303,-3.930609845323843388
0.467000000000000304,-3.894927521402618886
0.468000000000000305,-3.859670927385290717
0.469000000000000306,-3.824835858612147810
0.470000000000000306,-3.790418091815221491
0.471000000000000307,-3.756413387549330629
0.472000000000000308,-3.722817492551261154
0.473000000000000309,-3.689626142027960132
0.474000000000000310,-3.656835061874973203
0.475000000000000311,-3.624439970826097923
0.476000000000000312,-3.592436582535508016
0.477000000000000313,-3.560820607593249143
0.478000000000000314,-3.529587755475406485
0.479000000000000314,-3.498733736429985974
0.480000000000000315,-3.468254263299596740
0.481000000000000316,-3.438145053282165797
0.482000000000000317,-3.408401829630697932
0.483000000000000318,-3.379020323293306038
0.484000000000000319,-3.349996274494559056
0.485000000000000320,-3.321325434259372322
0.486000000000000321,-3.293003565880468386
0.487000000000000322,-3.265026446330605125
0.488000000000000322,-3.237389867620625417
0.489000000000000323,-3.210089638104534515
0.490000000000000324,-3.183121583732615001
0.491000000000000325,-3.156481549253768559
0.492000000000000326,-3.130165399368101564
0.493000000000000327,-3.104169019830930409
0.494000000000000328,-3.078488318509217780
0.495000000000000329,-3.053119226391558083
0.496000000000000330,-3.028057698552748533
0.497000000000000330,-3.003299715074033038
0.498000000000000331,-2.978841281920014072
0.499000000000000332,-2.954678431773344105
0.500000000000000333,-2.930807224828138935
0.501000000000000334,-2.907223749543185409
0.502000000000000335,-2.883924123355907199
0.503000000000000336,-2.860904493358123357
0.504000000000000337,-2.838161036934518044
0.505000000000000338,-2.815689962364843701
0.506000000000000338,-2.793487509390781387
0.507000000000000339,-2.771549949748388197
0.508000000000000340,-2.749873587667089225
0.509000000000000341,-2.728454760336111562
0.510000000000000342,-2.707289838339258292
0.511000000000000343,-2.686375226058911991
0.512000000000000344,-2.665707362050135920
0.513000000000000345,-2.645282719385738890
0.514000000000000346,-2.625097805973170217
0.515000000000000346,-2.605149164844015264
0.516000000000000347,-2.585433374416964636
0.517000000000000348,-2.565947048735066183
0.518000000000000349,-2.546686837677973880
0.519000000000000350,-2.527649427150067130
0.520000000000000351,-2.508831539245127917
0.521000000000000352,-2.490229932388359657
0.522000000000000353,-2.471841401456475573
0.523000000000000353,-2.453662777876533418
0.524000000000000354,-2.435690929704318997
0.525000000000000355,-2.417922761682844257
0.526000000000000356,-2.400355215281735788
0.527000000000000357,-2.382985268718145644
0.528000000000000358,-2.365809936959792914
0.529000000000000359,-2.348826271710846125
0.530000000000000360,-2.332031361381204260
0.531000000000000361,-2.315422331039826087
0.532000000000000361,-2.298996342352673139
0.533000000000000362,-2.282750593505873837
0.534000000000000363,-2.266682319114668775
0.535000000000000364,-2.250788790118674054
0.536000000000000365,-2.235067313664040878
0.537000000000000366,-2.219515232973023888
0.538000000000000367,-2.204129927201446293
0.539000000000000368,-2.188908811284651978
0.540000000000000369,-2.173849335772322533
0.541000000000000369,-2.158948986652748925
0.542000000000000370,-2.144205285166959740
0.543000000000000371,-2.129615787613168276
0.544000000000000372,-2.115178085142036757
0.545000000000000373,-2.100889803543121381
0.546000000000000374,-2.086748603022972492
0.547000000000000375,-2.072752177975264676
0.548000000000000376,-2.058898256743411981
0.549000000000000377,-2.045184601375998668
0.550000000000000377,-2.031609007375425158
0.551000000000000378,-2.018169303440170204
0.552000000000000379,-2.004863351200977473
0.553000000000000380,-1.991689044951363785
0.554000000000000381,-1.978644311372737663
0.555000000000000382,-1.965727109254520100
0.556000000000000383,-1.952935429209515350
0.557000000000000384,-1.940267293384912550
0.558000000000000385,-1.927720755169158862
0.559000000000000385,-1.915293898895049862
0.560000000000000386,-1.902984839539270778
0.561000000000000387,-1.890791722418707410
0.562000000000000388,-1.878712722883756570
0.563000000000000389,-1.866746046008928017
0.564000000000000390,-1.854889926280948842
0.565000000000000391,-1.843142627284654278
0.566000000000000392,-1.831502441386859470
0.567000000000000393,-1.819967689418475087
0.568000000000000393,-1.808536720355047311
0.569000000000000394,-1.797207910995967328
0.570000000000000395,-1.785979665642538849
0.571000000000000396,-1.774850415775089063
0.572000000000000397,-1.763818619729353498
0.573000000000000398,-1.752882762372256042
0.574000000000000399,-1.742041354777332129
0.575000000000000400,-1.731292933899902353
0.576000000000000401,-1.720636062252195231
0.577000000000000401,-1.710069327578587650
0.578000000000000402,-1.699591342531073579
0.579000000000000403,-1.689200744345137339
0.580000000000000404,-1.678896194516183993
0.581000000000000405,-1.668676378476620759
0.582000000000000406,-1.658540005273760443
0.583000000000000407,-1.648485807248638135
0.584000000000000408,-1.638512539715894167
0.585000000000000409,-1.628618980644800374
0.586000000000000409,-1.618803930341571995
0.587000000000000410,-1.609066211133052038
0.588000000000000411,-1.599404667051868678
0.589000000000000412,-1.589818163523171846
0.590000000000000413,-1.580305587053025151
0.591000000000000414,-1.570865844918547527
0.592000000000000415,-1.561497864859906270
0.593000000000000416,-1.552200594774190368
0.594000000000000417,-1.542973002411291095
0.595000000000000417,-1.533814075071851635
0.596000000000000418,-1.524722819307296140
0.597000000000000419,-1.515698260622107663
0.598000000000000420,-1.506739443178302551
0.599000000000000421,-1.497845429502240755
0.600000000000000422,-1.489015300193782476
0.601000000000000423,-1.480248153637861552
0.602000000000000424,-1.471543105718505107
0.603000000000000425,-1.462899289535368297
0.604000000000000425,-1.454315855122798595
0.605000000000000426,-1.445791969171481339
0.606000000000000427,-1.437326814752726944
0.607000000000000428,-1.428919591045352266
0.608000000000000429,-1.420569513065318645
0.609000000000000430,-1.412275811397996295
0.610000000000000431,-1.404037731933238664
