# Montmorillonite-001-NaCEC90_BSAIV3
# h[nm],U(h)[kJ/mol]
0.149999999999999994,80.509319786523377616
0.150999999999999995,78.656534881610028265
0.151999999999999996,76.907836036810707014
0.152999999999999997,75.149187254880501996
0.153999999999999998,73.360020562326070603
0.154999999999999999,71.556213108128602585
0.156000000000000000,69.761675771339938024
0.157000000000000001,67.996092340457124692
0.158000000000000002,66.271227853133041208
0.159000000000000002,64.591342512566171763
0.160000000000000003,62.955201198632117610
0.161000000000000004,61.358362373709248061
0.162000000000000005,59.795135585440220893
0.163000000000000006,58.259994186253365456
0.164000000000000007,56.748437793531749662
0.165000000000000008,55.257394088502998386
0.166000000000000009,53.785280540980622277
0.167000000000000010,52.331843822220641016
0.168000000000000010,50.897876249688678740
0.169000000000000011,49.484885085824565465
0.170000000000000012,48.094767525733956859
0.171000000000000013,46.729524433843117492
0.172000000000000014,45.391030270328272422
0.173000000000000015,44.080865172217258419
0.174000000000000016,42.800207335331755587
0.175000000000000017,41.549779009765991589
0.176000000000000018,40.329836878889558704
0.177000000000000018,39.140196707740727788
0.178000000000000019,37.980282388341663591
0.179000000000000020,36.849190452694585929
0.180000000000000021,35.745762447400309725
0.181000000000000022,34.668659034706124089
0.182000000000000023,33.616431144620548821
0.183000000000000024,32.587584850675810344
0.184000000000000025,31.580637820851269026
0.185000000000000026,30.594166179676868467
0.186000000000000026,29.626841404130413338
0.187000000000000027,28.677457475422773570
0.188000000000000028,27.744948940412335503
0.189000000000000029,26.828400823744409820
0.190000000000000030,25.927051499699565795
0.191000000000000031,25.040289705287484878
0.192000000000000032,24.167646875545511165
0.193000000000000033,23.308785927887814893
0.194000000000000034,22.463487531409931819
0.195000000000000034,21.631634783072463790
0.196000000000000035,20.813197086713429940
0.197000000000000036,20.008213901415551561
0.198000000000000037,19.216778899254027380
0.199000000000000038,18.439024953388425843
0.200000000000000039,17.675110268829563154
0.201000000000000040,16.925205871765221843
0.202000000000000041,16.189484589863965880
0.203000000000000042,15.468111585560915699
0.204000000000000042,14.761236446497440156
0.205000000000000043,14.068986791207782616
0.206000000000000044,13.391463312750294889
0.207000000000000045,12.728736157074667545
0.208000000000000046,12.080842515250781233
0.209000000000000047,11.447785298025134892
0.210000000000000048,10.829532756333408727
0.211000000000000049,10.226018911286153923
0.212000000000000050,9.637144660756209902
0.213000000000000050,9.062779436149044798
0.214000000000000051,8.502763291450440519
0.215000000000000052,7.956909316561258549
0.216000000000000053,7.425006277686857281
0.217000000000000054,6.906821398691183944
0.218000000000000055,6.402103208483064023
0.219000000000000056,5.910584390386638631
0.220000000000000057,5.431984579835473781
0.221000000000000058,4.966013066467850123
0.222000000000000058,4.512371365672079193
0.223000000000000059,4.070755632777513178
0.224000000000000060,3.640858900372175633
0.225000000000000061,3.222373125651247783
0.226000000000000062,2.814991040279958057
0.227000000000000063,2.418407800024394483
0.228000000000000064,2.032322435412557748
0.229000000000000065,1.656439107989608361
0.230000000000000066,1.290468179388288616
0.231000000000000066,0.934127102508944818
0.232000000000000067,0.587141145658973018
0.233000000000000068,0.249243961600087605
0.234000000000000069,-0.079821985845681093
0.235000000000000070,-0.400305124616803121
0.236000000000000071,-0.712444593567636675
0.237000000000000072,-1.016470165026246653
0.238000000000000073,-1.312602258174402348
0.239000000000000073,-1.601052031173837875
0.240000000000000074,-1.882021540585801178
0.241000000000000075,-2.155703957337953725
0.242000000000000076,-2.422283829259862298
0.243000000000000077,-2.681937381010778498
0.244000000000000078,-2.934832843041744077
0.245000000000000079,-3.181130802052237971
0.246000000000000080,-3.420984566205250932
0.247000000000000081,-3.654540539144807809
0.248000000000000081,-3.881938597605670616
0.249000000000000082,-4.103312468111862010
0.250000000000000111,-4.318790098923410703
0.251000000000000112,-4.528494024005690122
0.252000000000000113,-4.732541716363040329
0.253000000000000114,-4.931045928594005368
0.254000000000000115,-5.124115018994300108
0.255000000000000115,-5.311853261951986482
0.256000000000000116,-5.494361141752351685
0.257000000000000117,-5.671735629237913301
0.258000000000000118,-5.844070441054283194
0.259000000000000119,-6.011456281458908535
0.260000000000000120,-6.173981066879138169
0.261000000000000121,-6.331730133580826703
0.262000000000000122,-6.484786428953603021
0.263000000000000123,-6.633230687034409989
0.264000000000000123,-6.777141588982277476
0.265000000000000124,-6.916595909284946053
0.266000000000000125,-7.051668648526485228
0.267000000000000126,-7.182433153575201956
0.268000000000000127,-7.308961226066793770
0.269000000000000128,-7.431323220059529611
0.270000000000000129,-7.549588129729277952
0.271000000000000130,-7.663823667954057228
0.272000000000000131,-7.774096336611490798
0.273000000000000131,-7.880471489380502348
0.274000000000000132,-7.983013387801380034
0.275000000000000133,-8.081785251307778140
0.276000000000000134,-8.176849301900864120
0.277000000000000135,-8.268266804090638189
0.278000000000000136,-8.356098100683878371
0.279000000000000137,-8.440402644952026634
0.280000000000000138,-8.521239029666526577
0.281000000000000139,-8.598665013444726668
0.282000000000000139,-8.672737544805718457
0.283000000000000140,-8.743512784293955065
0.284000000000000141,-8.811046124988418882
0.285000000000000142,-8.875392211677461063
0.286000000000000143,-8.936604958943860311
0.287000000000000144,-8.994737568371244052
0.288000000000000145,-9.049842545052609211
0.289000000000000146,-9.101971713552774901
0.290000000000000147,-9.151176233450915021
0.291000000000000147,-9.197506614565515548
0.292000000000000148,-9.241012731942760183
0.293000000000000149,-9.281743840670170442
0.294000000000000150,-9.319748590560305246
0.295000000000000151,-9.355075040734357472
0.296000000000000152,-9.387770674122306147
0.297000000000000153,-9.417882411885136307
0.298000000000000154,-9.445456627754834855
0.299000000000000155,-9.470539162280022794
0.300000000000000155,-9.493175336958309174
0.301000000000000156,-9.513409968231174574
0.302000000000000157,-9.531287381313214624
0.303000000000000158,-9.546851423824348259
0.304000000000000159,-9.560145479191806572
0.305000000000000160,-9.571212479787192251
0.306000000000000161,-9.580094919763908479
0.307000000000000162,-9.586834867560193985
0.308000000000000163,-9.591473978033977943
0.309000000000000163,-9.594053504197100679
0.310000000000000164,-9.594614308518263357
0.311000000000000165,-9.593196873766030919
0.312000000000000166,-9.589841313365852216
0.313000000000000167,-9.584587381247464677
0.314000000000000168,-9.577474481161898368
0.315000000000000169,-9.568541675450337181
0.316000000000000170,-9.557827693249855372
0.317000000000000171,-9.545370938124268179
0.318000000000000171,-9.531209495111081509
0.319000000000000172,-9.515381137178877680
0.320000000000000173,-9.497923331091973509
0.321000000000000174,-9.478873242682267275
0.322000000000000175,-9.458267741530878681
0.323000000000000176,-9.436143405064701284
0.324000000000000177,-9.412536522075560796
0.325000000000000178,-9.387483095671777633
0.326000000000000179,-9.361018845674477618
0.327000000000000179,-9.333179210472566822
0.328000000000000180,-9.303999348352339993
0.329000000000000181,-9.273514138319509215
0.330000000000000182,-9.241758180432521286
0.331000000000000183,-9.208765795667815723
0.332000000000000184,-9.174571025338565278
0.333000000000000185,-9.139207630089527967
0.334000000000000186,-9.102709088491536704
0.335000000000000187,-9.065108595259768975
0.336000000000000187,-9.026439059120621167
0.337000000000000188,-8.986733100352187975
0.338000000000000189,-8.946023048023954871
0.339000000000000190,-8.904340936961194330
0.340000000000000191,-8.861718504459648926
0.341000000000000192,-8.818187186776167863
0.342000000000000193,-8.773778115420510559
0.343000000000000194,-8.728522113273545102
0.344000000000000195,-8.682449690556360622
0.345000000000000195,-8.635591040674770014
0.346000000000000196,-8.587976035962752164
0.347000000000000197,-8.539634223348061326
0.348000000000000198,-8.490594819962490547
0.349000000000000199,-8.440886708718501552
0.350000000000000200,-8.390538433873349078
0.351000000000000201,-8.339578196600834659
0.352000000000000202,-8.288033850590135643
0.353000000000000203,-8.235932897690249277
0.354000000000000203,-8.183302483617758583
0.355000000000000204,-8.130169393744555606
0.356000000000000205,-8.076560048981509254
0.357000000000000206,-8.022500501773018655
0.358000000000000207,-7.968016432216259659
0.359000000000000208,-7.913133144318460488
0.360000000000000209,-7.857875562404186276
0.361000000000000210,-7.802268227683964774
0.362000000000000210,-7.746335294994499243
0.363000000000000211,-7.690100529719991584
0.364000000000000212,-7.633587304903102222
0.365000000000000213,-7.576818598553202833
0.366000000000000214,-7.519816991158828401
0.367000000000000215,-7.462604663410320249
0.368000000000000216,-7.405203394137923389
0.369000000000000217,-7.347634558469735566
0.370000000000000218,-7.289919126213304068
0.371000000000000218,-7.232077660463748892
0.372000000000000219,-7.174130316440754385
0.373000000000000220,-7.116096840556058289
0.374000000000000221,-7.057996569712395640
0.375000000000000222,-6.999848430834221702
0.376000000000000223,-6.941670940630092268
0.377000000000000224,-6.883482205585858438
0.378000000000000225,-6.825299922187399559
0.379000000000000226,-6.767141377371122424
0.380000000000000226,-6.709023449200005373
0.381000000000000227,-6.650962607762387790
0.382000000000000228,-6.592974916290555321
0.383000000000000229,-6.535076032495545917
0.384000000000000230,-6.477281210114341548
0.385000000000000231,-6.419605300665369718
0.386000000000000232,-6.362062755407762893
0.387000000000000233,-6.304667627499693339
0.388000000000000234,-6.247433574350750973
0.389000000000000234,-6.190373860163242981
0.390000000000000235,-6.133501358656868518
0.391000000000000236,-6.076828555971287571
0.392000000000000237,-6.020367553740731736
0.393000000000000238,-5.964130072334862476
0.394000000000000239,-5.908127454259721745
0.395000000000000240,-5.852370667712810004
0.396000000000000241,-5.796870310285978434
0.397000000000000242,-5.741636612809910112
0.398000000000000242,-5.686679443333925832
0.399000000000000243,-5.632008311234703690
0.400000000000000244,-5.577632371447551307
0.401000000000000245,-5.523560428813974355
0.402000000000000246,-5.469800942539063904
0.403000000000000247,-5.416362030752433832
0.404000000000000248,-5.363251475166427085
0.405000000000000249,-5.310476725825333588
0.406000000000000250,-5.258044905939405211
0.407000000000000250,-5.205962816797610415
0.408000000000000251,-5.154236942752993933
0.409000000000000252,-5.102873456274764408
0.410000000000000253,-5.051878223061179618
0.411000000000000254,-5.001256807207488109
0.412000000000000255,-4.951014476423234889
0.413000000000000256,-4.901156207293409395
0.414000000000000257,-4.851686690577943217
0.415000000000000258,-4.802610336544278269
0.416000000000000258,-4.753931280327796216
0.417000000000000259,-4.705653387315027025
0.418000000000000260,-4.657780258544742757
0.419000000000000261,-4.610315236122045413
0.420000000000000262,-4.563261408640899575
0.421000000000000263,-4.516621616610514423
0.422000000000000264,-4.470398457881182175
0.423000000000000265,-4.424594293065341688
0.424000000000000266,-4.379211250949824219
0.425000000000000266,-4.334251233895209054
0.426000000000000267,-4.289715923218574645
0.427000000000000268,-4.245606784555915780
0.428000000000000269,-4.201925073200703409
0.429000000000000270,-4.158671839415252869
0.430000000000000271,-4.115847933711554774
0.431000000000000272,-4.073454012098554067
0.432000000000000273,-4.031490541292868102
0.433000000000000274,-3.989957803890116228
0.434000000000000274,-3.948855903494164377
0.435000000000000275,-3.908184769801733349
0.436000000000000276,-3.867944163639970068
0.437000000000000277,-3.828133681954589917
0.438000000000000278,-3.788752762746532277
0.439000000000000279,-3.749800689955038457
0.440000000000000280,-3.711276598285185635
0.441000000000000281,-3.673179477978146146
0.442000000000000282,-3.635508179522465522
0.443000000000000282,-3.598261418304749437
0.444000000000000283,-3.561437779198374898
0.445000000000000284,-3.525035721088833007
0.446000000000000285,-3.489053581334428777
0.447000000000000286,-3.453489580161344552
0.448000000000000287,-3.418341824991821820
0.449000000000000288,-3.383608314704738884
0.450000000000000289,-3.349286943827586960
0.451000000000000290,-3.315375506659170135
0.452000000000000290,-3.281871701322376822
0.453000000000000291,-3.248773133746401420
0.454000000000000292,-3.216077321577992087
0.455000000000000293,-3.183781698021259210
0.456000000000000294,-3.151883615605760358
0.457000000000000295,-3.120380349882587723
0.458000000000000296,-3.089269103048274179
0.459000000000000297,-3.058547007496437153
0.460000000000000298,-3.028211129297062154
0.461000000000000298,-2.998258471603506337
0.462000000000000299,-2.968685977987271407
0.463000000000000300,-2.939490535700673757
0.464000000000000301,-2.910668978867644974
0.465000000000000302,-2.882218091602904320
0.466000000000000303,-2.854134611059775839
0.467000000000000304,-2.826415230407030688
0.468000000000000305,-2.799056601735153915
0.469000000000000306,-2.772055338892454923
0.470000000000000306,-2.745408020251547843
0.471000000000000307,-2.719111191406647698
0.472000000000000308,-2.693161367802347606
0.473000000000000309,-2.667555037294380149
0.474000000000000310,-2.642288662643052177
0.475000000000000311,-2.617358683939960962
0.476000000000000312,-2.592761520968777322
0.477000000000000313,-2.568493575500676140
0.478000000000000314,-2.544551233525267353
0.479000000000000314,-2.520930867417771726
0.480000000000000315,-2.497628838043167931
0.481000000000000316,-2.474641496798227536
0.482000000000000317,-2.451965187592153317
0.483000000000000318,-2.429596248766751732
0.484000000000000319,-2.407531014956940663
0.485000000000000320,-2.385765818892529033
0.486000000000000321,-2.364296993142081416
0.487000000000000322,-2.343120871799833971
0.488000000000000322,-2.322233792116505935
0.489000000000000323,-2.301632096075000078
0.490000000000000324,-2.281312131911846564
0.491000000000000325,-2.261270255585365874
0.492000000000000326,-2.241502832191451411
0.493000000000000327,-2.222006237327959433
0.494000000000000328,-2.202776858408598937
0.495000000000000329,-2.183811095927310930
0.496000000000000330,-2.165105364674045241
0.497000000000000330,-2.146656094902925638
0.498000000000000331,-2.128459733453693214
0.499000000000000332,-2.110512744827437448
0.500000000000000333,-2.092811612217512884
0.501000000000000334,-2.075352838496587804
0.502000000000000335,-2.058132947160776105
0.503000000000000336,-2.041148483231782329
0.504000000000000337,-2.024396014117974207
0.505000000000000338,-2.007872130435307767
0.506000000000000338,-1.991573446789038915
0.507000000000000339,-1.975496602517103684
0.508000000000000340,-1.959638262396080410
0.509000000000000341,-1.943995117310645115
0.510000000000000342,-1.928563884887374069
0.511000000000000343,-1.913341310093798597
0.512000000000000344,-1.898324165803555230
0.513000000000000345,-1.883509253328514932
0.514000000000000346,-1.868893402918743174
0.515000000000000346,-1.854473474231096874
0.516000000000000347,-1.840246356767313740
0.517000000000000348,-1.826208970282443333
0.518000000000000349,-1.812358265164342175
0.519000000000000350,-1.798691222785128829
0.520000000000000351,-1.785204855825322401
0.521000000000000352,-1.771896208571462683
0.522000000000000353,-1.758762357187978242
0.523000000000000353,-1.745800409964028077
0.524000000000000354,-1.733007507536119762
0.525000000000000355,-1.720380823087150457
0.526000000000000356,-1.707917562522651256
0.527000000000000357,-1.695614964624932552
0.528000000000000358,-1.683470301185773010
0.529000000000000359,-1.671480877118412867
0.530000000000000360,-1.659644030549444427
0.531000000000000361,-1.647957132891317400
0.532000000000000361,-1.636417588896055264
0.533000000000000362,-1.625022836690855899
0.534000000000000363,-1.613770347796168014
0.535000000000000364,-1.602657627126860662
0.536000000000000365,-1.591682212977097111
0.537000000000000366,-1.580841676989471312
0.538000000000000367,-1.570133624108987380
0.539000000000000368,-1.559555692522473391
0.540000000000000369,-1.549105553583917327
0.541000000000000369,-1.538780911726324474
0.542000000000000370,-1.528579504360583652
0.543000000000000371,-1.518499101761851433
0.544000000000000372,-1.508537506943998796
0.545000000000000373,-1.498692555522560976
0.546000000000000374,-1.488962115566696109
0.547000000000000375,-1.479344087440608968
0.548000000000000376,-1.469836403634923183
0.549000000000000377,-1.460437028588416286
0.550000000000000377,-1.451143958500549003
0.551000000000000378,-1.441955221135258425
0.552000000000000379,-1.432868875616376103
0.553000000000000380,-1.423883012215110044
0.554000000000000381,-1.414995752129959428
0.555000000000000382,-1.406205247259481483
0.556000000000000383,-1.397509679968216068
0.557000000000000384,-1.388907262846222013
0.558000000000000385,-1.380396238462490599
0.559000000000000385,-1.371974879112645151
0.560000000000000386,-1.363641486561219862
0.561000000000000387,-1.355394391778863117
0.562000000000000388,-1.347231954674776855
0.563000000000000389,-1.339152563824698605
0.564000000000000390,-1.331154636194716190
0.565000000000000391,-1.323236616861221071
0.566000000000000392,-1.315396978727260580
0.567000000000000393,-1.307634222235587895
0.568000000000000393,-1.299946875078638264
0.569000000000000394,-1.292333491905720999
0.570000000000000395,-1.284792654027662184
0.571000000000000396,-1.277322969119121243
0.572000000000000397,-1.269923070918859365
0.573000000000000398,-1.262591618928123438
0.574000000000000399,-1.255327298107425715
0.575000000000000400,-1.248128818571878629
0.576000000000000401,-1.240994915285314804
0.577000000000000401,-1.233924347753400763
0.578000000000000402,-1.226915899715895542
0.579000000000000403,-1.219968378838267586
0.580000000000000404,-1.213080616402848921
0.581000000000000405,-1.206251466999675781
0.582000000000000406,-1.199479808217195576
0.583000000000000407,-1.192764540333002499
0.584000000000000408,-1.186104586004737893
0.585000000000000409,-1.179498889961311248
0.586000000000000409,-1.172946418694594817
0.587000000000000410,-1.166446160151707101
0.588000000000000411,-1.159997123428021748
0.589000000000000412,-1.153598338461045980
0.590000000000000413,-1.147248855725252925
0.591000000000000414,-1.140947745928013735
0.592000000000000415,-1.134694099706737180
0.593000000000000416,-1.128487027327290892
0.594000000000000417,-1.122325658383847902
0.595000000000000417,-1.116209141500239310
0.596000000000000418,-1.110136644032872377
0.597000000000000419,-1.104107351775370116
0.598000000000000420,-1.098120468664946392
0.599000000000000421,-1.092175216490639089
0.600000000000000422,-1.086270834603467295
0.601000000000000423,-1.080406579628575559
0.602000000000000424,-1.074581725179441394
0.603000000000000425,-1.068795561574215736
0.604000000000000425,-1.063047395554242325
0.605000000000000426,-1.057336550004822628
0.606000000000000427,-1.051662363678300238
0.607000000000000428,-1.046024190919453201
0.608000000000000429,-1.040421401393349043
0.609000000000000430,-1.034853379815568575
0.610000000000000431,-1.029319525684992964
0.611000000000000432,-1.023819253019060405
0.612000000000000433,-1.018351990091604709
0.613000000000000433,-1.012917179173303150
