# Montmorillonite-001-NaCEC90_BSAIV7
# h[nm],U(h)[kJ/mol]
0.149999999999999994,135.079018973612846821
0.150999999999999995,131.929411179447441782
0.151999999999999996,129.604793915002971971
0.152999999999999997,127.405243733640446635
0.153999999999999998,125.108771845974956705
0.154999999999999999,122.703026426680224859
0.156000000000000000,120.246185807332764739
0.157000000000000001,117.801923103500897128
0.158000000000000002,115.414694611127103485
0.159000000000000002,113.105292866392758810
0.160000000000000003,110.875212767382095080
0.161000000000000004,108.713666875067431761
0.162000000000000005,106.604236254028336361
0.163000000000000006,104.529941967399324199
0.164000000000000007,102.476486100058394868
0.165000000000000008,100.433874610315982068
0.166000000000000009,98.396810495986414935
0.167000000000000010,96.364267403566856274
0.168000000000000010,94.338601140592814431
0.169000000000000011,92.324476119067327318
0.170000000000000012,90.327800932303375703
0.171000000000000013,88.354794465249824498
0.172000000000000014,86.411245950409607985
0.173000000000000015,84.501989759071420849
0.174000000000000016,82.630586870933285581
0.175000000000000017,80.799187420255307757
0.176000000000000018,79.008539831006402210
0.177000000000000018,77.258109392032935148
0.178000000000000019,75.546270626752146882
0.179000000000000020,73.870541843752448585
0.180000000000000021,72.227835582152607685
0.181000000000000022,70.614704408254752366
0.182000000000000023,69.027567087123628653
0.183000000000000024,67.462905180116834458
0.184000000000000025,65.917424412758748531
0.185000000000000026,64.388178643919815158
0.186000000000000026,62.872656956721549193
0.187000000000000027,61.368836345713717151
0.188000000000000028,59.875203784729194467
0.189000000000000029,58.390752229368487747
0.190000000000000030,56.914955442811233866
0.191000000000000031,55.447726533332321708
0.192000000000000032,53.989364846120153629
0.193000000000000033,52.540495438030198727
0.194000000000000034,51.102004846071892530
0.195000000000000034,49.674976290393814793
0.196000000000000035,48.260626870348360740
0.197000000000000036,46.860248747624495991
0.198000000000000037,45.475155784362208067
0.199000000000000038,44.106636630210211081
0.200000000000000039,42.755914838174568615
0.201000000000000040,41.424116237922071093
0.202000000000000041,40.112243506576319874
0.203000000000000042,38.821157648083520542
0.204000000000000042,37.551565918328563498
0.205000000000000043,36.304015608692623118
0.206000000000000044,35.078893019448024404
0.207000000000000045,33.876426909928582631
0.208000000000000046,32.696695698561370591
0.209000000000000047,31.539637696716710025
0.210000000000000048,30.405063690517046382
0.211000000000000049,29.292671229394681376
0.212000000000000050,28.202060035044475228
0.213000000000000050,27.132748005835431115
0.214000000000000051,26.084187356649458422
0.215000000000000052,25.055780499990852661
0.216000000000000053,24.046895339040865736
0.217000000000000054,23.056879705552617565
0.218000000000000055,22.085074733930198931
0.219000000000000056,21.130827016693483955
0.220000000000000057,20.193499435263127850
0.221000000000000058,19.272480603336425986
0.222000000000000058,18.367192897964013554
0.223000000000000059,17.477099085867926931
0.224000000000000060,16.601707579747447596
0.225000000000000061,15.740576381594200583
0.226000000000000062,14.893315787731037148
0.227000000000000063,14.059589943795009148
0.228000000000000064,13.239117347621819576
0.229000000000000065,12.431670404380437134
0.230000000000000066,11.637074141779805814
0.231000000000000066,10.855204194127955120
0.232000000000000067,10.085984162863187663
0.233000000000000068,9.329382458256516131
0.234000000000000069,8.585408722644434221
0.235000000000000070,7.854109930095080294
0.236000000000000071,7.135566251115458947
0.237000000000000072,6.429886764113805775
0.238000000000000073,5.737205088056118285
0.239000000000000073,5.057675003282262161
0.240000000000000074,4.391466119929281930
0.241000000000000075,3.738759645984674584
0.242000000000000076,3.099744299763354416
0.243000000000000077,2.474612404657846376
0.244000000000000078,1.863556197419930172
0.245000000000000079,1.266764375043035518
0.246000000000000080,0.684418899566178185
0.247000000000000081,0.116692074831404119
0.248000000000000081,-0.436256095585705939
0.249000000000000082,-0.974280264390075090
0.250000000000000111,-1.497251809509084541
0.251000000000000112,-2.005060618351452995
0.252000000000000113,-2.497616592736016550
0.253000000000000114,-2.974850882382710004
0.254000000000000115,-3.436716857002291903
0.255000000000000115,-3.883190828790061833
0.256000000000000116,-4.314272538554440040
0.257000000000000117,-4.729985419818660830
0.258000000000000118,-5.130376656051957696
0.259000000000000119,-5.515517046744460750
0.260000000000000120,-5.885500698363970606
0.261000000000000121,-6.240444556348606397
0.262000000000000122,-6.580487794224592513
0.263000000000000123,-6.905791075714247995
0.264000000000000123,-7.216535705341113882
0.265000000000000124,-7.512922682565272403
0.266000000000000125,-7.795171673914344623
0.267000000000000126,-8.063519916930118825
0.268000000000000127,-8.318221069045566907
0.269000000000000128,-8.559544013755029823
0.270000000000000129,-8.787771635656387303
0.271000000000000130,-9.003199575139529287
0.272000000000000131,-9.206134972680098727
0.273000000000000131,-9.396895211881865606
0.274000000000000132,-9.575806669601860222
0.275000000000000133,-9.743203480697584240
0.276000000000000134,-9.899426324160064183
0.277000000000000135,-10.044821236645418594
0.278000000000000136,-10.179738458695425152
0.279000000000000137,-10.304531318246706206
0.280000000000000138,-10.419555155371281074
0.281000000000000139,-10.525166291570609900
0.282000000000000139,-10.621721046361566110
0.283000000000000140,-10.709574803346907146
0.284000000000000141,-10.789081127455226294
0.285000000000000142,-10.860590934565752974
0.286000000000000143,-10.924451714301460115
0.287000000000000144,-10.981006806378411866
0.288000000000000145,-11.030594730540894233
0.289000000000000146,-11.073548569786463958
0.290000000000000147,-11.110195406294911535
0.291000000000000147,-11.140855809215629790
0.292000000000000148,-11.165843373239775715
0.293000000000000149,-11.185464306683817526
0.294000000000000150,-11.200017067638649237
0.295000000000000151,-11.209792046592021109
0.296000000000000152,-11.215071293808492214
0.297000000000000153,-11.216128289651155825
0.298000000000000154,-11.213227755948480535
0.299000000000000155,-11.206625506449038099
0.300000000000000155,-11.196568334362709152
0.301000000000000156,-11.183293934959054994
0.302000000000000157,-11.167030861180112566
0.303000000000000158,-11.147998510224125468
0.304000000000000159,-11.126407139068088981
0.305000000000000160,-11.102457906918031583
0.306000000000000161,-11.076342942607194431
0.307000000000000162,-11.048245435000668024
0.308000000000000163,-11.018339744510857514
0.309000000000000163,-10.986791533880143845
0.310000000000000164,-10.953757916443828790
0.311000000000000165,-10.919387620147691820
0.312000000000000166,-10.883821165659238517
0.313000000000000167,-10.847191056978957135
0.314000000000000168,-10.809621983027497549
0.315000000000000169,-10.771231028755607895
0.316000000000000170,-10.732127894395764756
0.317000000000000171,-10.692415121546570589
0.318000000000000171,-10.652188324853490542
0.319000000000000172,-10.611536428121624454
0.320000000000000173,-10.570541903767281866
0.321000000000000174,-10.529281014585439635
0.322000000000000175,-10.487824056879047063
0.323000000000000176,-10.446235604063529578
0.324000000000000177,-10.404574749925421528
0.325000000000000178,-10.362895350777577619
0.326000000000000179,-10.321246265815435805
0.327000000000000179,-10.279671595037749299
0.328000000000000180,-10.238210914152650943
0.329000000000000181,-10.196899505944932329
0.330000000000000182,-10.155768587632293176
0.331000000000000183,-10.114845533789097232
0.332000000000000184,-10.074154094463164455
0.333000000000000185,-10.033714608156698134
0.334000000000000186,-9.993544209385060384
0.335000000000000187,-9.953657030567464759
0.336000000000000187,-9.914064398041904980
0.337000000000000188,-9.874775022031929694
0.338000000000000189,-9.835795180426753603
0.339000000000000190,-9.797128896267242482
0.340000000000000191,-9.758778108859157641
0.341000000000000192,-9.720742838462674840
0.342000000000000193,-9.683021344531404395
0.343000000000000194,-9.645610277497988605
0.344000000000000195,-9.608504824123755839
0.345000000000000195,-9.571698846450178877
0.346000000000000196,-9.535185014406778237
0.347000000000000197,-9.498954932146741470
0.348000000000000198,-9.462999258195885943
0.349000000000000199,-9.427307819513492504
0.350000000000000200,-9.391869719575510089
0.351000000000000201,-9.356673440600605574
0.352000000000000202,-9.321706940048880341
0.353000000000000203,-9.286957741530937227
0.354000000000000203,-9.252413020271649913
0.355000000000000204,-9.218059683278909233
0.356000000000000205,-9.183884444372392153
0.357000000000000206,-9.149873894231344451
0.358000000000000207,-9.116014565623208554
0.359000000000000208,-9.082292993977613804
0.360000000000000209,-9.048695773471505888
0.361000000000000210,-9.015209608792147833
0.362000000000000210,-8.981821362745147752
0.363000000000000211,-8.948518099874267051
0.364000000000000212,-8.915287126259116235
0.365000000000000213,-8.882116025655408365
0.366000000000000214,-8.848992692141012029
0.367000000000000215,-8.815905359428793275
0.368000000000000216,-8.782842627005026159
0.369000000000000217,-8.749793483249277415
0.370000000000000218,-8.716747325688908532
0.371000000000000218,-8.683693978537911917
0.372000000000000219,-8.650623707666595053
0.373000000000000220,-8.617527233144965493
0.374000000000000221,-8.584395739498903666
0.375000000000000222,-8.551220883814275808
0.376000000000000223,-8.517994801820471196
0.377000000000000224,-8.484710112080403377
0.378000000000000225,-8.451359918410179972
0.379000000000000226,-8.417937810647384111
0.380000000000000226,-8.384437863882777009
0.381000000000000227,-8.350854636265928832
0.382000000000000228,-8.317183165491275787
0.383000000000000229,-8.283418964066772361
0.384000000000000230,-8.249558013463117234
0.385000000000000231,-8.215596757237753067
0.386000000000000232,-8.181532093223262692
0.387000000000000233,-8.147361364866272382
0.388000000000000234,-8.113082351798606595
0.389000000000000234,-8.078693259719051056
0.390000000000000235,-8.044192709659643725
0.391000000000000236,-8.009579726707434233
0.392000000000000237,-7.974853728248338491
0.393000000000000238,-7.940014511796732677
0.394000000000000239,-7.905062242470559219
0.395000000000000240,-7.869997440168704728
0.396000000000000241,-7.834820966503923678
0.397000000000000242,-7.799534011541514822
0.398000000000000242,-7.764138080391030705
0.399000000000000243,-7.728634979695070406
0.400000000000000244,-7.693026804056612988
0.401000000000000245,-7.657315922443591383
0.402000000000000246,-7.621504964606546473
0.403000000000000247,-7.585596807542882125
0.404000000000000248,-7.549594562038754120
0.405000000000000249,-7.513501559317215417
0.406000000000000250,-7.477321337819040181
0.407000000000000250,-7.441057630140536894
0.408000000000000251,-7.404714350150522151
0.409000000000000252,-7.368295580306787329
0.410000000000000253,-7.331805559190402555
0.411000000000000254,-7.295248669274509545
0.412000000000000255,-7.258629424942493635
0.413000000000000256,-7.221952460768973125
0.414000000000000257,-7.185222520075194907
0.415000000000000258,-7.148444443769458978
0.416000000000000258,-7.111623159481332834
0.417000000000000259,-7.074763670997505471
0.418000000000000260,-7.037871048005714059
0.419000000000000261,-7.000950416152063482
0.420000000000000262,-6.964006947416059745
0.421000000000000263,-6.927045850806604399
0.422000000000000264,-6.890072363381162468
0.423000000000000265,-6.853091741589638630
0.424000000000000266,-6.816109252943545194
0.425000000000000266,-6.779130168010174984
0.426000000000000267,-6.742159752730995770
0.427000000000000268,-6.705203261062678166
0.428000000000000269,-6.668265927938525017
0.429000000000000270,-6.631352962547653718
0.430000000000000271,-6.594469541928555500
0.431000000000000272,-6.557620804873408815
0.432000000000000273,-6.520811846138839130
0.433000000000000274,-6.484047710958660282
0.434000000000000274,-6.447333389853552532
0.435000000000000275,-6.410673813732506332
0.436000000000000276,-6.374073849280405213
0.437000000000000277,-6.337538294625950641
0.438000000000000278,-6.301071875283886570
0.439000000000000279,-6.264679240365307322
0.440000000000000280,-6.228364959049544680
0.441000000000000281,-6.192133517311137147
0.442000000000000282,-6.155989314895213838
0.443000000000000282,-6.119936662534360750
0.444000000000000283,-6.083979779400273458
0.445000000000000284,-6.048122790783139635
0.446000000000000285,-6.012369725991751679
0.447000000000000286,-5.976724516467529114
0.448000000000000287,-5.941190994105172152
0.449000000000000288,-5.905772889773197143
0.450000000000000289,-5.870473832027189864
0.451000000000000290,-5.835297346008895047
0.452000000000000290,-5.800246852524282737
0.453000000000000291,-5.765325667293645040
0.454000000000000292,-5.730537000367031730
0.455000000000000293,-5.695883955698239909
0.456000000000000294,-5.661369530870823397
0.457000000000000295,-5.626996616969530685
0.458000000000000296,-5.592767998590750800
0.459000000000000297,-5.558686353985671680
0.460000000000000298,-5.524754255329918706
0.461000000000000298,-5.490974169113582271
0.462000000000000299,-5.457348456645668477
0.463000000000000300,-5.423879374667103903
0.464000000000000301,-5.390569076066589638
0.465000000000000302,-5.357419610693737511
0.466000000000000303,-5.324432926263976462
0.467000000000000304,-5.291610869349937296
0.468000000000000305,-5.258955186454175035
0.469000000000000306,-5.226467525158088101
0.470000000000000306,-5.194149435342262144
0.471000000000000307,-5.162002370473291357
0.472000000000000308,-5.130027688952674580
0.473000000000000309,-5.098226655523101059
0.474000000000000310,-5.066600442727894560
0.475000000000000311,-5.035150132419362379
0.476000000000000312,-5.003876717312055078
0.477000000000000313,-4.972781102576869117
0.478000000000000314,-4.941864107472328627
0.479000000000000314,-4.911126467009343521
0.480000000000000315,-4.880568833645870797
0.481000000000000316,-4.850191779008184767
0.482000000000000317,-4.819995795635373170
0.483000000000000318,-4.789981298744023341
0.484000000000000319,-4.760148628010012040
0.485000000000000320,-4.730498049364578961
0.486000000000000321,-4.701029756801853310
0.487000000000000322,-4.671743874195239066
0.488000000000000322,-4.642640457120046804
0.489000000000000323,-4.613719494680083244
0.490000000000000324,-4.584980911335771125
0.491000000000000325,-4.556424568731679337
0.492000000000000326,-4.528050267521286365
0.493000000000000327,-4.499857749187137657
0.494000000000000328,-4.471846697854319430
0.495000000000000329,-4.444016742095661776
0.496000000000000330,-4.416367456726790763
0.497000000000000330,-4.388898364589607581
0.498000000000000331,-4.361608938322506290
0.499000000000000332,-4.334498602116096500
0.500000000000000333,-4.307566733452960150
0.501000000000000334,-4.280812664830225600
0.502000000000000335,-4.254235685463826577
0.503000000000000336,-4.227835042973318913
0.504000000000000337,-4.201609945046230976
0.505000000000000338,-4.175559561081012561
0.506000000000000338,-4.149683023807726023
0.507000000000000339,-4.123979430885629682
0.508000000000000340,-4.098447846476915402
0.509000000000000341,-4.073087302796002618
0.510000000000000342,-4.047896801633617869
0.511000000000000343,-4.022875315855253042
0.512000000000000344,-3.998021790873376169
0.513000000000000345,-3.973335146092992431
0.514000000000000346,-3.948814276330216533
0.515000000000000346,-3.924458053203370156
0.516000000000000347,-3.900265326496381135
0.517000000000000348,-3.876234925494301820
0.518000000000000349,-3.852365660290518523
0.519000000000000350,-3.828656323065720901
0.520000000000000351,-3.805105689338326158
0.521000000000000352,-3.781712519186348320
0.522000000000000353,-3.758475558440615316
0.523000000000000353,-3.735393539849302336
0.524000000000000354,-3.712465184213864067
0.525000000000000355,-3.689689201496281434
0.526000000000000356,-3.667064291897778272
0.527000000000000357,-3.644589146909106514
0.528000000000000358,-3.622262450332450978
0.529000000000000359,-3.600082879275189107
0.530000000000000360,-3.578049105115579387
0.531000000000000361,-3.556159794440682642
0.532000000000000361,-3.534413609956621904
0.533000000000000362,-3.512809211371485496
0.534000000000000363,-3.491345256251092710
0.535000000000000364,-3.470020400847901865
0.536000000000000365,-3.448833300903327626
0.537000000000000366,-3.427782612423812658
0.538000000000000367,-3.406866992430864993
0.539000000000000368,-3.386085099685556710
0.540000000000000369,-3.365435595387610501
0.541000000000000369,-3.344917143849618135
0.542000000000000370,-3.324528413146611516
0.543000000000000371,-3.304268075741414457
0.544000000000000372,-3.284134809086155737
0.545000000000000373,-3.264127296200295181
0.546000000000000374,-3.244244226225568184
0.547000000000000375,-3.224484294958240405
0.548000000000000376,-3.204846205359089595
0.549000000000000377,-3.185328668041497835
0.550000000000000377,-3.165930401738061839
0.551000000000000378,-3.146650133746148548
0.552000000000000379,-3.127486600352807677
0.553000000000000380,-3.108438547239456007
0.554000000000000381,-3.089504729866714872
0.555000000000000382,-3.070683913839929779
0.556000000000000383,-3.051974875255617725
0.557000000000000384,-3.033376401029449720
0.558000000000000385,-3.014887289206034993
0.559000000000000385,-2.996506349251025103
0.560000000000000386,-2.978232402325899919
0.561000000000000387,-2.960064281545884857
0.562000000000000388,-2.942000832221370210
0.563000000000000389,-2.924040912083313515
0.564000000000000390,-2.906183391492946466
0.565000000000000391,-2.888427153636274447
0.566000000000000392,-2.870771094703705284
0.567000000000000393,-2.853214124055273082
0.568000000000000393,-2.835755164371765780
0.569000000000000394,-2.818393151792238704
0.570000000000000395,-2.801127036038260520
0.571000000000000396,-2.783955780525231738
0.572000000000000397,-2.766878362461269170
0.573000000000000398,-2.749893772933892588
0.574000000000000399,-2.733001016985014964
0.575000000000000400,-2.716199113674475196
0.576000000000000401,-2.699487096132573871
0.577000000000000401,-2.682864011601938437
0.578000000000000402,-2.666328921469026447
0.579000000000000403,-2.649880901285641244
0.580000000000000404,-2.633519040780841092
0.581000000000000405,-2.617242443863481149
0.582000000000000406,-2.601050228615803928
0.583000000000000407,-2.584941527278334483
0.584000000000000408,-2.568915486226457823
0.585000000000000409,-2.552971265938922762
0.586000000000000409,-2.537108040958629296
0.587000000000000410,-2.521324999845984571
0.588000000000000411,-2.505621345125088162
0.589000000000000412,-2.489996293223106782
0.590000000000000413,-2.474449074403017423
0.591000000000000414,-2.458978932690091934
0.592000000000000415,-2.443585125792355317
0.593000000000000416,-2.428266925015240218
0.594000000000000417,-2.413023615170756031
0.595000000000000417,-2.397854494481442167
0.596000000000000418,-2.382758874479218747
0.597000000000000419,-2.367736079899580126
0.598000000000000420,-2.352785448571169891
0.599000000000000421,-2.337906331301105034
0.600000000000000422,-2.323098091756201633
0.601000000000000423,-2.308360106340341833
0.602000000000000424,-2.293691764068207739
0.603000000000000425,-2.279092466435570064
0.604000000000000425,-2.264561627286333589
0.605000000000000426,-2.250098672676553502
0.606000000000000427,-2.235703040735636637
0.607000000000000428,-2.221374181524784053
0.608000000000000429,-2.207111556893108339
0.609000000000000430,-2.192914640331286691
0.610000000000000431,-2.178782916823226223
0.611000000000000432,-2.164715882695671390
