# Montmorillonite-001-NaCEC90_HIE-AC
# h[nm],U(h)[kJ/mol]
0.149999999999999994,128.222295105638124824
0.150999999999999995,125.243551238378088897
0.151999999999999996,123.191688954767940345
0.152999999999999997,121.316778407392945383
0.153999999999999998,119.355932292756733659
0.154999999999999999,117.270673722316900012
0.156000000000000000,115.106675304118084568
0.157000000000000001,112.925068792351154912
0.158000000000000002,110.773772662026317448
0.159000000000000002,108.679748124144907706
0.160000000000000003,106.651031640415794755
0.161000000000000004,104.682343785581721818
0.162000000000000005,102.761082025831598230
0.163000000000000006,100.872267139020706850
0.164000000000000007,99.001993122937591352
0.165000000000000008,97.139432284301733489
0.166000000000000009,95.277666803260387951
0.167000000000000010,93.413679513801682219
0.168000000000000010,91.547816536253293407
0.169000000000000011,89.682978458903633623
0.170000000000000012,87.823730966232929518
0.171000000000000013,85.975463799958276923
0.172000000000000014,84.143674905055220847
0.173000000000000015,82.333416426950407185
0.174000000000000016,80.548910427066303441
0.175000000000000017,78.793323199980520144
0.176000000000000018,77.068675946100682950
0.177000000000000018,75.375864332175225968
0.178000000000000019,73.714758427819560893
0.179000000000000020,72.084356207478691658
0.180000000000000021,70.482967132582302838
0.181000000000000022,68.908406442956760429
0.182000000000000023,67.358185099593853806
0.183000000000000024,65.829684440974972404
0.184000000000000025,64.320308304713407210
0.185000000000000026,62.827608502358955889
0.186000000000000026,61.349382076410037712
0.187000000000000027,59.883740728543408238
0.188000000000000028,58.429154234893346143
0.189000000000000029,56.984470625120572151
0.190000000000000030,55.548916472309919357
0.191000000000000031,54.122080896233171643
0.192000000000000032,52.703886894601907898
0.193000000000000033,51.294553449684961777
0.194000000000000034,49.894551566395364262
0.195000000000000034,48.504557028790351580
0.196000000000000035,47.125402252104230172
0.197000000000000036,45.758029185950668705
0.198000000000000037,44.403444812904133698
0.199000000000000038,43.062680400761237820
0.200000000000000039,41.736755316635708368
0.201000000000000040,40.426645902671317856
0.202000000000000041,39.133259649254746648
0.203000000000000042,37.857414682334550093
0.204000000000000042,36.599824405102189928
0.205000000000000043,35.361086997890218697
0.206000000000000044,34.141679379881864520
0.207000000000000045,32.941955167854260367
0.208000000000000046,31.762146126264106272
0.209000000000000047,30.602366585151315803
0.210000000000000048,29.462620303398999511
0.211000000000000049,28.342809270969070212
0.212000000000000050,27.242743971316780716
0.213000000000000050,26.162154661169598313
0.214000000000000051,25.100703266532327973
0.215000000000000052,24.057995538863860219
0.216000000000000053,23.033593161950165040
0.217000000000000054,22.027025546526164845
0.218000000000000055,21.037801094946498637
0.219000000000000056,20.065417761239586980
0.220000000000000057,19.109372772006700814
0.221000000000000058,18.169171410390902111
0.222000000000000058,17.244334798437687795
0.223000000000000059,16.334406642478803917
0.224000000000000060,15.438958931667908558
0.225000000000000061,14.557596601570855555
0.226000000000000062,13.689961192919614774
0.227000000000000063,12.835733550488502175
0.228000000000000064,11.994635618797360621
0.229000000000000065,11.166431400257851081
0.230000000000000066,10.350927147749469981
0.231000000000000066,9.547970867724538735
0.232000000000000067,8.757451212087913106
0.233000000000000068,7.979295837549306825
0.234000000000000069,7.213469310168234117
0.235000000000000070,6.459970630647201340
0.236000000000000071,5.718830452804334108
0.237000000000000072,4.990108063775068103
0.238000000000000073,4.273888190041112090
0.239000000000000073,3.570277688526368731
0.240000000000000074,2.879402176874073405
0.241000000000000075,2.201402651758166407
0.242000000000000076,1.536432138784420420
0.243000000000000077,0.884652412295863222
0.244000000000000078,0.246230818285834457
0.245000000000000079,-0.378662771300956547
0.246000000000000080,-0.989858849284602216
0.247000000000000081,-1.587190989804988295
0.248000000000000081,-2.170498375654353662
0.249000000000000082,-2.739628125130154856
0.250000000000000111,-3.294437410631902541
0.251000000000000112,-3.834795364378904559
0.252000000000000113,-4.360584769456968601
0.253000000000000114,-4.871703536912098009
0.254000000000000115,-5.368065971816102788
0.255000000000000115,-5.849603833137957842
0.256000000000000116,-6.316267193886943687
0.257000000000000117,-6.768025109362788783
0.258000000000000118,-7.204866102471919831
0.259000000000000119,-7.626798475968451285
0.260000000000000120,-8.033850462170018858
0.261000000000000121,-8.426070221201280575
0.262000000000000122,-8.803525699151705908
0.263000000000000123,-9.166304357714732731
0.264000000000000123,-9.514512786922123766
0.265000000000000124,-9.848276212514921468
0.266000000000000125,-10.167737909317734690
0.267000000000000126,-10.473058531719782849
0.268000000000000127,-10.764415372028990348
0.269000000000000128,-11.042001557065388440
0.270000000000000129,-11.306025192910418298
0.271000000000000130,-11.556708467239278804
0.272000000000000131,-11.794286718143181858
0.273000000000000131,-12.019007477807344131
0.274000000000000132,-12.231129498854773630
0.275000000000000133,-12.430921770603948318
0.276000000000000134,-12.618662531924996983
0.277000000000000135,-12.794638286819312256
0.278000000000000136,-12.959142828297734340
0.279000000000000137,-13.112476275593943242
0.280000000000000138,-13.254944129227570926
0.281000000000000139,-13.386856347927912125
0.282000000000000139,-13.508526450945742781
0.283000000000000140,-13.620270648819914783
0.284000000000000141,-13.722407005227802657
0.285000000000000142,-13.815254632135980373
0.286000000000000143,-13.899132920079287246
0.287000000000000144,-13.974360805033589017
0.288000000000000145,-14.041256073010757177
0.289000000000000146,-14.100134703191054442
0.290000000000000147,-14.151310250121515111
0.291000000000000147,-14.195093265244622671
0.292000000000000148,-14.231790757782183832
0.293000000000000149,-14.261705694781625198
0.294000000000000150,-14.285136539936535982
0.295000000000000151,-14.302376830618854342
0.296000000000000152,-14.313714792404862663
0.297000000000000153,-14.319432990241697468
0.298000000000000154,-14.319808015282461611
0.299000000000000155,-14.315110206316763453
0.300000000000000155,-14.305603404637512455
0.301000000000000156,-14.291544741113380468
0.302000000000000157,-14.273184454178680980
0.303000000000000158,-14.250765737406808853
0.304000000000000159,-14.224524615299909414
0.305000000000000160,-14.194689845903473824
0.306000000000000161,-14.161482848841441040
0.307000000000000162,-14.125117657361991874
0.308000000000000163,-14.085800892986961586
0.309000000000000163,-14.043731761367848065
0.310000000000000164,-13.999102067967379881
0.311000000000000165,-13.952096252207235594
0.312000000000000166,-13.902891438749332309
0.313000000000000167,-13.851657504608468230
0.314000000000000168,-13.798557160828968549
0.315000000000000169,-13.743746047495282170
0.316000000000000170,-13.687372840886808945
0.317000000000000171,-13.629579371629304774
0.318000000000000171,-13.570500752739295791
0.319000000000000172,-13.510265516503242367
0.320000000000000173,-13.448995759179160459
0.321000000000000174,-13.386807292555298332
0.322000000000000175,-13.323809801447556111
0.323000000000000176,-13.260107006264444607
0.324000000000000177,-13.195796829815048312
0.325000000000000178,-13.130971567582241377
0.326000000000000179,-13.065718060729063055
0.327000000000000179,-13.000117871151255500
0.328000000000000180,-12.934247457933082615
0.329000000000000181,-12.868178354606886415
0.330000000000000182,-12.801977346658304668
0.331000000000000183,-12.735706648760412918
0.332000000000000184,-12.669424081258796377
0.333000000000000185,-12.603183245468093432
0.334000000000000186,-12.537033697376820385
0.335000000000000187,-12.471021119392521115
0.336000000000000187,-12.405187489793098266
0.337000000000000188,-12.339571249581885226
0.338000000000000189,-12.274207466475328232
0.339000000000000190,-12.209127995780818310
0.340000000000000191,-12.144361637949957711
0.341000000000000192,-12.079934292619112668
0.342000000000000193,-12.015869108973397772
0.343000000000000194,-11.952186632293994251
0.344000000000000195,-11.888904946570265864
0.345000000000000195,-11.826039813079283647
0.346000000000000196,-11.763604804853969199
0.347000000000000197,-11.701611436979746372
0.348000000000000198,-11.640069292675843116
0.349000000000000199,-11.578986145133265850
0.350000000000000200,-11.518368075095791525
0.351000000000000201,-11.458219584183616746
0.352000000000000202,-11.398543703971505181
0.353000000000000203,-11.339342100844769234
0.354000000000000203,-11.280615176666351829
0.355000000000000204,-11.222362165297843362
0.356000000000000205,-11.164581225025665745
0.357000000000000206,-11.107269526951370153
0.358000000000000207,-11.050423339411672430
0.359000000000000208,-10.994038108500109985
0.360000000000000209,-10.938108534767568614
0.361000000000000210,-10.882628646183560406
0.362000000000000210,-10.827591867444406049
0.363000000000000211,-10.772991085717768200
0.364000000000000212,-10.718818712916283076
0.365000000000000213,-10.665066744595089077
0.366000000000000214,-10.611726815570449389
0.367000000000000215,-10.558790252357862727
0.368000000000000216,-10.506248122529463274
0.369000000000000217,-10.454091281091018928
0.370000000000000218,-10.402310413979455106
0.371000000000000218,-10.350896078781698151
0.372000000000000219,-10.299838742775595080
0.373000000000000220,-10.249128818393065998
0.374000000000000221,-10.198756696204927863
0.375000000000000222,-10.148712775525826402
0.376000000000000223,-10.098987492736682725
0.377000000000000224,-10.049571347420528156
0.378000000000000225,-10.000454926406218803
0.379000000000000226,-9.951628925812768145
0.380000000000000226,-9.903084171185444262
0.381000000000000227,-9.854811635812499304
0.382000000000000228,-9.806802457309901300
0.383000000000000229,-9.759047952558955075
0.384000000000000230,-9.711539631079636692
0.385000000000000231,-9.664269206920604205
0.386000000000000232,-9.617228609143968043
0.387000000000000233,-9.570409990981179504
0.388000000000000234,-9.523805737733807675
0.389000000000000234,-9.477408473490726237
0.390000000000000235,-9.431211066730730508
0.391000000000000236,-9.385206634877622633
0.392000000000000237,-9.339388547871951829
0.393000000000000238,-9.293750430821825503
0.394000000000000239,-9.248286165792354296
0.395000000000000240,-9.202989892791464399
0.396000000000000241,-9.157856010007238368
0.397000000000000242,-9.112879173349858419
0.398000000000000242,-9.068054295348973781
0.399000000000000243,-9.023376543455203347
0.400000000000000244,-8.978841337792248467
0.401000000000000245,-8.934444348404243286
0.402000000000000246,-8.890181492040635902
0.403000000000000247,-8.846048928519156362
0.404000000000000248,-8.802043056705375790
0.405000000000000249,-8.758160510145550859
0.406000000000000250,-8.714398152387458296
0.407000000000000250,-8.670753072022387542
0.408000000000000251,-8.627222577479463084
0.409000000000000252,-8.583804191602066425
0.410000000000000253,-8.540495646034205635
0.411000000000000254,-8.497294875443424544
0.412000000000000255,-8.454200011605012222
0.413000000000000256,-8.411209377371193341
0.414000000000000257,-8.368321480547054492
0.415000000000000258,-8.325535007694178091
0.416000000000000258,-8.282848817881196979
0.417000000000000259,-8.240261936399445375
0.418000000000000260,-8.197773548460652648
0.419000000000000261,-8.155382992892409533
0.420000000000000262,-8.113089755846063511
0.421000000000000263,-8.070893464530730199
0.422000000000000264,-8.028793880985830356
0.423000000000000265,-7.986790895903903120
0.424000000000000266,-7.944884522514415792
0.425000000000000266,-7.903074890538171360
0.426000000000000267,-7.861362240221518860
0.427000000000000268,-7.819746916458370833
0.428000000000000269,-7.778229363007500119
0.429000000000000270,-7.736810116811776439
0.430000000000000271,-7.695489802425340642
0.431000000000000272,-7.654269126554100744
0.432000000000000273,-7.613148872714186943
0.433000000000000274,-7.572129896012674166
0.434000000000000274,-7.531213118054028044
0.435000000000000275,-7.490399521975426467
0.436000000000000276,-7.449690147613618585
0.437000000000000277,-7.409086086805331206
0.438000000000000278,-7.368588478823054011
0.439000000000000279,-7.328198505947490560
0.440000000000000280,-7.287917389177549055
0.441000000000000281,-7.247746384078536330
0.442000000000000282,-7.207686776768779779
0.443000000000000282,-7.167739880044578626
0.444000000000000283,-7.127907029643227865
0.445000000000000284,-7.088189580643486920
0.446000000000000285,-7.048588904002533795
0.447000000000000286,-7.009106383228584036
0.448000000000000287,-6.969743411187603321
0.449000000000000288,-6.930501387042906636
0.450000000000000289,-6.891381713325789526
0.451000000000000290,-6.852385793135512770
0.452000000000000290,-6.813515027466704232
0.453000000000000291,-6.774770812661996544
0.454000000000000292,-6.736154537987816937
0.455000000000000293,-6.697667583330975560
0.456000000000000294,-6.659311317013660414
0.457000000000000295,-6.621087093724438155
0.458000000000000296,-6.582996252562573147
0.459000000000000297,-6.545040115193255126
0.460000000000000298,-6.507219984110892419
0.461000000000000298,-6.469537141007921655
0.462000000000000299,-6.431992845246317536
0.463000000000000300,-6.394588332429046673
0.464000000000000301,-6.357324813068745861
0.465000000000000302,-6.320203471350781754
0.466000000000000303,-6.283225463987894166
0.467000000000000304,-6.246391919163654549
0.468000000000000305,-6.209703935561925903
0.469000000000000306,-6.173162581479523681
0.470000000000000306,-6.136768894019398957
0.471000000000000307,-6.100523878361404861
0.472000000000000308,-6.064428507108168276
0.473000000000000309,-6.028483719703139343
0.474000000000000310,-5.992690421918295485
0.475000000000000311,-5.957049485408761669
0.476000000000000312,-5.921561747331876013
0.477000000000000313,-5.886228010027970470
0.478000000000000314,-5.851049040760463171
0.479000000000000314,-5.816025571512767556
0.480000000000000315,-5.781158298839498499
0.481000000000000316,-5.746447883769746134
0.482000000000000317,-5.711894951759876271
0.483000000000000318,-5.677500092693732014
0.484000000000000319,-5.643263860927889120
0.485000000000000320,-5.609186775379841450
0.486000000000000321,-5.575269319656923628
0.487000000000000322,-5.541511942223914744
0.488000000000000322,-5.507915056607224358
0.489000000000000323,-5.474479041633802723
0.490000000000000324,-5.441204241702708444
0.491000000000000325,-5.408090967087550105
0.492000000000000326,-5.375139494267879847
0.493000000000000327,-5.342350066287913535
0.494000000000000328,-5.309722893140691902
0.495000000000000329,-5.277258152176156791
0.496000000000000330,-5.244955988531414093
0.497000000000000330,-5.212816515581740973
0.498000000000000331,-5.180839815410663185
0.499000000000000332,-5.149025939297832366
0.500000000000000333,-5.117374908223149887
0.501000000000000334,-5.085886713385816549
0.502000000000000335,-5.054561316737016696
0.503000000000000336,-5.023398651524951575
0.504000000000000337,-4.992398622851033529
0.505000000000000338,-4.961561108235984285
0.506000000000000338,-4.930885958194848762
0.507000000000000339,-4.900372996819714722
0.508000000000000340,-4.870022022369155046
0.509000000000000341,-4.839832807863451158
0.510000000000000342,-4.809805101684522910
0.511000000000000343,-4.779938628179772664
0.512000000000000344,-4.750233088268891457
0.513000000000000345,-4.720688160052829652
0.514000000000000346,-4.691303499424174461
0.515000000000000346,-4.662078740678079036
0.516000000000000347,-4.633013497123110724
0.517000000000000348,-4.604107361691339051
0.518000000000000349,-4.575359907546905802
0.519000000000000350,-4.546770688692594042
0.520000000000000351,-4.518339240573736149
0.521000000000000352,-4.490065080678912857
0.522000000000000353,-4.461947709136953932
0.523000000000000353,-4.433986609309675586
0.524000000000000354,-4.406181248380024229
0.525000000000000355,-4.378531077935035931
0.526000000000000356,-4.351035534543285621
0.527000000000000357,-4.323694040326482302
0.528000000000000358,-4.296506003524728001
0.529000000000000359,-4.269470819055252164
0.530000000000000360,-4.242587869064175621
0.531000000000000361,-4.215856523471146922
0.532000000000000361,-4.189276140506462909
0.533000000000000362,-4.162846067240536740
0.534000000000000363,-4.136565640105405173
0.535000000000000364,-4.110434185408124108
0.536000000000000365,-4.084451019835842800
0.537000000000000366,-4.058615450952414605
0.538000000000000367,-4.032926777686318687
0.539000000000000368,-4.007384290809909544
0.540000000000000369,-3.981987273409670625
0.541000000000000369,-3.956735001347587488
0.542000000000000370,-3.931626743713371841
0.543000000000000371,-3.906661763267559984
0.544000000000000372,-3.881839316875420387
0.545000000000000373,-3.857158655931592683
0.546000000000000374,-3.832619026775412330
0.547000000000000375,-3.808219671096947589
0.548000000000000376,-3.783959826333703091
0.549000000000000377,-3.759838726057987746
0.550000000000000377,-3.735855600354950123
0.551000000000000378,-3.712009676191310170
0.552000000000000379,-3.688300177774824995
0.553000000000000380,-3.664726326904485632
0.554000000000000381,-3.641287343311507385
0.555000000000000382,-3.617982444991208801
0.556000000000000383,-3.594810848525712199
0.557000000000000384,-3.571771769397703800
0.558000000000000385,-3.548864422295140653
0.559000000000000385,-3.526088021407145057
0.560000000000000386,-3.503441780711036735
0.561000000000000387,-3.480924914250689284
0.562000000000000388,-3.458536636406209119
0.563000000000000389,-3.436276162155144753
0.564000000000000390,-3.414142707325204640
0.565000000000000391,-3.392135488838687873
0.566000000000000392,-3.370253724948681473
0.567000000000000393,-3.348496635467159255
0.568000000000000393,-3.326863441985062231
0.569000000000000394,-3.305353368084530619
0.570000000000000395,-3.283965639543376280
0.571000000000000396,-3.262699484531881744
0.572000000000000397,-3.241554133802148296
0.573000000000000398,-3.220528820869999809
0.574000000000000399,-3.199622782189673664
0.575000000000000400,-3.178835257321336094
0.576000000000000401,-3.158165489091620870
0.577000000000000401,-3.137612723747311705
0.578000000000000402,-3.117176211102246963
0.579000000000000403,-3.096855204677625206
0.580000000000000404,-3.076648961835870111
0.581000000000000405,-3.056556743908100060
0.582000000000000406,-3.036577816315427558
0.583000000000000407,-3.016711448684149754
0.584000000000000408,-2.996956914955019258
0.585000000000000409,-2.977313493486685392
0.586000000000000409,-2.957780467153448001
0.587000000000000410,-2.938357123437493890
0.588000000000000411,-2.919042754515670079
0.589000000000000412,-2.899836657341014146
0.590000000000000413,-2.880738133719082050
0.591000000000000414,-2.861746490379270647
0.592000000000000415,-2.842861039041251203
0.593000000000000416,-2.824081096476587227
0.594000000000000417,-2.805405984565714217
0.595000000000000417,-2.786835030350450992
0.596000000000000418,-2.768367566081986642
0.597000000000000419,-2.750002929264726781
0.598000000000000420,-2.731740462695860128
0.599000000000000421,-2.713579514500960244
0.600000000000000422,-2.695519438165623782
0.601000000000000423,-2.677559592563311774
0.602000000000000424,-2.659699341979500531
0.603000000000000425,-2.641938056132250523
0.604000000000000425,-2.624275110189292270
0.605000000000000426,-2.606709884781762909
0.606000000000000427,-2.589241766014724444
0.607000000000000428,-2.571870145474431713
0.608000000000000429,-2.554594420232719099
0.609000000000000430,-2.537413992848272848
0.610000000000000431,-2.520328271365221084
