# Montmorillonite-001-NaCEC90_GLUP-AC
# h[nm],U(h)[kJ/mol]
0.149999999999999994,124.828249741162721875
0.150999999999999995,121.704826185726759036
0.151999999999999996,119.458939589491848210
0.152999999999999997,117.386899363621751036
0.153999999999999998,115.242468542390724906
0.154999999999999999,112.990722711320202620
0.156000000000000000,110.676070234690996585
0.157000000000000001,108.357309947713972065
0.158000000000000002,106.080352433815960467
0.159000000000000002,103.870759388490597530
0.160000000000000003,101.735623329121025904
0.161000000000000004,99.668924815989427657
0.162000000000000005,97.657321005297092142
0.163000000000000006,95.684979563051712148
0.164000000000000007,93.737002889428055141
0.165000000000000008,91.801470111048871559
0.166000000000000009,89.870340361140137020
0.167000000000000010,87.939526206820957555
0.168000000000000010,86.008432549891381314
0.169000000000000011,84.079207117214480149
0.170000000000000012,82.155888565032014981
0.171000000000000013,80.243580488791423022
0.172000000000000014,78.347730450348237241
0.173000000000000015,76.473554580040200790
0.174000000000000016,74.625620192441601830
0.175000000000000017,72.807579871953265638
0.176000000000000018,71.022038916176555290
0.177000000000000018,69.270532117060412247
0.178000000000000019,67.553584026555625996
0.179000000000000020,65.870827764589463982
0.180000000000000021,64.221160027040099294
0.181000000000000022,62.602913442505652597
0.182000000000000023,61.014031235449010637
0.183000000000000024,59.452232890073602789
0.184000000000000025,57.915162928847919943
0.185000000000000026,56.400517885698562282
0.186000000000000026,54.906149009101071101
0.187000000000000027,53.430140171491544265
0.188000000000000028,51.970861920619313423
0.189000000000000029,50.527003638304222477
0.190000000000000030,49.097586435242909886
0.191000000000000031,47.681959772339993719
0.192000000000000032,46.279784922523383273
0.193000000000000033,44.891008329777484676
0.194000000000000034,43.515827734819126249
0.195000000000000034,42.154653662379125478
0.196000000000000035,40.808068538705057904
0.197000000000000036,39.476785357704883950
0.198000000000000037,38.161607461624399207
0.199000000000000038,36.863390663133266401
0.200000000000000039,35.583008621208975342
0.201000000000000040,34.321322100319235915
0.202000000000000041,33.079152495001181933
0.203000000000000042,31.857259791444175079
0.204000000000000042,30.656324963665291250
0.205000000000000043,29.476936662558379965
0.206000000000000044,28.319581948817415196
0.207000000000000045,27.184640742253286305
0.208000000000000046,26.072383606814252488
0.209000000000000047,24.982972459087392281
0.210000000000000048,23.916463774680060794
0.211000000000000049,22.872813868325028608
0.212000000000000050,21.851885836745939429
0.213000000000000050,20.853457775500238824
0.214000000000000051,19.877231909737588467
0.215000000000000052,18.922844311968706421
0.216000000000000053,17.989874915740990957
0.217000000000000054,17.077857571078080667
0.218000000000000055,16.186289924455973477
0.219000000000000056,15.314642942007761661
0.220000000000000057,14.462369928838551658
0.221000000000000058,13.628914929270260714
0.222000000000000058,12.813720422143267896
0.223000000000000059,12.016234251769363439
0.224000000000000060,11.235915758639061224
0.225000000000000061,10.472241094530568617
0.226000000000000062,9.724707724305881484
0.227000000000000063,8.992838131532570500
0.228000000000000064,8.276182757299086035
0.229000000000000065,7.574322211386689041
0.230000000000000066,6.886868802535412115
0.231000000000000066,6.213467440110933104
0.232000000000000067,5.553795963270258262
0.233000000000000068,4.907564955953676922
0.234000000000000069,4.274517106912902875
0.235000000000000070,3.654426173721584625
0.236000000000000071,3.047095608494655217
0.237000000000000072,2.452356901039375536
0.238000000000000073,1.870067692535294368
0.239000000000000073,1.300109709735350005
0.240000000000000074,0.742386566220356592
0.241000000000000075,0.196821473542133418
0.242000000000000076,-0.336645098750548211
0.243000000000000077,-0.858057779109021590
0.244000000000000078,-1.367448634797734153
0.245000000000000079,-1.864839470133211830
0.246000000000000080,-2.350244058456019580
0.247000000000000081,-2.823670287684336255
0.248000000000000081,-3.285122202651018064
0.249000000000000082,-3.734601930571443518
0.250000000000000111,-4.172111478911769034
0.251000000000000112,-4.597654397615631439
0.252000000000000113,-5.011237300100739311
0.253000000000000114,-5.412871239650037580
0.254000000000000115,-5.802572939805338947
0.255000000000000115,-6.180365879124027906
0.256000000000000116,-6.546281232195663158
0.257000000000000117,-6.900358670142035855
0.258000000000000118,-7.242647024953898338
0.259000000000000119,-7.573204822963982785
0.260000000000000120,-7.892100693530979427
0.261000000000000121,-8.199413659625852446
0.262000000000000122,-8.495233317486162505
0.263000000000000123,-8.779659912845971803
0.264000000000000123,-9.052804321475239391
0.265000000000000124,-9.314787941882400446
0.266000000000000125,-9.565742508062553995
0.267000000000000126,-9.805809830120066906
0.268000000000000127,-10.035141470471884872
0.269000000000000128,-10.253898363153991724
0.270000000000000129,-10.462250383520025565
0.271000000000000130,-10.660375875345604157
0.272000000000000131,-10.848461142042257421
0.273000000000000131,-11.026699908348824408
0.274000000000000132,-11.195292758512259468
0.275000000000000133,-11.354446556599517848
0.276000000000000134,-11.504373854203276295
0.277000000000000135,-11.645292290420456993
0.278000000000000136,-11.777423988599810656
0.279000000000000137,-11.900994953974034729
0.280000000000000138,-12.016234475918491142
0.281000000000000139,-12.123374538213898433
0.282000000000000139,-12.222649240336584953
0.283000000000000140,-12.314294232459342737
0.284000000000000141,-12.398546166519448519
0.285000000000000142,-12.475642165399543515
0.286000000000000143,-12.545819311972243426
0.287000000000000144,-12.609314159481375128
0.288000000000000145,-12.666362264472386556
0.289000000000000146,-12.717197743240371111
0.290000000000000147,-12.762052852538650072
0.291000000000000147,-12.801157595081278373
0.292000000000000148,-12.834739350181113338
0.293000000000000149,-12.863022529688796780
0.294000000000000150,-12.886228259238595939
0.295000000000000151,-12.904574084662261413
0.296000000000000152,-12.918273703302480371
0.297000000000000153,-12.927536719841910440
0.298000000000000154,-12.932568426161381581
0.299000000000000155,-12.933569604651546925
0.300000000000000155,-12.930736354324491089
0.301000000000000156,-12.924259939005512621
0.302000000000000157,-12.914326656829340223
0.303000000000000158,-12.901117730218942370
0.304000000000000159,-12.884809215488072454
0.305000000000000160,-12.865571931179539789
0.306000000000000161,-12.843571404230578636
0.307000000000000162,-12.818967833042284710
0.308000000000000163,-12.791916066522199813
0.309000000000000163,-12.762565598167533665
0.310000000000000164,-12.731060574259377205
0.311000000000000165,-12.697539815246226880
0.312000000000000166,-12.662136849407236383
0.313000000000000167,-12.624979957901075522
0.314000000000000168,-12.586192230325114139
0.315000000000000169,-12.545891629931345435
0.316000000000000170,-12.504191067669307103
0.317000000000000171,-12.461198484252239638
0.318000000000000171,-12.417016939470157055
0.319000000000000172,-12.371744708002799129
0.320000000000000173,-12.325475381014960874
0.321000000000000174,-12.278297972847806108
0.322000000000000175,-12.230297032150870606
0.323000000000000176,-12.181552756831296236
0.324000000000000177,-12.132141112228390867
0.325000000000000178,-12.082133951953371920
0.326000000000000179,-12.031599140865976594
0.327000000000000179,-11.980600679690263988
0.328000000000000180,-11.929198830802995701
0.329000000000000181,-11.877450244758238185
0.330000000000000182,-11.825408087140656832
0.331000000000000183,-11.773122165369597880
0.332000000000000184,-11.720639055103024617
0.333000000000000185,-11.668002225918090886
0.334000000000000186,-11.615252165970844089
0.335000000000000187,-11.562426505362761731
0.336000000000000187,-11.509560137966239779
0.337000000000000188,-11.456685341483698437
0.338000000000000189,-11.403831895537871688
0.339000000000000190,-11.351027197611434971
0.340000000000000191,-11.298296376674146657
0.341000000000000192,-11.245662404355321939
0.342000000000000193,-11.193146203536821659
0.343000000000000194,-11.140766754259320948
0.344000000000000195,-11.088541196850302484
0.345000000000000195,-11.036484932197765829
0.346000000000000196,-10.984611719107352457
0.347000000000000197,-10.932933768694258703
0.348000000000000198,-10.881461835773427183
0.349000000000000199,-10.830205307223142341
0.350000000000000200,-10.779172287307853040
0.351000000000000201,-10.728369679955861216
0.352000000000000202,-10.677803267996683445
0.353000000000000203,-10.627477789371340577
0.354000000000000203,-10.577397010336396121
0.355000000000000204,-10.527563795689591331
0.356000000000000205,-10.477980176051371330
0.357000000000000206,-10.428647412242362691
0.358000000000000207,-10.379566056801767360
0.359000000000000208,-10.330736012696640103
0.360000000000000209,-10.282156589275924574
0.361000000000000210,-10.233826555526658098
0.362000000000000210,-10.185744190693089450
0.363000000000000211,-10.137907332322049214
0.364000000000000212,-10.090313421800304994
0.365000000000000213,-10.042959547451436819
0.366000000000000214,-9.995842485261544397
0.367000000000000215,-9.948958737304097966
0.368000000000000216,-9.902304567935454216
0.369000000000000217,-9.855876037832951297
0.370000000000000218,-9.809669035948129334
0.371000000000000218,-9.763679309447489629
0.372000000000000219,-9.717902491713459767
0.373000000000000220,-9.672334128477697135
0.374000000000000221,-9.626969702158520548
0.375000000000000222,-9.581804654473504712
0.376000000000000223,-9.536834407397742908
0.377000000000000224,-9.492054382537002510
0.378000000000000225,-9.447460018984248364
0.379000000000000226,-9.403046789726648313
0.380000000000000226,-9.358810216669114723
0.381000000000000227,-9.314745884338783810
0.382000000000000228,-9.270849452333797203
0.383000000000000229,-9.227116666577979132
0.384000000000000230,-9.183543369441469650
0.385000000000000231,-9.140125508786123731
0.386000000000000232,-9.096859145992317153
0.387000000000000233,-9.053740463022696972
0.388000000000000234,-9.010765768576286305
0.389000000000000234,-8.967931503385100811
0.390000000000000235,-8.925234244703251107
0.391000000000000236,-8.882670710037306350
0.392000000000000237,-8.840237760164502134
0.393000000000000238,-8.797932401484237275
0.394000000000000239,-8.755751787745959192
0.395000000000000240,-8.713693221195532246
0.396000000000000241,-8.671754153180071256
0.397000000000000242,-8.629932184249772931
0.398000000000000242,-8.588225063793700542
0.399000000000000243,-8.546630689244830492
0.400000000000000244,-8.505147104888099108
0.401000000000000245,-8.463772500303871738
0.402000000000000246,-8.422505208477428340
0.403000000000000247,-8.381343703603945983
0.404000000000000248,-8.340286598616852842
0.405000000000000249,-8.299332642466135113
0.406000000000000250,-8.258480717171753582
0.407000000000000250,-8.217729834676136491
0.408000000000000251,-8.177079133518365239
0.409000000000000252,-8.136527875351472261
0.410000000000000253,-8.096075441323101529
0.411000000000000254,-8.055721328338638187
0.412000000000000255,-8.015465145224705878
0.413000000000000256,-7.975306608810113218
0.414000000000000257,-7.935245539939899118
0.415000000000000258,-7.895281859437619509
0.416000000000000258,-7.855415584029617371
0.417000000000000259,-7.815646822244405989
0.418000000000000260,-7.775975770299275780
0.419000000000000261,-7.736402707985410743
0.420000000000000262,-7.696927994562027031
0.421000000000000263,-7.657552064669269853
0.422000000000000264,-7.618275424268762031
0.423000000000000265,-7.579098646620161972
0.424000000000000266,-7.540022368301333877
0.425000000000000266,-7.501047285278993115
0.426000000000000267,-7.462174149036259863
0.427000000000000268,-7.423403762762873725
0.428000000000000269,-7.384736977613224340
0.429000000000000270,-7.346174689036959471
0.430000000000000271,-7.307717833186299750
0.431000000000000272,-7.269367383403843696
0.432000000000000273,-7.231124346794063129
0.433000000000000274,-7.192989760881415506
0.434000000000000274,-7.154964690357516588
0.435000000000000275,-7.117050223919396679
0.436000000000000276,-7.079247471200735831
0.437000000000000277,-7.041557559797259280
0.438000000000000278,-7.003981632387592526
0.439000000000000279,-6.966520843950324782
0.440000000000000280,-6.929176359077743541
0.441000000000000281,-6.891949349386601753
0.442000000000000282,-6.854840991026023289
0.443000000000000282,-6.817852462282208315
0.444000000000000283,-6.780984941279754707
0.445000000000000284,-6.744239603778941827
0.446000000000000285,-6.707617621068192371
0.447000000000000286,-6.671120157951023089
0.448000000000000287,-6.634748370826182295
0.449000000000000288,-6.598503405860057569
0.450000000000000289,-6.562386397249876602
0.451000000000000290,-6.526398465576384922
0.452000000000000290,-6.490540716244515451
0.453000000000000291,-6.454814238010404104
0.454000000000000292,-6.419220101593110073
0.455000000000000293,-6.383759358369306192
0.456000000000000294,-6.348433039149108836
0.457000000000000295,-6.313242153031234594
0.458000000000000296,-6.278187686335504836
0.459000000000000297,-6.243270601610847237
0.460000000000000298,-6.208491836716714118
0.461000000000000298,-6.173852303976016920
0.462000000000000299,-6.139352889397465596
0.463000000000000300,-6.104994451965310098
0.464000000000000301,-6.070777822994442019
0.465000000000000302,-6.036703805548799373
0.466000000000000303,-6.002773173920990857
0.467000000000000304,-5.968986673171105650
0.468000000000000305,-5.935345018722692600
0.469000000000000306,-5.901848896013811796
0.470000000000000306,-5.868498960201232961
0.471000000000000307,-5.835295835915638385
0.472000000000000308,-5.802240117066031821
0.473000000000000309,-5.769332366691229730
0.474000000000000310,-5.736573116856604315
0.475000000000000311,-5.703962868594093294
0.476000000000000312,-5.671502091883739993
0.477000000000000313,-5.639191225674727193
0.478000000000000314,-5.607030677944226049
0.479000000000000314,-5.575020825792288193
0.480000000000000315,-5.543162015570904266
0.481000000000000316,-5.511454563045719013
0.482000000000000317,-5.479898753588537730
0.483000000000000318,-5.448494842399135507
0.484000000000000319,-5.417243054754686149
0.485000000000000320,-5.386143586285320417
0.486000000000000321,-5.355196603274265499
0.487000000000000322,-5.324402242981091327
0.488000000000000322,-5.293760613986594699
0.489000000000000323,-5.263271796558047555
0.490000000000000324,-5.232935843033304835
0.491000000000000325,-5.202752778222572871
0.492000000000000326,-5.172722599826455436
0.493000000000000327,-5.142845278869190295
0.494000000000000328,-5.113120760145720922
0.495000000000000329,-5.083548962681591732
0.496000000000000330,-5.054129780204426048
0.497000000000000330,-5.024863081626032901
0.498000000000000331,-4.995748711533968489
0.499000000000000332,-4.966786490691694311
0.500000000000000333,-4.937976216546266173
0.501000000000000334,-4.909317663742654325
0.502000000000000335,-4.880810584643809236
0.503000000000000336,-4.852454709855645199
0.504000000000000337,-4.824249748756067824
0.505000000000000338,-4.796195390027290451
0.506000000000000338,-4.768291302190691638
0.507000000000000339,-4.740537134143476550
0.508000000000000340,-4.712932515696438784
0.509000000000000341,-4.685477058112264004
0.510000000000000342,-4.658170354643585753
0.511000000000000343,-4.631011981070352945
0.512000000000000344,-4.604001496235837543
0.513000000000000345,-4.577138442580793942
0.514000000000000346,-4.550422346675286001
0.515000000000000346,-4.523852719747607054
0.516000000000000347,-4.497429058209911013
0.517000000000000348,-4.471150844180139750
0.518000000000000349,-4.445017545999737862
0.519000000000000350,-4.419028618746900783
0.520000000000000351,-4.393183504744873069
0.521000000000000352,-4.367481634065086382
0.522000000000000353,-4.341922425024707266
0.523000000000000353,-4.316505284678340715
0.524000000000000354,-4.291229609303692349
0.525000000000000355,-4.266094784880783308
0.526000000000000356,-4.241100187564621038
0.527000000000000357,-4.216245184151047987
0.528000000000000358,-4.191529132535558588
0.529000000000000359,-4.166951382164942430
0.530000000000000360,-4.142511274481554651
0.531000000000000361,-4.118208143360085671
0.532000000000000361,-4.094041315536686376
0.533000000000000362,-4.070010111030322619
0.534000000000000363,-4.046113843556285339
0.535000000000000364,-4.022351820931703514
0.536000000000000365,-3.998723345473059076
0.537000000000000366,-3.975227714385578537
0.538000000000000367,-3.951864220144435169
0.539000000000000368,-3.928632150867822581
0.540000000000000369,-3.905530790681697617
0.541000000000000369,-3.882559420076349799
0.542000000000000370,-3.859717316254644537
0.543000000000000371,-3.837003753472002732
0.544000000000000372,-3.814418003368120758
0.545000000000000373,-3.791959335290444155
0.546000000000000374,-3.769627016609369718
0.547000000000000375,-3.747420313025266125
0.548000000000000376,-3.725338488867349973
0.549000000000000377,-3.703380807384396345
0.550000000000000377,-3.681546531027401592
0.551000000000000378,-3.659834921724203660
0.552000000000000379,-3.638245241146184750
0.553000000000000380,-3.616776750967046095
0.554000000000000381,-3.595428713113771657
0.555000000000000382,-3.574200390009887762
0.556000000000000383,-3.553091044810992027
0.557000000000000384,-3.532099941632786511
0.558000000000000385,-3.511226345771556900
0.559000000000000385,-3.490469523917306471
0.560000000000000386,-3.469828744359555905
0.561000000000000387,-3.449303277185979510
0.562000000000000388,-3.428892394473896044
0.563000000000000389,-3.408595370474820641
0.564000000000000390,-3.388411481792077407
0.565000000000000391,-3.368340007551660076
0.566000000000000392,-3.348380229566417121
0.567000000000000393,-3.328531432493678999
0.568000000000000393,-3.308792903986433664
0.569000000000000394,-3.289163934838157388
0.570000000000000395,-3.269643819121483830
0.571000000000000396,-3.250231854320689617
0.572000000000000397,-3.230927341458274871
0.573000000000000398,-3.211729585215621796
0.574000000000000399,-3.192637894047951619
0.575000000000000400,-3.173651580293610497
0.576000000000000401,-3.154769960277859386
0.577000000000000401,-3.135992354411302419
0.578000000000000402,-3.117318087282989758
0.579000000000000403,-3.098746487748390344
0.580000000000000404,-3.080276889012340202
0.581000000000000405,-3.061908628707045832
0.582000000000000406,-3.043641048965301632
0.583000000000000407,-3.025473496489000880
0.584000000000000408,-3.007405322613105891
0.585000000000000409,-2.989435883365130220
0.586000000000000409,-2.971564539520295867
0.587000000000000410,-2.953790656652468094
0.588000000000000411,-2.936113605180945108
0.589000000000000412,-2.918532760413287352
0.590000000000000413,-2.901047502584203297
0.591000000000000414,-2.883657216890672892
0.592000000000000415,-2.866361293523411735
0.593000000000000416,-2.849159127694717686
0.594000000000000417,-2.832050119662870014
0.595000000000000417,-2.815033674753208537
0.596000000000000418,-2.798109203375855447
0.597000000000000419,-2.781276121040388460
0.598000000000000420,-2.764533848367361379
0.599000000000000421,-2.747881811096922533
0.600000000000000422,-2.731319440094534645
0.601000000000000423,-2.714846171353939575
0.602000000000000424,-2.698461445997440311
0.603000000000000425,-2.682164710273608588
0.604000000000000425,-2.665955415552478058
0.605000000000000426,-2.649833018318340283
0.606000000000000427,-2.633796980160263868
0.607000000000000428,-2.617846767760277693
0.608000000000000429,-2.601981852879546864
0.609000000000000430,-2.586201712342336201
0.610000000000000431,-2.570505828018119665
