# Montmorillonite-001-NaCEC90_ACETALDEHYDE-AC
# h[nm],U(h)[kJ/mol]
0.149999999999999994,55.040769849392084723
0.150999999999999995,53.870186121068591945
0.151999999999999996,52.958236032956577333
0.152999999999999997,52.126075736245198300
0.153999999999999998,51.297694123549661072
0.154999999999999999,50.450352504141257270
0.156000000000000000,49.585885465127411464
0.157000000000000001,48.714948153290876576
0.158000000000000002,47.849067815806378690
0.159000000000000002,46.997216454481510084
0.160000000000000003,46.164854123317930146
0.161000000000000004,45.354198837429585467
0.162000000000000005,44.564997954554101511
0.163000000000000006,43.795402803036424189
0.164000000000000007,43.042748662365511336
0.165000000000000008,42.304160354067064986
0.166000000000000009,41.576969529812934923
0.167000000000000010,40.858963099996422841
0.168000000000000010,40.148496142271845599
0.169000000000000011,39.444505446751200850
0.170000000000000012,38.746456868766415482
0.171000000000000013,38.054254091744695643
0.172000000000000014,37.368130132387847198
0.173000000000000015,36.688536972603280617
0.174000000000000016,36.016043569625104226
0.175000000000000017,35.351248350403146503
0.176000000000000018,34.694709130586495860
0.177000000000000018,34.046891110883706233
0.178000000000000019,33.408132053340132472
0.179000000000000020,32.778622778358332823
0.180000000000000021,32.158400610849177781
0.181000000000000022,31.547353219346451425
0.182000000000000023,30.945230334654343807
0.183000000000000024,30.351661024577559544
0.184000000000000025,29.766174477112496533
0.185000000000000026,29.188222560781269976
0.186000000000000026,28.617202755386159652
0.187000000000000027,28.052480357684366652
0.188000000000000028,27.493409150781396022
0.189000000000000029,26.939349975940121595
0.190000000000000030,26.389686857929415709
0.191000000000000031,25.843840509971681030
0.192000000000000032,25.301279183796271610
0.193000000000000033,24.761526937489236389
0.194000000000000034,24.224169472622854471
0.195000000000000034,23.688857746650064939
0.196000000000000035,23.155309600804841352
0.197000000000000036,22.623309661563201445
0.198000000000000037,22.092707778545044306
0.199000000000000038,21.563416256620250522
0.200000000000000039,21.035406127548025523
0.201000000000000040,20.508702688933460934
0.202000000000000041,19.983380517451159619
0.203000000000000042,19.459558140629322764
0.204000000000000042,18.937392528162533267
0.205000000000000043,18.417073540614588012
0.206000000000000044,17.898818451135063867
0.207000000000000045,17.382866634911856352
0.208000000000000046,16.869474501820256762
0.209000000000000047,16.358910730290311619
0.210000000000000048,15.851451844877439967
0.211000000000000049,15.347378166396007160
0.212000000000000050,14.846970151706335272
0.213000000000000050,14.350505130245982954
0.214000000000000051,13.858254436042116708
0.215000000000000052,13.370480927101079160
0.216000000000000053,12.887436878595773138
0.217000000000000054,12.409362232014919059
0.218000000000000055,11.936483179253972509
0.219000000000000056,11.469011058376604950
0.220000000000000057,11.007141536323317155
0.221000000000000058,10.551054053072238759
0.222000000000000058,10.100911501548123894
0.223000000000000059,9.656860117834128232
0.224000000000000060,9.219029556872117226
0.225000000000000061,8.787533129763735573
0.226000000000000062,8.362468179935744317
0.227000000000000063,7.943916576748914160
0.228000000000000064,7.531945306559206799
0.229000000000000065,7.126607142737737988
0.230000000000000066,6.727941377688303248
0.231000000000000066,6.335974601434861242
0.232000000000000067,5.950721512864970641
0.233000000000000068,5.572185751186682801
0.234000000000000069,5.200360736572688936
0.235000000000000070,4.835230510313876628
0.236000000000000071,4.476770566077869162
0.237000000000000072,4.124948665059418929
0.238000000000000073,3.779725628917321334
0.239000000000000073,3.441056105414669108
0.240000000000000074,3.108889302614451289
0.241000000000000075,2.783169688335282110
0.242000000000000076,2.463837652341664075
0.243000000000000077,2.150830129434270876
0.244000000000000078,1.844081182222068183
0.245000000000000079,1.543522542902521888
0.246000000000000080,1.249084113855010392
0.247000000000000081,0.960694427267485218
0.248000000000000081,0.678281064375009457
0.249000000000000082,0.401771035193373927
0.250000000000000111,0.131091119886709684
0.251000000000000112,-0.133831826880352528
0.252000000000000113,-0.393070607085159895
0.253000000000000114,-0.646697444327749005
0.254000000000000115,-0.894783780892616121
0.255000000000000115,-1.137400105060736522
0.256000000000000116,-1.374615806794474704
0.257000000000000117,-1.606499059893661707
0.258000000000000118,-1.833116728716304822
0.259000000000000119,-2.054534297570249635
0.260000000000000120,-2.270815820909585447
0.261000000000000121,-2.482023892509082064
0.262000000000000122,-2.688219631840726542
0.263000000000000123,-2.889462685935066055
0.264000000000000123,-3.085811245076406362
0.265000000000000124,-3.277322070752188843
0.266000000000000125,-3.464050534352843158
0.267000000000000126,-3.646050665196918228
0.268000000000000127,-3.823375206537436011
0.269000000000000128,-3.996075678286835853
0.270000000000000129,-4.164202445280167808
0.271000000000000130,-4.327804789978011435
0.272000000000000131,-4.486930988591000258
0.273000000000000131,-4.641628389687231682
0.274000000000000132,-4.791943494420908500
0.275000000000000133,-4.937922037595589231
0.276000000000000134,-5.079609068847818598
0.277000000000000135,-5.217049033306180306
0.278000000000000136,-5.350285851147727811
0.279000000000000137,-5.479362995537004011
0.280000000000000138,-5.604323568492906915
0.281000000000000139,-5.725210374286009873
0.282000000000000139,-5.842065990022211608
0.283000000000000140,-5.954932833119213065
0.284000000000000141,-6.063853225429340021
0.285000000000000142,-6.168869453806157033
0.286000000000000143,-6.270023826953120327
0.287000000000000144,-6.367358728430069448
0.288000000000000145,-6.460916665728407615
0.289000000000000146,-6.550740315357205468
0.290000000000000147,-6.636872563912024070
0.291000000000000147,-6.719356545124311353
0.292000000000000148,-6.798235672913449434
0.293000000000000149,-6.873553670484743527
0.294000000000000150,-6.945354595536059605
0.295000000000000151,-7.013682861652775102
0.296000000000000152,-7.078583255985753553
0.297000000000000153,-7.140100953320062338
0.298000000000000154,-7.198281526653628859
0.299000000000000155,-7.253170954414416727
0.300000000000000155,-7.304815624452958289
0.301000000000000156,-7.353262334953527102
0.302000000000000157,-7.398558292412647397
0.303000000000000158,-7.440751106837479867
0.304000000000000159,-7.479888784319716599
0.305000000000000160,-7.516019717142183865
0.306000000000000161,-7.549192671576561153
0.307000000000000162,-7.579456773530361957
0.308000000000000163,-7.606861492200738262
0.309000000000000163,-7.631456621891141268
0.310000000000000164,-7.653292262144807623
0.311000000000000165,-7.672418796346359038
0.312000000000000166,-7.688886868939716734
0.313000000000000167,-7.702747361406933280
0.314000000000000168,-7.714051367148544891
0.315000000000000169,-7.722850165401861311
0.316000000000000170,-7.729195194329089524
0.317000000000000171,-7.733138023402259087
0.318000000000000171,-7.734730325207172186
0.319000000000000172,-7.734023846783403044
0.320000000000000173,-7.731070380612209192
0.321000000000000174,-7.725921735358869391
0.322000000000000175,-7.718629706470800045
0.323000000000000176,-7.709246046727327162
0.324000000000000177,-7.697822436831796900
0.325000000000000178,-7.684410456131184119
0.326000000000000179,-7.669061553543535581
0.327000000000000179,-7.651827018767953348
0.328000000000000180,-7.632757953846986076
0.329000000000000181,-7.611905245146419752
0.330000000000000182,-7.589319535812196094
0.331000000000000183,-7.565051198759926265
0.332000000000000184,-7.539150310247410225
0.333000000000000185,-7.511666624076376308
0.334000000000000186,-7.482649546465215629
0.335000000000000187,-7.452148111630256366
0.336000000000000187,-7.420210958109258570
0.337000000000000188,-7.386886305856647184
0.338000000000000189,-7.352221934136639270
0.339000000000000190,-7.316265160236622656
0.340000000000000191,-7.279062819019754826
0.341000000000000192,-7.240661243332739971
0.342000000000000193,-7.201106245281363449
0.343000000000000194,-7.160443098383781901
0.344000000000000195,-7.118716520608447063
0.345000000000000195,-7.075970658301353744
0.346000000000000196,-7.032249071004476271
0.347000000000000197,-6.987594717165198865
0.348000000000000198,-6.942049940734361435
0.349000000000000199,-6.895656458648386611
0.350000000000000200,-6.848455349189316976
0.351000000000000201,-6.800487041214610784
0.352000000000000202,-6.751791304247133141
0.353000000000000203,-6.702407239414159612
0.354000000000000203,-6.652373271222958628
0.355000000000000204,-6.601727140159122875
0.356000000000000205,-6.550505896092881031
0.357000000000000206,-6.498745892477428399
0.358000000000000207,-6.446482781322464106
0.359000000000000208,-6.393751508925284099
0.360000000000000209,-6.340586312341068620
0.361000000000000210,-6.287020716573316292
0.362000000000000210,-6.233087532464861802
0.363000000000000211,-6.178818855269374133
0.364000000000000212,-6.124246063882965885
0.365000000000000213,-6.069399820715004168
0.366000000000000214,-6.014310072177188715
0.367000000000000215,-5.959006049769551616
0.368000000000000216,-5.903516271742080157
0.369000000000000217,-5.847868545310432431
0.370000000000000218,-5.792089969404323746
0.371000000000000218,-5.736206937927045502
0.372000000000000219,-5.680245143504777161
0.373000000000000220,-5.624229581704381253
0.374000000000000221,-5.568184555698588056
0.375000000000000222,-5.512133681357532566
0.376000000000000223,-5.456099892746038904
0.377000000000000224,-5.400105448006117470
0.378000000000000225,-5.344171935604483892
0.379000000000000226,-5.288320280925248085
0.380000000000000226,-5.232570753188232615
0.381000000000000227,-5.176942972673666432
0.382000000000000228,-5.121455918234500082
0.383000000000000229,-5.066127935077877176
0.384000000000000230,-5.010976742797675243
0.385000000000000231,-4.956019443640593991
0.386000000000000232,-4.901272530988509679
0.387000000000000233,-4.846751898040400519
0.388000000000000234,-4.792472846677451770
0.389000000000000234,-4.738450096495570918
0.390000000000000235,-4.684697793989816006
0.391000000000000236,-4.631229521875862787
0.392000000000000237,-4.578058308533938359
0.393000000000000238,-4.525196637561273327
0.394000000000000239,-4.472656457419455833
0.395000000000000240,-4.420449191163603686
0.396000000000000241,-4.368585746240714940
0.397000000000000242,-4.317076524344994226
0.398000000000000242,-4.265931431318454869
0.399000000000000243,-4.215159887085511592
0.400000000000000244,-4.164770835610660527
0.401000000000000245,-4.114772754868994298
0.402000000000000246,-4.065173666819462461
0.403000000000000247,-4.015981147371401327
0.404000000000000248,-3.967202336335225343
0.405000000000000249,-3.918843947348597201
0.406000000000000250,-3.870912277769735788
0.407000000000000250,-3.823413218530059332
0.408000000000000251,-3.776352263938553389
0.409000000000000252,-3.729734521430874139
0.410000000000000253,-3.683564721256327168
0.411000000000000254,-3.637847226096430742
0.412000000000000255,-3.592586040608979570
0.413000000000000256,-3.547784820891989543
0.414000000000000257,-3.503446883862122441
0.415000000000000258,-3.459575216542641662
0.416000000000000258,-3.416172485256160574
0.417000000000000259,-3.373241044717824710
0.418000000000000260,-3.330782947024851559
0.419000000000000261,-3.288799950538609185
0.420000000000000262,-3.247293528655759154
0.421000000000000263,-3.206264878465211243
0.422000000000000264,-3.165714929287914536
0.423000000000000265,-3.125644351096744877
0.424000000000000266,-3.086053562814108364
0.425000000000000266,-3.046942740484879231
0.426000000000000267,-3.008311825322796729
0.427000000000000268,-2.970160531628452283
0.428000000000000269,-2.932488354577313938
0.429000000000000270,-2.895294577876441622
0.430000000000000271,-2.858578281288631562
0.431000000000000272,-2.822338348023092802
0.432000000000000273,-2.786573471991764528
0.433000000000000274,-2.751282164930675567
0.434000000000000274,-2.716462763385818047
0.435000000000000275,-2.682113435563260317
0.436000000000000276,-2.648232188043286861
0.437000000000000277,-2.614816872358518118
0.438000000000000278,-2.581865191436150564
0.439000000000000279,-2.549374705904514649
0.440000000000000280,-2.517342840264285009
0.441000000000000281,-2.485766888924836326
0.442000000000000282,-2.454644022106324375
0.443000000000000282,-2.423971291608097101
0.444000000000000283,-2.393745636444314595
0.445000000000000284,-2.363963888347564879
0.446000000000000285,-2.334622777141418304
0.447000000000000286,-2.305718935983056106
0.448000000000000287,-2.277248906476930124
0.449000000000000288,-2.249209143660780619
0.450000000000000289,-2.221596020865147292
0.451000000000000290,-2.194405834447737291
0.452000000000000290,-2.167634808404021562
0.453000000000000291,-2.141279098855427332
0.454000000000000292,-2.115334798416665940
0.455000000000000293,-2.089797940443633539
0.456000000000000294,-2.064664503163505582
0.457000000000000295,-2.039930413688578081
0.458000000000000296,-2.015591551915487223
0.459000000000000297,-1.991643754311477554
0.460000000000000298,-1.968082817589390299
0.461000000000000298,-1.944904502273092861
0.462000000000000299,-1.922104536155073706
0.463000000000000300,-1.899678617647939660
0.464000000000000301,-1.877622419031611090
0.465000000000000302,-1.855931589597985765
0.466000000000000303,-1.834601758694829332
0.467000000000000304,-1.813628538670727597
0.468000000000000305,-1.793007527722910055
0.469000000000000306,-1.772734312649712596
0.470000000000000306,-1.752804471509551876
0.471000000000000307,-1.733213576188153748
0.472000000000000308,-1.713957194875920909
0.473000000000000309,-1.695030894457179915
0.474000000000000310,-1.676430242813168103
0.475000000000000311,-1.658150811040496109
0.476000000000000312,-1.640188175586968056
0.477000000000000313,-1.622537920306417636
0.478000000000000314,-1.605195638434428362
0.479000000000000314,-1.588156934486667726
0.480000000000000315,-1.571417426081540780
0.481000000000000316,-1.554972745688970370
0.482000000000000317,-1.538818542306939818
0.483000000000000318,-1.522950483067559535
0.484000000000000319,-1.507364254774300694
0.485000000000000320,-1.492055565372109704
0.486000000000000321,-1.477020145351988223
0.487000000000000322,-1.462253749091734445
0.488000000000000322,-1.447752156134389789
0.489000000000000323,-1.433511172406053191
0.490000000000000324,-1.419526631374573356
0.491000000000000325,-1.405794395150696374
0.492000000000000326,-1.392310355533179500
0.493000000000000327,-1.379070434999402073
0.494000000000000328,-1.366070587642927991
0.495000000000000329,-1.353306800059499437
0.496000000000000330,-1.340775092182888706
0.497000000000000330,-1.328471518072035895
0.498000000000000331,-1.316392166650835360
0.499000000000000332,-1.304533162401989133
0.500000000000000333,-1.292890666016224266
0.501000000000000334,-1.281460874998213928
0.502000000000000335,-1.270240024230502529
0.503000000000000336,-1.259224386496715198
0.504000000000000337,-1.248410272965281287
0.505000000000000338,-1.237794033634916691
0.506000000000000338,-1.227372057743069123
0.507000000000000339,-1.217140774138482984
0.508000000000000340,-1.207096651619066874
0.509000000000000341,-1.197236199236195731
0.510000000000000342,-1.187555966566526955
0.511000000000000343,-1.178052543952455178
0.512000000000000344,-1.168722562712236845
0.513000000000000345,-1.159562695320844661
0.514000000000000346,-1.150569655562581506
0.515000000000000346,-1.141740198656401528
0.516000000000000347,-1.133071121354956912
0.517000000000000348,-1.124559262018325123
0.518000000000000349,-1.116201500663291935
0.519000000000000350,-1.107994758989160333
0.520000000000000351,-1.099936000380931533
0.521000000000000352,-1.092022229890743823
0.522000000000000353,-1.084250494198405246
0.523000000000000353,-1.076617881551828138
0.524000000000000354,-1.069121521688215504
0.525000000000000355,-1.061758585736724880
0.526000000000000356,-1.054526286103408150
0.527000000000000357,-1.047421876339180047
0.528000000000000358,-1.040442650991489693
0.529000000000000359,-1.033585945440474108
0.530000000000000360,-1.026849135720208750
0.531000000000000361,-1.020229638325780064
0.532000000000000361,-1.013724910006791990
0.533000000000000362,-1.007332447547971022
0.534000000000000363,-1.001049787537457991
0.535000000000000364,-0.994874506123401781
0.536000000000000365,-0.988804218759437581
0.537000000000000366,-0.982836579939606714
0.538000000000000367,-0.976969282923259241
0.539000000000000368,-0.971200059450515241
0.540000000000000369,-0.965526679448732716
0.541000000000000369,-0.959946950730555137
0.542000000000000370,-0.954458718683978247
0.543000000000000371,-0.949059865954924753
0.544000000000000372,-0.943748312122793420
0.545000000000000373,-0.938522013369415653
0.546000000000000374,-0.933378962141846125
0.547000000000000375,-0.928317186809416106
0.548000000000000376,-0.923334751315454505
0.549000000000000377,-0.918429754824056310
0.550000000000000377,-0.913600331362269480
0.551000000000000378,-0.908844649458101062
0.552000000000000379,-0.904160911774648746
0.553000000000000380,-0.899547354740747096
0.554000000000000381,-0.895002248178407234
0.555000000000000382,-0.890523894927429227
0.556000000000000383,-0.886110630467427440
0.557000000000000384,-0.881760822537633771
0.558000000000000385,-0.877472870754703704
0.559000000000000385,-0.873245206228855375
0.560000000000000386,-0.869076291178559002
0.561000000000000387,-0.864964618544076358
0.562000000000000388,-0.860908711600062992
0.563000000000000389,-0.856907123567498652
0.564000000000000390,-0.852958437225147192
0.565000000000000391,-0.849061264520792447
0.566000000000000392,-0.845214246182440787
0.567000000000000393,-0.841416051329708536
0.568000000000000393,-0.837665377085570872
0.569000000000000394,-0.833960948188683715
0.570000000000000395,-0.830301516606431589
0.571000000000000396,-0.826685861148889423
0.572000000000000397,-0.823112787083867148
0.573000000000000398,-0.819581125753167994
0.574000000000000399,-0.816089734190248550
0.575000000000000400,-0.812637494739385957
0.576000000000000401,-0.809223314676513761
0.577000000000000401,-0.805846125831861881
0.578000000000000402,-0.802504884214497949
0.579000000000000403,-0.799198569638905121
0.580000000000000404,-0.795926185353726501
0.581000000000000405,-0.792686757672744879
0.582000000000000406,-0.789479335608232358
0.583000000000000407,-0.786302990506751232
0.584000000000000408,-0.783156815687498509
0.585000000000000409,-0.780039926083279433
0.586000000000000409,-0.776951457884206276
0.587000000000000410,-0.773890568184170902
0.588000000000000411,-0.770856434630189158
0.589000000000000412,-0.767848255074678576
0.590000000000000413,-0.764865247230717915
0.591000000000000414,-0.761906648330366254
0.592000000000000415,-0.758971714786097928
0.593000000000000416,-0.756059721855383726
0.594000000000000417,-0.753169963308486845
0.595000000000000417,-0.750301751099523462
0.596000000000000418,-0.747454415040788023
0.597000000000000419,-0.744627302480444953
0.598000000000000420,-0.741819777983557249
0.599000000000000421,-0.739031223016526795
0.600000000000000422,-0.736261035634955929
0.601000000000000423,-0.733508630174959597
0.602000000000000424,-0.730773436947945498
0.603000000000000425,-0.728054901938897769
0.604000000000000425,-0.725352486508160199
0.605000000000000426,-0.722665667096739517
0.606000000000000427,-0.719993934935173274
0.607000000000000428,-0.717336795755891488
0.608000000000000429,-0.714693769509202492
0.609000000000000430,-0.712064390082761678
0.610000000000000431,-0.709448205024672873
0.611000000000000432,-0.706844775270111136
0.612000000000000433,-0.704253674871514690
0.613000000000000433,-0.701674490732359990
