# Montmorillonite-001-NaCEC90_1HIMIDAZOLE-AC
# h[nm],U(h)[kJ/mol]
0.149999999999999994,82.336724680983579105
0.150999999999999995,80.625952034942088176
0.151999999999999996,79.232032455498085710
0.152999999999999997,77.905742968371427537
0.153999999999999998,76.559984184893110637
0.154999999999999999,75.182367011020886594
0.156000000000000000,73.788446051978112905
0.157000000000000001,72.398773972638252872
0.158000000000000002,71.029308369987631977
0.159000000000000002,69.688824206246323456
0.160000000000000003,68.379613831576492089
0.161000000000000004,67.099399927090672691
0.162000000000000005,65.843387382423372856
0.163000000000000006,64.605968401873496987
0.164000000000000007,63.381923929257617090
0.165000000000000008,62.167134134962211078
0.166000000000000009,60.958886080170785249
0.167000000000000010,59.755888909530256115
0.168000000000000010,58.558101501220846785
0.169000000000000011,57.366459688087317659
0.170000000000000012,56.182568681972291813
0.171000000000000013,55.008405818099653573
0.172000000000000014,53.846061331858706467
0.173000000000000015,52.697531282463998537
0.174000000000000016,51.564566852500753669
0.175000000000000017,50.448577601523233227
0.176000000000000018,49.350582215938615605
0.177000000000000018,48.271198250582159517
0.178000000000000019,47.210661737309465025
0.179000000000000020,46.168867872876120373
0.180000000000000021,45.145424921175653310
0.181000000000000022,44.139714694223073366
0.182000000000000023,43.150954312051794659
0.183000000000000024,42.178255248680265765
0.184000000000000025,41.220676864934517880
0.185000000000000026,40.277272662674612036
0.186000000000000026,39.347128349757518606
0.187000000000000027,38.429391480540338932
0.188000000000000028,37.523292944612180122
0.189000000000000029,36.628160935469125548
0.190000000000000030,35.743428263068736328
0.191000000000000031,34.868634002452800758
0.192000000000000032,34.003420516821122987
0.193000000000000033,33.147526877544386537
0.194000000000000034,32.300779643091587445
0.195000000000000034,31.463081868483833148
0.196000000000000035,30.634401108757089105
0.197000000000000036,29.814757063597664200
0.198000000000000037,29.004209393126057392
0.199000000000000038,28.202846122112987359
0.200000000000000039,27.410772945432238856
0.201000000000000040,26.628103653651812976
0.202000000000000041,25.854951815623582689
0.203000000000000042,25.091423785206472985
0.204000000000000042,24.337613041673733960
0.205000000000000043,23.593595827299122192
0.206000000000000044,22.859428010168159062
0.207000000000000045,22.135143074324737711
0.208000000000000046,21.420751121749965762
0.209000000000000047,20.716238760170710975
0.210000000000000048,20.021569746133490497
0.211000000000000049,19.336686253046678985
0.212000000000000050,18.661510637968895310
0.213000000000000050,17.995947587896335307
0.214000000000000051,17.339886535368492559
0.215000000000000052,16.693204243684892418
0.216000000000000053,16.055767473320415206
0.217000000000000054,15.427435652763316298
0.218000000000000055,14.808063488590519796
0.219000000000000056,14.197503460836923495
0.220000000000000057,13.595608160374530016
0.221000000000000058,13.002232434935077521
0.222000000000000058,12.417235319464825949
0.223000000000000059,11.840481734636394862
0.224000000000000060,11.271843944523377345
0.225000000000000061,10.711202770675308571
0.226000000000000062,10.158448565136431796
0.227000000000000063,9.613481949374483193
0.228000000000000064,9.076214329682773752
0.229000000000000065,8.546568202451734209
0.230000000000000066,8.024477264849100067
0.231000000000000066,7.509886347968968145
0.232000000000000067,7.002751190485800414
0.233000000000000068,6.503038071348567151
0.234000000000000069,6.010723320142666637
0.235000000000000070,5.525792723496776304
0.236000000000000071,5.048240845379308617
0.237000000000000072,4.578070278367944113
0.238000000000000073,4.115290842037857999
0.239000000000000073,3.659918743543433273
0.240000000000000074,3.211975714302106155
0.241000000000000075,2.771488135465590474
0.242000000000000076,2.338486163609392321
0.243000000000000077,1.913002866812651970
0.244000000000000078,1.495073380058527635
0.245000000000000079,1.084734087676416436
0.246000000000000080,0.682021839387025208
0.247000000000000081,0.286973205407646592
0.248000000000000081,-0.100376224960850413
0.249000000000000082,-0.479992497808377494
0.250000000000000111,-0.851843899583514585
0.251000000000000112,-1.215901510798154339
0.252000000000000113,-1.572139707446697843
0.253000000000000114,-1.920536609772832914
0.254000000000000115,-2.261074478600075821
0.255000000000000115,-2.593740059950315757
0.256000000000000116,-2.918524879115466764
0.257000000000000117,-3.235425485722077887
0.258000000000000118,-3.544443651642227966
0.259000000000000119,-3.845586523861209027
0.260000000000000120,-4.138866734617311138
0.261000000000000121,-4.424302471285275651
0.262000000000000122,-4.701917508589099626
0.263000000000000123,-4.971741205803623664
0.264000000000000123,-5.233808471644605831
0.265000000000000124,-5.488159699555532178
0.266000000000000125,-5.734840676081790711
0.267000000000000126,-5.973902464981373228
0.268000000000000127,-6.205401269660818286
0.269000000000000128,-6.429398276446773863
0.270000000000000129,-6.645959481112441836
0.271000000000000130,-6.855155500975510741
0.272000000000000131,-7.057061374772497508
0.273000000000000131,-7.251756352396699690
0.274000000000000132,-7.439323676464061563
0.275000000000000133,-7.619850357545907116
0.276000000000000134,-7.793426944780634358
0.277000000000000135,-7.960147293449121086
0.278000000000000136,-8.120108330973284438
0.279000000000000137,-8.273409822673258418
0.280000000000000138,-8.420154138497768059
0.281000000000000139,-8.560446021825498519
0.282000000000000139,-8.694392361322071494
0.283000000000000140,-8.822101966729237077
0.284000000000000141,-8.943685349359551395
0.285000000000000142,-9.059254507972102743
0.286000000000000143,-9.168922720612332711
0.287000000000000144,-9.272804342912014164
0.288000000000000145,-9.371014613264728510
0.289000000000000146,-9.463669465215817311
0.290000000000000147,-9.550885347336441455
0.291000000000000147,-9.632779050786151487
0.292000000000000148,-9.709467544709516673
0.293000000000000149,-9.781067819557749843
0.294000000000000150,-9.847696738377262449
0.295000000000000151,-9.909470896062607892
0.296000000000000152,-9.966506486531098830
0.297000000000000153,-10.018919177740999160
0.298000000000000154,-10.066823994443389267
0.299000000000000155,-10.110335208530209172
0.300000000000000155,-10.149566236816761844
0.301000000000000156,-10.184629546076170215
0.302000000000000157,-10.215636565125709723
0.303000000000000158,-10.242697603750070101
0.304000000000000159,-10.265921778234618600
0.305000000000000160,-10.285416943272050361
0.306000000000000161,-10.301289629998432673
0.307000000000000162,-10.313644989909477090
0.308000000000000163,-10.322586744404169679
0.309000000000000163,-10.328217139701342475
0.310000000000000164,-10.330636906874419267
0.311000000000000165,-10.329945226750549381
0.312000000000000166,-10.326239699422847806
0.313000000000000167,-10.319616318127547316
0.314000000000000168,-10.310169447242266472
0.315000000000000169,-10.297991804166532148
0.316000000000000170,-10.283174444851621132
0.317000000000000171,-10.265806752752743236
0.318000000000000171,-10.245976430983697369
0.319000000000000172,-10.223769497461100642
0.320000000000000173,-10.199270282832886281
0.321000000000000174,-10.172561430993285470
0.322000000000000175,-10.143723901994601277
0.323000000000000176,-10.112836977173945030
0.324000000000000177,-10.079978266321129254
0.325000000000000178,-10.045223716721901397
0.326000000000000179,-10.008647623918914604
0.327000000000000179,-9.970322644040468418
0.328000000000000180,-9.930319807554910838
0.329000000000000181,-9.888708534316593912
0.330000000000000182,-9.845556649776131763
0.331000000000000183,-9.800930402235762173
0.332000000000000184,-9.754894481037101883
0.333000000000000185,-9.707512035575847520
0.334000000000000186,-9.658844695044546569
0.335000000000000187,-9.608952588810906192
0.336000000000000187,-9.557894367345479480
0.337000000000000188,-9.505727223618171351
0.338000000000000189,-9.452506914889163170
0.339000000000000190,-9.398287784824809421
0.340000000000000191,-9.343122785874495406
0.341000000000000192,-9.287063501849383229
0.342000000000000193,-9.230160170648437301
0.343000000000000194,-9.172461707081859927
0.344000000000000195,-9.114015725745858276
0.345000000000000195,-9.054868563907112033
0.346000000000000196,-8.995065304358508484
0.347000000000000197,-8.934649798211637517
0.348000000000000198,-8.873664687594647660
0.349000000000000199,-8.812151428227064542
0.350000000000000200,-8.750150311846301321
0.351000000000000201,-8.687700488463027781
0.352000000000000202,-8.624839988425184956
0.353000000000000203,-8.561605744272844376
0.354000000000000203,-8.498033612368093515
0.355000000000000204,-8.434158394286232152
0.356000000000000205,-8.370013857956447367
0.357000000000000206,-8.305632758541822369
0.358000000000000207,-8.241046859049941276
0.359000000000000208,-8.176286950667085662
0.360000000000000209,-8.111382872810120048
0.361000000000000210,-8.046363532891405157
0.362000000000000210,-7.981256925793209334
0.363000000000000211,-7.916090153049067268
0.364000000000000212,-7.850889441730475760
0.365000000000000213,-7.785680163037994816
0.366000000000000214,-7.720486850596725681
0.367000000000000215,-7.655333218456634725
0.368000000000000216,-7.590242178798900952
0.369000000000000217,-7.525235859349852952
0.370000000000000218,-7.460335620504634946
0.371000000000000218,-7.395562072163005318
0.372000000000000219,-7.330935090280135569
0.373000000000000220,-7.266473833135483673
0.374000000000000221,-7.202196757323179099
0.375000000000000222,-7.138121633467321203
0.376000000000000223,-7.074265561666112312
0.377000000000000224,-7.010644986668632228
0.378000000000000225,-6.947275712788171020
0.379000000000000226,-6.884172918556333620
0.380000000000000226,-6.821351171121942336
0.381000000000000227,-6.758824440398899291
0.382000000000000228,-6.696606112967264046
0.383000000000000229,-6.634709005731656006
0.384000000000000230,-6.573145379341115202
0.385000000000000231,-6.511926951374649164
0.386000000000000232,-6.451064909296464478
0.387000000000000233,-6.390569923184920675
0.388000000000000234,-6.330452158239189941
0.389000000000000234,-6.270721287067551941
0.390000000000000235,-6.211386501761042567
0.391000000000000236,-6.152456525756357486
0.392000000000000237,-6.093939625491467282
0.393000000000000238,-6.035843621857717167
0.394000000000000239,-5.978175901451705521
0.395000000000000240,-5.920943427630467326
0.396000000000000241,-5.864152751373176820
0.397000000000000242,-5.807810021952573010
0.398000000000000242,-5.751920997419275317
0.399000000000000243,-5.696491054901946960
0.400000000000000244,-5.641525200726224654
0.401000000000000245,-5.587028080355347370
0.402000000000000246,-5.533003988155128283
0.403000000000000247,-5.479456876985977942
0.404000000000000248,-5.426390367624600586
0.405000000000000249,-5.373807758017837166
0.406000000000000250,-5.321712032371070933
0.407000000000000250,-5.270105870073619414
0.408000000000000251,-5.218991654463299490
0.409000000000000252,-5.168371481432521009
0.410000000000000253,-5.118247167877929549
0.411000000000000254,-5.068620259995797461
0.412000000000000255,-5.019492041425139384
0.413000000000000256,-4.970863541240595040
0.414000000000000257,-4.922735541796925851
0.415000000000000258,-4.875108586427119306
0.416000000000000258,-4.827982986995833059
0.417000000000000259,-4.781358831310045687
0.418000000000000260,-4.735235990388661165
0.419000000000000261,-4.689614125592731497
0.420000000000000262,-4.644492695618049005
0.421000000000000263,-4.599870963351744280
0.422000000000000264,-4.555748002594474322
0.423000000000000265,-4.512122704649805804
0.424000000000000266,-4.468993784782445466
0.425000000000000266,-4.426359788546728069
0.426000000000000267,-4.384219097986984615
0.427000000000000268,-4.342569937711285633
0.428000000000000269,-4.301410380839992165
0.429000000000000270,-4.260738354830676755
0.430000000000000271,-4.220551647180791122
0.431000000000000272,-4.180847911009566431
0.432000000000000273,-4.141624670520590357
0.433000000000000274,-4.102879326346466016
0.434000000000000274,-4.064609160776962327
0.435000000000000275,-4.026811342872089305
0.436000000000000276,-3.989482933461502512
0.437000000000000277,-3.952620890031573797
0.438000000000000278,-3.916222071501591184
0.439000000000000279,-3.880283242890452122
0.440000000000000280,-3.844801079875186822
0.441000000000000281,-3.809772173242736759
0.442000000000000282,-3.775193033236383222
0.443000000000000282,-3.741060093798097341
0.444000000000000283,-3.707369716708312612
0.445000000000000284,-3.674118195624398453
0.446000000000000285,-3.641301760019184819
0.447000000000000286,-3.608916579021029580
0.448000000000000287,-3.576958765156600606
0.449000000000000288,-3.545424377997925092
0.450000000000000289,-3.514309427714917611
0.451000000000000290,-3.483609878534813298
0.452000000000000290,-3.453321652109881512
0.453000000000000291,-3.423440630794689632
0.454000000000000292,-3.393962660834382916
0.455000000000000293,-3.364883555465220777
0.456000000000000294,-3.336199097928788770
0.457000000000000295,-3.307905044401218131
0.458000000000000296,-3.279997126838721577
0.459000000000000297,-3.252471055740831840
0.460000000000000298,-3.225322522832644090
0.461000000000000298,-3.198547203667409633
0.462000000000000299,-3.172140760150818029
0.463000000000000300,-3.146098842988255484
0.464000000000000301,-3.120417094056398000
0.465000000000000302,-3.095091148700455097
0.466000000000000303,-3.070116637958328898
0.467000000000000304,-3.045489190713024819
0.468000000000000305,-3.021204435774632380
0.469000000000000306,-2.997258003893099598
0.470000000000000306,-2.973645529703171864
0.471000000000000307,-2.950362653602682794
0.472000000000000308,-2.927405023565549769
0.473000000000000309,-2.904768296890666068
0.474000000000000310,-2.882448141887992143
0.475000000000000311,-2.860440239503049931
0.476000000000000312,-2.838740284881123621
0.477000000000000313,-2.817343988872296645
0.478000000000000314,-2.796247079478616282
0.479000000000000314,-2.775445303244585826
0.480000000000000315,-2.754934426592128283
0.481000000000000316,-2.734710237101302344
0.482000000000000317,-2.714768544737830247
0.483000000000000318,-2.695105183028710716
0.484000000000000319,-2.675716010186989458
0.485000000000000320,-2.656596910186893812
0.486000000000000321,-2.637743793790413793
0.487000000000000322,-2.619152599526475278
0.488000000000000322,-2.600819294623775146
0.489000000000000323,-2.582739875898442783
0.490000000000000324,-2.564910370597534239
0.491000000000000325,-2.547326837199477723
0.492000000000000326,-2.529985366172477601
0.493000000000000327,-2.512882080691984044
0.494000000000000328,-2.496013137318195074
0.495000000000000329,-2.479374726634647974
0.496000000000000330,-2.462963073848869477
0.497000000000000330,-2.446774439356117270
0.498000000000000331,-2.430805119267114733
0.499000000000000332,-2.415051445900831428
0.500000000000000333,-2.399509788243182840
0.501000000000000334,-2.384176552372605062
0.502000000000000335,-2.369048181853425916
0.503000000000000336,-2.354121158097948197
0.504000000000000337,-2.339392000698102159
0.505000000000000338,-2.324857267727571397
0.506000000000000338,-2.310513556015247438
0.507000000000000339,-2.296357501390844824
0.508000000000000340,-2.282385778903520013
0.509000000000000341,-2.268595103014332537
0.510000000000000342,-2.254982227763313141
0.511000000000000343,-2.241543946911953800
0.512000000000000344,-2.228277094061889674
0.513000000000000345,-2.215178542750527502
0.514000000000000346,-2.202245206524405141
0.515000000000000346,-2.189474038990938176
0.516000000000000347,-2.176862033849343625
0.517000000000000348,-2.164406224901450848
0.518000000000000349,-2.152103686042998731
0.519000000000000350,-2.139951531236210958
0.520000000000000351,-2.127946914464251105
0.521000000000000352,-2.116087029668206831
0.522000000000000353,-2.104369110667271947
0.523000000000000353,-2.092790431062705014
0.524000000000000354,-2.081348304126233728
0.525000000000000355,-2.070040082673443749
0.526000000000000356,-2.058863158922758618
0.527000000000000357,-2.047814964340617827
0.528000000000000358,-2.036892969473330872
0.529000000000000359,-2.026094683766243243
0.530000000000000360,-2.015417655370670857
0.531000000000000361,-2.004859470939180710
0.532000000000000361,-1.994417755409684911
0.533000000000000362,-1.984090171778881473
0.534000000000000363,-1.973874420865485035
0.535000000000000364,-1.963768241063763353
0.536000000000000365,-1.953769408087799864
0.537000000000000366,-1.943875734706976832
0.538000000000000367,-1.934085070473047896
0.539000000000000368,-1.924395301439334904
0.540000000000000369,-1.914804349872332834
0.541000000000000369,-1.905310173956252129
0.542000000000000370,-1.895910767490799786
0.543000000000000371,-1.886604159582636386
0.544000000000000372,-1.877388414330863453
0.545000000000000373,-1.868261630506913962
0.546000000000000374,-1.859221941229171948
0.547000000000000375,-1.850267513632702032
0.548000000000000376,-1.841396548534408151
0.549000000000000377,-1.832607280093935032
0.550000000000000377,-1.823897975470625044
0.551000000000000378,-1.815266934476868155
0.552000000000000379,-1.806712489228101903
0.553000000000000380,-1.798233003789772244
0.554000000000000381,-1.789826873821517506
0.555000000000000382,-1.781492526218883210
0.556000000000000383,-1.773228418752759605
0.557000000000000384,-1.765033039706879192
0.558000000000000385,-1.756904907513542780
0.559000000000000385,-1.748842570387883599
0.560000000000000386,-1.740844605960822022
0.561000000000000387,-1.732909620911008641
0.562000000000000388,-1.725036250595909593
0.563000000000000389,-1.717223158682289252
0.564000000000000390,-1.709469036776245954
0.565000000000000391,-1.701772604053032323
0.566000000000000392,-1.694132606886823655
0.567000000000000393,-1.686547818480625072
0.568000000000000393,-1.679017038496481096
0.569000000000000394,-1.671539092686159744
0.570000000000000395,-1.664112832522482766
0.571000000000000396,-1.656737134831420821
0.572000000000000397,-1.649410901425158782
0.573000000000000398,-1.642133058736211293
0.574000000000000399,-1.634902557452779348
0.575000000000000400,-1.627718372155430915
0.576000000000000401,-1.620579500955272589
0.577000000000000401,-1.613484965133721527
0.578000000000000402,-1.606433808783969353
0.579000000000000403,-1.599425098454268612
0.580000000000000404,-1.592457922793168557
0.581000000000000405,-1.585531392196745992
0.582000000000000406,-1.578644638457986193
0.583000000000000407,-1.571796814418353616
0.584000000000000408,-1.564987093621688308
0.585000000000000409,-1.558214669970464428
0.586000000000000409,-1.551478757384527452
0.587000000000000410,-1.544778589462363572
0.588000000000000411,-1.538113419144969019
0.589000000000000412,-1.531482518382416114
0.590000000000000413,-1.524885177803129599
0.591000000000000414,-1.518320706385974272
0.592000000000000415,-1.511788431135205446
0.593000000000000416,-1.505287696758301541
0.594000000000000417,-1.498817865346763867
0.595000000000000417,-1.492378316059930654
0.596000000000000418,-1.485968444811795797
0.597000000000000419,-1.479587663960957533
0.598000000000000420,-1.473235402003647776
0.599000000000000421,-1.466911103269934014
0.600000000000000422,-1.460614227623100891
0.601000000000000423,-1.454344250162246777
0.602000000000000424,-1.448100660928111294
0.603000000000000425,-1.441882964612177576
0.604000000000000425,-1.435690680269045005
0.605000000000000426,-1.429523341032101991
0.606000000000000427,-1.423380493832544058
0.607000000000000428,-1.417261699121662222
0.608000000000000429,-1.411166530596561275
0.609000000000000430,-1.405094574929136586
0.610000000000000431,-1.399045431498493697
0.611000000000000432,-1.393018712126689262
0.612000000000000433,-1.387014040817837301
