# Rutile-100-old_GLY-AC
# h[nm],U(h)[kJ/mol]
0.149999999999999994,201.004159647803533062
0.150999999999999995,198.863321655923101616
0.151999999999999996,197.518502610825805732
0.152999999999999997,196.348718695327733030
0.153999999999999998,195.115858689167311013
0.154999999999999999,193.768292766671891059
0.156000000000000000,192.331618045461539168
0.157000000000000001,190.852043310208244975
0.158000000000000002,189.370405030163624360
0.159000000000000002,187.913080257754415925
0.160000000000000003,186.491466876272738773
0.161000000000000004,185.105172751016823440
0.162000000000000005,183.746236976775918492
0.163000000000000006,182.403039510988605798
0.164000000000000007,181.063339158584369670
0.165000000000000008,179.716315011942782576
0.166000000000000009,178.353706311816779362
0.167000000000000010,176.970237373194237307
0.168000000000000010,175.563533565601005648
0.169000000000000011,174.133716301305810248
0.170000000000000012,172.682830723719291655
0.171000000000000013,171.214221507317319038
0.172000000000000014,169.731936402374344652
0.173000000000000015,168.240206901710365628
0.174000000000000016,166.743031618857543208
0.175000000000000017,165.243870443099638123
0.176000000000000018,163.745445500781954706
0.177000000000000018,162.249637408193990495
0.178000000000000019,160.757461236054922438
0.179000000000000020,159.269105096233403174
0.180000000000000021,157.784014523429561905
0.181000000000000022,156.301007225132423173
0.182000000000000023,154.818404823772425516
0.183000000000000024,153.334170554752233784
0.184000000000000025,151.846044258967168616
0.185000000000000026,150.351668250320301468
0.186000000000000026,148.848699645757363896
0.187000000000000027,147.334906465140420551
0.188000000000000028,145.808246223931348595
0.189000000000000029,144.266926860432846524
0.190000000000000030,142.709450683917310698
0.191000000000000031,141.134642631860913298
0.192000000000000032,139.541664519185587778
0.193000000000000033,137.930017186028720744
0.194000000000000034,136.299532537615647243
0.195000000000000034,134.650357451821548693
0.196000000000000035,132.982931434724775954
0.197000000000000036,131.297959755594490616
0.198000000000000037,129.596383610000344788
0.199000000000000038,127.879348658971053965
0.200000000000000039,126.148173085800181070
0.201000000000000040,124.404316109601538187
0.202000000000000041,122.649347702861106768
0.203000000000000042,120.884920083644644251
0.204000000000000042,119.112741394657973615
0.205000000000000043,117.334551842471299210
0.206000000000000044,115.552102451263820626
0.207000000000000045,113.767136485965437487
0.208000000000000046,111.981373518623669838
0.209000000000000047,110.196496047772328097
0.210000000000000048,108.414138531845082980
0.211000000000000049,106.635878662469934852
0.212000000000000050,104.863230679972417647
0.213000000000000050,103.097640519840183515
0.214000000000000051,101.340482573558190893
0.215000000000000052,99.593057848569031876
0.216000000000000053,97.856593318722531194
0.217000000000000054,96.132242267202386188
0.218000000000000055,94.421085437453342593
0.219000000000000056,92.724132823142525694
0.220000000000000057,91.042325944868181864
0.221000000000000058,89.376540478532803036
0.222000000000000058,87.727589117476838965
0.223000000000000059,86.096224567217547019
0.224000000000000060,84.483142587618701214
0.225000000000000061,82.888985012303805888
0.226000000000000062,81.314342688948173077
0.227000000000000063,79.759758296644747588
0.228000000000000064,78.225729007785346880
0.229000000000000065,76.712708971816226722
0.230000000000000066,75.221111606851280840
0.231000000000000066,73.751311692492492966
0.232000000000000067,72.303647263395518507
0.233000000000000068,70.878421308201509987
0.234000000000000069,69.475903282531191962
0.235000000000000070,68.096330447894970916
0.236000000000000071,66.739909050712682870
0.237000000000000072,65.406815357253762500
0.238000000000000073,64.097196561298034112
0.239000000000000073,62.811171581768135752
0.240000000000000074,61.548831767577951268
0.241000000000000075,60.310241526561618741
0.242000000000000076,59.095438894659821472
0.243000000000000077,57.904436060612646031
0.244000000000000078,56.737219860299298091
0.245000000000000079,55.593752253622334081
0.246000000000000080,54.473970795509920606
0.247000000000000081,53.377789111232161190
0.248000000000000081,52.305097384841516828
0.249000000000000082,51.255762868171551361
0.250000000000000111,50.229630416489911227
0.251000000000000112,49.226523055618535807
0.252000000000000113,48.246242584118959940
0.253000000000000114,47.288570213008732424
0.254000000000000115,46.353267244428096205
0.255000000000000115,45.440075789724936328
0.256000000000000116,44.548719526569648508
0.257000000000000117,43.678904493952344978
0.258000000000000118,42.830319923252673675
0.259000000000000119,42.002639103002003651
0.260000000000000120,41.195520274479903833
0.261000000000000121,40.408607554893059444
0.262000000000000122,39.641531884573780076
0.263000000000000123,38.893911994399417154
0.264000000000000123,38.165355389467372049
0.265000000000000124,37.455459344959812995
0.266000000000000125,36.763811910087369483
0.267000000000000126,36.089992916010700696
0.268000000000000127,35.433574983692167848
0.269000000000000128,34.794124527726353335
0.270000000000000129,34.171202752327758390
0.271000000000000130,33.564366635813541961
0.272000000000000131,32.973169900105510521
0.273000000000000131,32.397163961979501323
0.274000000000000132,31.835898863012374704
0.275000000000000133,31.288924175410159023
0.276000000000000134,30.755789881142316489
0.277000000000000135,30.236047222055567829
0.278000000000000136,29.729249518888856585
0.279000000000000137,29.234952957361372228
0.280000000000000138,28.752717339752184245
0.281000000000000139,28.282106800632043075
0.282000000000000139,27.822690485644340441
0.283000000000000140,27.374043192459986074
0.284000000000000141,26.935745973250895702
0.285000000000000142,26.507386698235631428
0.286000000000000143,26.088560580049396265
0.287000000000000144,25.678870658878061306
0.288000000000000145,25.277928248470640682
0.289000000000000146,24.885353343308718621
0.290000000000000147,24.500774987361204182
0.291000000000000147,24.123831604992382438
0.292000000000000148,23.754171294716609708
0.293000000000000149,23.391452086608403249
0.294000000000000150,23.035342164277800237
0.295000000000000151,22.685520052412925907
0.296000000000000152,22.341674770970566755
0.297000000000000153,22.003505957165177875
0.298000000000000154,21.670723956464986060
0.299000000000000155,21.343049883853161930
0.300000000000000155,21.020215656651309644
0.301000000000000156,20.701964000233918028
0.302000000000000157,20.388048427984365674
0.303000000000000158,20.078233196858903398
0.304000000000000159,19.772293239932061226
0.305000000000000160,19.470014077298870347
0.306000000000000161,19.171191706703968549
0.307000000000000162,18.875632475257443588
0.308000000000000163,18.583152933581786215
0.309000000000000163,18.293579673714368994
0.310000000000000164,18.006749152065577135
0.311000000000000165,17.722507498704892726
0.312000000000000166,17.440710314216438803
0.313000000000000167,17.161222455331394343
0.314000000000000168,16.883917810508513924
0.315000000000000169,16.608679066595719576
0.316000000000000170,16.335397467665334403
0.317000000000000171,16.063972567074539910
0.318000000000000171,15.794311973759722179
0.319000000000000172,15.526331093729947241
0.320000000000000173,15.259952867681061406
0.321000000000000174,14.995107505607498055
0.322000000000000175,14.731732219244383586
0.323000000000000176,14.469770953128437085
0.324000000000000177,14.209174115021761864
0.325000000000000178,13.949898306399484582
0.326000000000000179,13.691906053658678744
0.327000000000000179,13.435165540663927430
0.328000000000000180,13.179650343203505258
0.329000000000000181,12.925339165889198512
0.330000000000000182,12.672215581993611977
0.331000000000000183,12.420267776680082861
0.332000000000000184,12.169488294043137699
0.333000000000000185,11.919873788341323717
0.334000000000000186,11.671424779769361990
0.335000000000000187,11.424145415082975319
0.336000000000000187,11.178043233357538355
0.337000000000000188,10.933128937130991432
0.338000000000000189,10.689416169151396474
0.339000000000000190,10.446921294921773793
0.340000000000000191,10.205663191207754892
0.341000000000000192,9.965663040648149007
0.342000000000000193,9.726944132584087299
0.343000000000000194,9.489531670199689017
0.344000000000000195,9.253452584045803064
0.345000000000000195,9.018735351997259286
0.346000000000000196,8.785409825675916551
0.347000000000000197,8.553507063353094964
0.348000000000000198,8.323059169328706375
0.349000000000000199,8.094099139768580642
0.350000000000000200,7.866660714967108170
0.351000000000000201,7.640778237988797628
0.352000000000000202,7.416486519630133500
0.353000000000000203,7.193820709631589594
0.354000000000000203,6.972816174059128791
0.355000000000000204,6.753508378765447517
0.356000000000000205,6.535932778832100887
0.357000000000000206,6.320124713885959977
0.358000000000000207,6.106119309176839316
0.359000000000000208,5.893951382296489960
0.360000000000000209,5.683655355413649524
0.361000000000000210,5.475265172895591448
0.362000000000000210,5.268814224181609163
0.363000000000000211,5.064335271771144953
0.364000000000000212,4.861860384185780148
0.365000000000000213,4.661420873762129879
0.366000000000000214,4.463047239130753852
0.367000000000000215,4.266769112234872097
0.368000000000000216,4.072615209741368147
0.369000000000000217,3.880613288696626917
0.370000000000000218,3.690790106278976079
0.371000000000000218,3.503171383500268465
0.372000000000000219,3.317781772709246901
0.373000000000000220,3.134644828750452028
0.374000000000000221,2.953782983633608694
0.375000000000000222,2.775217524569893346
0.376000000000000223,2.598968575232587508
0.377000000000000224,2.425055080102502814
0.378000000000000225,2.253494791759673266
0.379000000000000226,2.084304260985752943
0.380000000000000226,1.917498829543412331
0.381000000000000227,1.753092625502175483
0.382000000000000228,1.591098560982264987
0.383000000000000229,1.431528332191226660
0.384000000000000230,1.274392421630798911
0.385000000000000231,1.119700102354407534
0.386000000000000232,0.967459444159019077
0.387000000000000233,0.817677321597705786
0.388000000000000234,0.670359423702924895
0.389000000000000234,0.525510265313251290
0.390000000000000235,0.383133199899815868
0.391000000000000236,0.243230433791763734
0.392000000000000237,0.105803041703279060
0.393000000000000238,-0.029149016532029393
0.394000000000000239,-0.161626878110340377
0.395000000000000240,-0.291632758378313650
0.396000000000000241,-0.419169931009857055
0.397000000000000242,-0.544242707320471752
0.398000000000000242,-0.666856414797601382
0.399000000000000243,-0.787017374922183932
0.400000000000000244,-0.904732880353898539
0.401000000000000245,-1.020011171549262796
0.402000000000000246,-1.132861412878869212
0.403000000000000247,-1.243293668307584365
0.404000000000000248,-1.351318876697999327
0.405000000000000249,-1.456948826795318341
0.406000000000000250,-1.560196131948693887
0.407000000000000250,-1.661074204621697969
0.408000000000000251,-1.759597230741837492
0.409000000000000252,-1.855780143936545556
0.410000000000000253,-1.949638599700772135
0.411000000000000254,-2.041188949538632613
0.412000000000000255,-2.130448215119524313
0.413000000000000256,-2.217434062486800084
0.414000000000000257,-2.302164776354689746
0.415000000000000258,-2.384659234527505944
0.416000000000000258,-2.464936882472528179
0.417000000000000259,-2.543017708076560357
0.418000000000000260,-2.618922216613752685
0.419000000000000261,-2.692671405950880725
0.420000000000000262,-2.764286742013973175
0.421000000000000263,-2.833790134539074579
0.422000000000000264,-2.901203913127607059
0.423000000000000265,-2.966550803625806587
0.424000000000000266,-3.029853904845827284
0.425000000000000266,-3.091136665644603987
0.426000000000000267,-3.150422862375477528
0.427000000000000268,-3.207736576725872091
0.428000000000000269,-3.263102173953209562
0.429000000000000270,-3.316544281530043659
0.430000000000000271,-3.368087768207983057
0.431000000000000272,-3.417757723509210255
0.432000000000000273,-3.465579437652883676
0.433000000000000274,-3.511578381923099013
0.434000000000000274,-3.555780189483802811
0.435000000000000275,-3.598210636645261307
0.436000000000000276,-3.638895624585814836
0.437000000000000277,-3.677861161531704504
0.438000000000000278,-3.715133345397082731
0.439000000000000279,-3.750738346885481800
0.440000000000000280,-3.784702393053353653
0.441000000000000281,-3.817051751335539311
0.442000000000000282,-3.847812714032108339
0.443000000000000282,-3.877011583255023375
0.444000000000000283,-3.904674656333017246
0.445000000000000284,-3.930828211672081629
0.446000000000000285,-3.955498495068769493
0.447000000000000286,-3.978711706473041065
0.448000000000000287,-4.000493987196668044
0.449000000000000288,-4.020871407563285871
0.450000000000000289,-4.039869954995311652
0.451000000000000290,-4.057515522532957775
0.452000000000000290,-4.073833897780218649
0.453000000000000291,-4.088850752272089828
0.454000000000000292,-4.102591631257515914
0.455000000000000293,-4.115081943891902405
0.456000000000000294,-4.126346953832989328
0.457000000000000295,-4.136411770233753948
0.458000000000000296,-4.145301339125522233
0.459000000000000297,-4.153040435184779611
0.460000000000000298,-4.159653653876508095
0.461000000000000298,-4.165165403967233004
0.462000000000000299,-4.169599900400464243
0.463000000000000300,-4.172981157527333451
0.464000000000000301,-4.175332982685175942
0.465000000000000302,-4.176678970116579848
0.466000000000000303,-4.177042495221460428
0.467000000000000304,-4.176446709134821411
0.468000000000000305,-4.174914533622488655
0.469000000000000306,-4.172468656287457556
0.470000000000000306,-4.169131526079351779
0.471000000000000307,-4.164925349099296348
0.472000000000000308,-4.159872084692912253
0.473000000000000309,-4.153993441823862653
0.474000000000000310,-4.147310875720505940
0.475000000000000311,-4.139845584788259814
0.476000000000000312,-4.131618507780375538
0.477000000000000313,-4.122650321219788694
0.478000000000000314,-4.112961437064742043
0.479000000000000314,-4.102572000611194092
0.480000000000000315,-4.091501888624696548
0.481000000000000316,-4.079770707694921228
0.482000000000000317,-4.067397792805757639
0.483000000000000318,-4.054402206114209761
0.484000000000000319,-4.040802735931316114
0.485000000000000320,-4.026617895898413124
0.486000000000000321,-4.011865924352206569
0.487000000000000322,-3.996564783872182058
0.488000000000000322,-3.980732161003870395
0.489000000000000323,-3.964385466151976622
0.490000000000000324,-3.947541833636933895
0.491000000000000325,-3.930218121909022422
0.492000000000000326,-3.912430913914003217
0.493000000000000327,-3.894196517604599617
0.494000000000000328,-3.875530966591909099
0.495000000000000329,-3.856450020931384337
0.496000000000000330,-3.836969168037639655
0.497000000000000330,-3.817103623723070882
0.498000000000000331,-3.796868333354541214
0.499000000000000332,-3.776277973123578047
0.500000000000000333,-3.755346951424614055
0.501000000000000334,-3.734089410336500769
0.502000000000000335,-3.712519227202624172
0.503000000000000336,-3.690650016304780845
0.504000000000000337,-3.668495130626370671
0.505000000000000338,-3.646067663700364392
0.506000000000000338,-3.623380451537792091
0.507000000000000339,-3.600446074632498661
0.508000000000000340,-3.577276860037964745
0.509000000000000341,-3.553884883512441029
0.510000000000000342,-3.530281971728142398
0.511000000000000343,-3.506479704541068720
0.512000000000000344,-3.482489417317478964
0.513000000000000345,-3.458322203313628052
0.514000000000000346,-3.433988916105291000
0.515000000000000346,-3.409500172063532286
0.516000000000000347,-3.384866352873632245
0.517000000000000348,-3.360097608093971733
0.518000000000000349,-3.335203857751659395
0.519000000000000350,-3.310194794972155741
0.520000000000000351,-3.285079888639729884
0.521000000000000352,-3.259868386086298919
0.522000000000000353,-3.234569315805601697
0.523000000000000353,-3.209191490190330676
0.524000000000000354,-3.183743508289668345
0.525000000000000355,-3.158233758584692019
0.526000000000000356,-3.132670421779364833
0.527000000000000357,-3.107061473604922686
0.528000000000000358,-3.081414687635256389
0.529000000000000359,-3.055737638111478471
0.530000000000000360,-3.030037702773326735
0.531000000000000361,-3.004322065695711252
0.532000000000000361,-2.978597720128393966
0.533000000000000362,-2.952871471337018772
0.534000000000000363,-2.927149939443762339
0.535000000000000364,-2.901439562265967886
0.536000000000000365,-2.875746598151094791
0.537000000000000366,-2.850077128806566940
0.538000000000000367,-2.824437062122854059
0.539000000000000368,-2.798832134988697096
0.540000000000000369,-2.773267916096751495
0.541000000000000369,-2.747749808738742416
0.542000000000000370,-2.722283053588566926
0.543000000000000371,-2.696872731472457652
0.544000000000000372,-2.671523766124894284
0.545000000000000373,-2.646240926929344983
0.546000000000000374,-2.621028831642703061
0.547000000000000375,-2.595891949102557827
0.548000000000000376,-2.570834601916372364
0.549000000000000377,-2.545860969131666263
0.550000000000000377,-2.520975088886461268
0.551000000000000378,-2.496180861039094090
0.552000000000000379,-2.471482049776887013
0.553000000000000380,-2.446882286202756163
0.554000000000000381,-2.422385070899230719
0.555000000000000382,-2.397993776469389271
0.556000000000000383,-2.373711650053853095
0.557000000000000384,-2.349541815823686264
0.558000000000000385,-2.325487277448358370
0.559000000000000385,-2.301550920538576239
0.560000000000000386,-2.277735515063450844
0.561000000000000387,-2.254043717741606834
0.562000000000000388,-2.230478074405868316
0.563000000000000389,-2.207041022341324155
0.564000000000000390,-2.183734892596265187
0.565000000000000391,-2.160561912265909879
0.566000000000000392,-2.137524206748547151
0.567000000000000393,-2.114623801974032880
0.568000000000000393,-2.091862626604237274
0.569000000000000394,-2.069242514205476446
0.570000000000000395,-2.046765205392726106
0.571000000000000396,-2.024432349945386456
0.572000000000000397,-2.002245508894730186
0.573000000000000398,-1.980206156582704935
0.574000000000000399,-1.958315682692267856
0.575000000000000400,-1.936575394249000936
0.576000000000000401,-1.914986517594142956
0.577000000000000401,-1.893550200329059852
0.578000000000000402,-1.872267513230957192
0.579000000000000403,-1.851139452140107000
0.580000000000000404,-1.830166939818569372
0.581000000000000405,-1.809350827780349835
0.582000000000000406,-1.788691898093276889
0.583000000000000407,-1.768190865152488467
0.584000000000000408,-1.747848377425805122
0.585000000000000409,-1.727665019171001903
0.586000000000000409,-1.707641312125099731
0.587000000000000410,-1.687777717165956703
0.588000000000000411,-1.668074635946064976
0.589000000000000412,-1.648532412499020383
0.590000000000000413,-1.629151334818530472
0.591000000000000414,-1.609931636410356859
0.592000000000000415,-1.590873497817334892
0.593000000000000416,-1.571977048117559228
0.594000000000000417,-1.553242366396044183
0.595000000000000417,-1.534669483190167050
0.596000000000000418,-1.516258381908750730
0.597000000000000419,-1.498009000225524634
0.598000000000000420,-1.479921231446692742
0.599000000000000421,-1.461994925853239424
0.600000000000000422,-1.444229892017940609
0.601000000000000423,-1.426625898097485523
0.602000000000000424,-1.409182673099910854
0.603000000000000425,-1.391899908127585572
0.604000000000000425,-1.374777257596008440
0.605000000000000426,-1.357814340428697752
0.606000000000000427,-1.341010741228509939
0.607000000000000428,-1.324366011425364364
0.608000000000000429,-1.307879670401163263
0.609000000000000430,-1.291551206591558643
0.610000000000000431,-1.275380078565403474
0.611000000000000432,-1.259365716081786601
0.612000000000000433,-1.243507521125058579
