# Rutile-100-old_TRPSCA-JS
# h[nm],U(h)[kJ/mol]
0.149999999999999994,178.047491094179946458
0.150999999999999995,178.359731635012707329
0.151999999999999996,177.812318762699788977
0.152999999999999997,177.126749190778070897
0.153999999999999998,176.523607743272094694
0.154999999999999999,176.014208302505664960
0.156000000000000000,175.545935944339873913
0.157000000000000001,175.066261424183778672
0.158000000000000002,174.544247891585968091
0.159000000000000002,173.971946478756478882
0.160000000000000003,173.357984148745970288
0.161000000000000004,172.719614911177359318
0.162000000000000005,172.076033687230335545
0.163000000000000006,171.443859699780091432
0.164000000000000007,170.834750697395918451
0.165000000000000008,170.254709585865072086
0.166000000000000009,169.704542355551268429
0.167000000000000010,169.180970520479007746
0.168000000000000010,168.678005605049264659
0.169000000000000011,168.188309896695585621
0.170000000000000012,167.704373059508895949
0.171000000000000013,167.219418647186301996
0.172000000000000014,166.728016218797222336
0.173000000000000015,166.226415738383877851
0.174000000000000016,165.712644970338061512
0.175000000000000017,165.186421768684880362
0.176000000000000018,164.648935292352945226
0.177000000000000018,164.102546446690610082
0.178000000000000019,163.550450753129922532
0.179000000000000020,162.996338230341137887
0.180000000000000021,162.444076013906624212
0.181000000000000022,161.897431173397933435
0.182000000000000023,161.359843981137970559
0.183000000000000024,160.834255964927166360
0.184000000000000025,160.322992479111405828
0.185000000000000026,159.827696180953495286
0.186000000000000026,159.349305561160065281
0.187000000000000027,158.888071374558762727
0.188000000000000028,158.443603266507722083
0.189000000000000029,158.014938916981606098
0.190000000000000030,157.600628468457728104
0.191000000000000031,157.198827728470121201
0.192000000000000032,156.807394529240383463
0.193000000000000033,156.423983594429302002
0.194000000000000034,156.046136237442908623
0.195000000000000034,155.671362146365851231
0.196000000000000035,155.297211363034392662
0.197000000000000036,154.921335316732836418
0.198000000000000037,154.541536415733560261
0.199000000000000038,154.155806229671782148
0.200000000000000039,153.762352715767917744
0.201000000000000040,153.359617259503778541
0.202000000000000041,152.946282525532012642
0.203000000000000042,152.521272258815798750
0.204000000000000042,152.083744251337179776
0.205000000000000043,151.633077708127416372
0.206000000000000044,151.168856219261499518
0.207000000000000045,150.690847482314126182
0.208000000000000046,150.198980831982339623
0.209000000000000047,149.693323528358206431
0.210000000000000048,149.174056639663774604
0.211000000000000049,148.641451234960698002
0.212000000000000050,148.095845482108472879
0.213000000000000050,147.537623129765535168
0.214000000000000051,146.967193742276066359
0.215000000000000052,146.384974954854385487
0.216000000000000053,145.791376924883394395
0.217000000000000054,145.186789074119758425
0.218000000000000055,144.571569146436928577
0.219000000000000056,143.946034546342275462
0.220000000000000057,143.310455874505151996
0.221000000000000058,142.665052537339249739
0.222000000000000058,142.009990277555232296
0.223000000000000059,141.345380450705135900
0.224000000000000060,140.671280858182797147
0.225000000000000061,139.987697939026077165
0.226000000000000062,139.294590120275813661
0.227000000000000063,138.591872127730084685
0.228000000000000064,137.879420064861761830
0.229000000000000065,137.157077076687841100
0.230000000000000066,136.424659426792828754
0.231000000000000066,135.681962828894313589
0.232000000000000067,134.928768888742666832
0.233000000000000068,134.164851527284952226
0.234000000000000069,133.389983271480929261
0.235000000000000070,132.603941314592987055
0.236000000000000071,131.806513262878752357
0.237000000000000072,130.997502500177802176
0.238000000000000073,130.176733115703598287
0.239000000000000073,129.344054353297394755
0.240000000000000074,128.499344552371383088
0.241000000000000075,127.642514561695094244
0.242000000000000076,126.773510617031291758
0.243000000000000077,125.892316682392817029
0.244000000000000078,124.998956262377262760
0.245000000000000079,124.093493699677878794
0.246000000000000080,123.176034977497124601
0.247000000000000081,122.246728051265876047
0.248000000000000081,121.305762737848183974
0.249000000000000082,120.353370193358543361
0.250000000000000111,119.389822012902186543
0.251000000000000112,118.415428987039462072
0.252000000000000113,117.430539550644112978
0.253000000000000114,116.435537960139754432
0.254000000000000115,115.430842234930111090
0.255000000000000115,114.416901898246763380
0.256000000000000116,113.394195551689065837
0.257000000000000117,112.363228316479123237
0.258000000000000118,111.324529172957525702
0.259000000000000119,110.278648228147943655
0.260000000000000120,109.226153939370718149
0.261000000000000121,108.167630319924910509
0.262000000000000122,107.103674150824048183
0.263000000000000123,106.034892220493929926
0.264000000000000123,104.961898612251303575
0.265000000000000124,103.885312057305597477
0.266000000000000125,102.805753368982095708
0.267000000000000126,101.723842971873423835
0.268000000000000127,100.640198537703184911
0.269000000000000128,99.555432737840874324
0.270000000000000129,98.470151120654008992
0.271000000000000130,97.384950120225425962
0.272000000000000131,96.300415201412661759
0.273000000000000131,95.217119144776759754
0.274000000000000132,94.135620473572842570
0.275000000000000133,93.056462023764964897
0.276000000000000134,91.980169656908358888
0.277000000000000135,90.907251114732915198
0.278000000000000136,89.838195013351565876
0.279000000000000137,88.773469974214549438
0.280000000000000138,87.713523888222240998
0.281000000000000139,86.658783308795122480
0.282000000000000139,85.609652969174447890
0.283000000000000140,84.566515418786110558
0.284000000000000141,83.529730773135852928
0.285000000000000142,82.499636571416402830
0.286000000000000143,81.476547735783242388
0.287000000000000144,80.460756626097975186
0.288000000000000145,79.452533183836038688
0.289000000000000146,78.452125158806509830
0.290000000000000147,77.459758412328724830
0.291000000000000147,76.475637290552214154
0.292000000000000148,75.499945061682439018
0.293000000000000149,74.532844410989611106
0.294000000000000150,73.574477987614969265
0.295000000000000151,72.624968997358990919
0.296000000000000152,71.684421835820543834
0.297000000000000153,70.752922756464727172
0.298000000000000154,69.830540568416040514
0.299000000000000155,68.917327359008169196
0.300000000000000155,68.013319236362747233
0.301000000000000156,67.118537087519683837
0.302000000000000157,66.232987347893100605
0.303000000000000158,65.356662778085635068
0.304000000000000159,64.489543244347871109
0.305000000000000160,63.631596499225736352
0.306000000000000161,62.782778959192171442
0.307000000000000162,61.943036476306915006
0.308000000000000163,61.112305101192667678
0.309000000000000163,60.290511834853774076
0.310000000000000164,59.477575367093734826
0.311000000000000165,58.673406799511781173
0.312000000000000166,57.877910351273477829
0.313000000000000167,57.090984046056895806
0.314000000000000168,56.312520378773207597
0.315000000000000169,55.542406960849234565
0.316000000000000170,54.780527143037417659
0.317000000000000171,54.026760614888665657
0.318000000000000171,53.280983980182590187
0.319000000000000172,52.543071307759625199
0.320000000000000173,51.812894657340322624
0.321000000000000174,51.090324580047855818
0.322000000000000175,50.375230593471435725
0.323000000000000176,49.667481631222223371
0.324000000000000177,48.966946467035569412
0.325000000000000178,48.273494113570862396
0.326000000000000179,47.586994196146278568
0.327000000000000179,46.907317301725392156
0.328000000000000180,46.234335303544533247
0.329000000000000181,45.567921661834418501
0.330000000000000182,44.907951701146025414
0.331000000000000183,44.254302864842927079
0.332000000000000184,43.606854947365548014
0.333000000000000185,42.965490304912677288
0.334000000000000186,42.330094045217180110
0.335000000000000187,41.700554197121938671
0.336000000000000187,41.076761860683589589
0.337000000000000188,40.458611338550930725
0.338000000000000189,39.846000249377595992
0.339000000000000190,39.238829624039397004
0.340000000000000191,38.637003985431917386
0.341000000000000192,38.040431412627981445
0.342000000000000193,37.449023590172267006
0.343000000000000194,36.862695843289046138
0.344000000000000195,36.281367159771775732
0.345000000000000195,35.704960199315181058
0.346000000000000196,35.133401291040648573
0.347000000000000197,34.566620419952457155
0.348000000000000198,34.004551203048961838
0.349000000000000199,33.447130855796920912
0.350000000000000200,32.894300149660374188
0.351000000000000201,32.346003361357006156
0.352000000000000202,31.802188214496446506
0.353000000000000203,31.262805814234532420
0.354000000000000203,30.727810575556922856
0.355000000000000204,30.197160145784756935
0.356000000000000205,29.670815321872890280
0.357000000000000206,29.148739963049461466
0.358000000000000207,28.630900899323552977
0.359000000000000208,28.117267836365375189
0.360000000000000209,27.607813257240838567
0.361000000000000210,27.102512321460597633
0.362000000000000210,26.601342761781047841
0.363000000000000211,26.104284779173404729
0.364000000000000212,25.611320936354747602
0.365000000000000213,25.122436050254044915
0.366000000000000214,24.637617083764990156
0.367000000000000215,24.156853037117041794
0.368000000000000216,23.680134839175540407
0.369000000000000217,23.207455238962936050
0.370000000000000218,22.738808697673135839
0.371000000000000218,22.274191281433012080
0.372000000000000219,21.813600555046726015
0.373000000000000220,21.357035476941078400
0.374000000000000221,20.904496295513347093
0.375000000000000222,20.455984447066928311
0.376000000000000223,20.011502455503311637
0.377000000000000224,19.571053833925528664
0.378000000000000225,19.134642988292121402
0.379000000000000226,18.702275123247819266
0.380000000000000226,18.273956150243062524
0.381000000000000227,17.849692598042388170
0.382000000000000228,17.429491525709142508
0.383000000000000229,17.013360438142861142
0.384000000000000230,16.601307204234004189
0.385000000000000231,16.193339977691223908
0.386000000000000232,15.789467120585808146
0.387000000000000233,15.389697129648798324
0.388000000000000234,14.994038565347631575
0.389000000000000234,14.602499983760978353
0.390000000000000235,14.215089871262083676
0.391000000000000236,13.831816582014615946
0.392000000000000237,13.452688278277088685
0.393000000000000238,13.077712873506689206
0.394000000000000239,12.706897978246498582
0.395000000000000240,12.340250848775124126
0.396000000000000241,11.977778338492678145
0.397000000000000242,11.619486852011990052
0.398000000000000242,11.265382301920048747
0.399000000000000243,10.915470068170694873
0.400000000000000244,10.569754960065292693
0.401000000000000245,10.228241180776119990
0.402000000000000246,9.890932294363285138
0.403000000000000247,9.557831195233255528
0.404000000000000248,9.228940079985694211
0.405000000000000249,8.904260421592260499
0.406000000000000250,8.583792945849726408
0.407000000000000250,8.267537610047963170
0.408000000000000251,7.955493583792110357
0.409000000000000252,7.647659231917275591
0.410000000000000253,7.344032099432745042
0.411000000000000254,7.044608898432595190
0.412000000000000255,6.749385496908656634
0.413000000000000256,6.458356909401357981
0.414000000000000257,6.171517289424262920
0.415000000000000258,5.888859923597487445
0.416000000000000258,5.610377227425841440
0.417000000000000259,5.336060742657243061
0.418000000000000260,5.065901136157910045
0.419000000000000261,4.799888200240480352
0.420000000000000262,4.538010854382907411
0.421000000000000263,4.280257148275401491
0.422000000000000264,4.026614266134617814
0.423000000000000265,3.777068532224041597
0.424000000000000266,3.531605417521454626
0.425000000000000266,3.290209547474578500
0.426000000000000267,3.052864710787380531
0.427000000000000268,2.819553869180528860
0.428000000000000269,2.590259168070776941
0.429000000000000270,2.364961948114932877
0.430000000000000271,2.143642757565624724
0.431000000000000272,1.926281365386982358
0.432000000000000273,1.712856775080036531
0.433000000000000274,1.503347239168614680
0.434000000000000274,1.297730274297780095
0.435000000000000275,1.095982676898676456
0.436000000000000276,0.898080539374410791
0.437000000000000277,0.703999266763167264
0.438000000000000278,0.513713593836396809
0.439000000000000279,0.327197602590739489
0.440000000000000280,0.144424740094108467
0.441000000000000281,-0.034632163352405688
0.442000000000000282,-0.210000875773934392
0.443000000000000282,-0.381709744838098497
0.444000000000000283,-0.549787678962645798
0.445000000000000284,-0.714264128247269925
0.446000000000000285,-0.875169065261739321
0.447000000000000286,-1.032532965720467599
0.448000000000000287,-1.186386789072950476
0.449000000000000288,-1.336761959038029079
0.450000000000000289,-1.483690344108625769
0.451000000000000290,-1.627204238052669227
0.452000000000000290,-1.767336340434597641
0.453000000000000291,-1.904119737180479888
0.454000000000000292,-2.037587881209101504
0.455000000000000293,-2.167774573149919171
0.456000000000000294,-2.294713942167722731
0.457000000000000295,-2.418440426913130104
0.458000000000000296,-2.538988756616381792
0.459000000000000297,-2.656393932341684749
0.460000000000000298,-2.770691208417643825
0.461000000000000298,-2.881916074058924693
0.462000000000000299,-2.990104235193001170
0.463000000000000300,-3.095291596505144405
0.464000000000000301,-3.197514243713950322
0.465000000000000302,-3.296808426088638555
0.466000000000000303,-3.393210539218819211
0.467000000000000304,-3.486757108046655951
0.468000000000000305,-3.577484770169975459
0.469000000000000306,-3.665430259425170423
0.470000000000000306,-3.750630389757168448
0.471000000000000307,-3.833122039383327628
0.472000000000000308,-3.912942135257599485
0.473000000000000309,-3.990127637840648056
0.474000000000000310,-4.064715526180558314
0.475000000000000311,-4.136742783308965166
0.476000000000000312,-4.206246381955953240
0.477000000000000313,-4.273263270587586149
0.478000000000000314,-4.337830359768195088
0.479000000000000314,-4.399984508850219633
0.480000000000000315,-4.459762512993064476
0.481000000000000316,-4.517201090512493522
0.482000000000000317,-4.572336870561310107
0.483000000000000318,-4.625206381141959255
0.484000000000000319,-4.675846037451107051
0.485000000000000320,-4.724292130555726388
0.486000000000000321,-4.770580816400405766
0.487000000000000322,-4.814748105144642132
0.488000000000000322,-4.856829850828775719
0.489000000000000323,-4.896861741367270149
0.490000000000000324,-4.934879288867152880
0.491000000000000325,-4.970917820269558085
0.492000000000000326,-5.005012468312001417
0.493000000000000327,-5.037198162808747881
0.494000000000000328,-5.067509622246221923
0.495000000000000329,-5.095981345690690389
0.496000000000000330,-5.122647605004486238
0.497000000000000330,-5.147542437367937040
0.498000000000000331,-5.170699638102524531
0.499000000000000332,-5.192152753792350417
0.500000000000000333,-5.211935075699400954
0.501000000000000334,-5.230079633468554867
0.502000000000000335,-5.246619189118531423
0.503000000000000336,-5.261586231313954087
0.504000000000000337,-5.275012969914548933
0.505000000000000338,-5.286931330796638129
0.506000000000000338,-5.297372950942531133
0.507000000000000339,-5.306369173793123117
0.508000000000000340,-5.313951044858773898
0.509000000000000341,-5.320149307584080667
0.510000000000000342,-5.324994399461171035
0.511000000000000343,-5.328516448387166093
0.512000000000000344,-5.330745269260448893
0.513000000000000345,-5.331710360811066529
0.514000000000000346,-5.331440902660274261
0.515000000000000346,-5.329965752604072016
0.516000000000000347,-5.327313444115921115
0.517000000000000348,-5.323512184063585728
0.518000000000000349,-5.318589850635039973
0.519000000000000350,-5.312573991468676482
0.520000000000000351,-5.305491821982410983
0.521000000000000352,-5.297370223897363672
0.522000000000000353,-5.288235743950497003
0.523000000000000353,-5.278114592791843585
0.524000000000000354,-5.267032644061169222
0.525000000000000355,-5.255015433639281142
0.526000000000000356,-5.242088159069173692
0.527000000000000357,-5.228275679142302401
0.528000000000000358,-5.213602513645124503
0.529000000000000359,-5.198092843261456153
0.530000000000000360,-5.181770509625637899
0.531000000000000361,-5.164659015522362395
0.532000000000000361,-5.146781525228338872
0.533000000000000362,-5.128160864991364143
0.534000000000000363,-5.108819523642448068
0.535000000000000364,-5.088779653336684916
0.536000000000000365,-5.068063070418316052
0.537000000000000366,-5.046691256406117709
0.538000000000000367,-5.024685359094497095
0.539000000000000368,-5.002066193766692592
0.540000000000000369,-4.978854244515498628
0.541000000000000369,-4.955069665668061063
0.542000000000000370,-4.930732283310253372
0.543000000000000371,-4.905861596907397093
0.544000000000000372,-4.880476781017007326
0.545000000000000373,-4.854596687090266371
0.546000000000000374,-4.828239845358277549
0.547000000000000375,-4.801424466799727675
0.548000000000000376,-4.774168445186356635
0.549000000000000377,-4.746489359202811009
0.550000000000000377,-4.718404474637652335
0.551000000000000378,-4.689930746641865156
0.552000000000000379,-4.661084822052197651
0.553000000000000380,-4.631883041775615162
0.554000000000000381,-4.602341443232118579
0.555000000000000382,-4.572475762852940662
0.556000000000000383,-4.542301438630825139
0.557000000000000384,-4.511833612720044684
0.558000000000000385,-4.481087134082752499
0.559000000000000385,-4.450076561179402646
0.560000000000000386,-4.418816164700411164
0.561000000000000387,-4.387319930336288643
0.562000000000000388,-4.355601561583869241
0.563000000000000389,-4.323674482586224777
0.564000000000000390,-4.291551841003634848
0.565000000000000391,-4.259246510913408557
0.566000000000000392,-4.226771095736223671
0.567000000000000393,-4.194137931186869395
0.568000000000000393,-4.161359088247005289
0.569000000000000394,-4.128446376157977937
0.570000000000000395,-4.095411345431800854
0.571000000000000396,-4.062265290877919988
0.572000000000000397,-4.029019254644270021
0.573000000000000398,-3.995684029270448523
0.574000000000000399,-3.962270160751371062
0.575000000000000400,-3.928787951609570062
0.576000000000000401,-3.895247463974402358
0.577000000000000401,-3.861658522666762572
0.578000000000000402,-3.828030718287300349
0.579000000000000403,-3.794373410306936201
0.580000000000000404,-3.760695730158177152
0.581000000000000405,-3.727006584325456284
0.582000000000000406,-3.693314657433629300
0.583000000000000407,-3.659628415332724760
0.584000000000000408,-3.625956108178169934
0.585000000000000409,-3.592305773504904209
0.586000000000000409,-3.558685239294219649
0.587000000000000410,-3.525102127032426758
0.588000000000000411,-3.491563854759816454
0.589000000000000412,-3.458077640109292084
0.590000000000000413,-3.424650503333255269
0.591000000000000414,-3.391289270318027516
0.592000000000000415,-3.358000575584780822
0.593000000000000416,-3.324790865275962126
0.594000000000000417,-3.291666400126455727
0.595000000000000417,-3.258633258418819345
0.596000000000000418,-3.225697338921250434
0.597000000000000419,-3.192864363808278316
0.598000000000000420,-3.160139881562721520
0.599000000000000421,-3.127529269858831285
0.600000000000000422,-3.095037738425536311
0.601000000000000423,-3.062670331889334019
0.602000000000000424,-3.030431932596330924
0.603000000000000425,-2.998327263412646992
0.604000000000000425,-2.966360890502802050
0.605000000000000426,-2.934537226085573103
0.606000000000000427,-2.902860531166854496
0.607000000000000428,-2.871334918248857004
0.608000000000000429,-2.839964354015701353
0.609000000000000430,-2.808752661994430522
0.610000000000000431,-2.777703525191573153
0.611000000000000432,-2.746820488704579954
