# Rutile-100-old_LEUSCA-AC
# h[nm],U(h)[kJ/mol]
0.149999999999999994,202.264827981408245705
0.150999999999999995,203.105717501078032683
0.151999999999999996,202.267422793057562558
0.152999999999999997,201.166229315799739652
0.153999999999999998,200.245935372994381396
0.154999999999999999,199.534189480833617836
0.156000000000000000,198.924924871216092015
0.157000000000000001,198.306412778137371333
0.158000000000000002,197.607091115470183240
0.159000000000000002,196.801344220058609835
0.160000000000000003,195.898809517883194076
0.161000000000000004,194.929540426219375604
0.162000000000000005,193.930783254954235417
0.163000000000000006,192.937467344898323063
0.164000000000000007,191.976617790313440537
0.165000000000000008,191.065047127495461154
0.166000000000000009,190.209407590695377621
0.167000000000000010,189.407708563221774511
0.168000000000000010,188.651559122183329009
0.169000000000000011,187.928590061789577703
0.170000000000000012,187.224695180294162355
0.171000000000000013,186.525886317187627128
0.172000000000000014,185.819674212644230238
0.173000000000000015,185.095969345301739395
0.174000000000000016,184.347548804085846541
0.175000000000000017,183.570163476194011309
0.176000000000000018,182.762370732847756472
0.177000000000000018,181.925176893895326202
0.178000000000000019,181.061565520632569815
0.179000000000000020,180.175975427553879626
0.180000000000000021,179.273778668657257640
0.181000000000000022,178.360795298364223527
0.182000000000000023,177.442869460467079534
0.183000000000000024,176.525520879163224208
0.184000000000000025,175.613677335206034513
0.185000000000000026,174.711487199897248956
0.186000000000000026,173.822206418534193517
0.187000000000000027,172.948151250935467260
0.188000000000000028,172.090706322650760285
0.189000000000000029,171.250376845295193107
0.190000000000000030,170.426873973023418785
0.191000000000000031,169.619222946987918021
0.192000000000000032,168.825884746465561648
0.193000000000000033,168.044883254634640934
0.194000000000000034,167.273931332580389153
0.195000000000000034,166.510550581291795424
0.196000000000000035,165.752180889077635584
0.197000000000000036,164.996277064342677932
0.198000000000000037,164.240390912709216309
0.199000000000000038,163.482238019229725978
0.200000000000000039,162.719749238149347548
0.201000000000000040,161.951107479648811704
0.202000000000000041,161.174770826118418654
0.203000000000000042,160.389483324227569483
0.204000000000000042,159.594274999731652542
0.205000000000000043,158.788452746674636273
0.206000000000000044,157.971583768246517820
0.207000000000000045,157.143473209021124148
0.208000000000000046,156.304137532293680124
0.209000000000000047,155.453775074865689021
0.210000000000000048,154.592735066306573799
0.211000000000000049,153.721486240158640157
0.212000000000000050,152.840585998802396261
0.213000000000000050,151.950650928261040917
0.214000000000000051,151.052329299182076738
0.215000000000000052,150.146276039411390002
0.216000000000000053,149.233130524701863351
0.217000000000000054,148.313497408952855494
0.218000000000000055,147.387930604966015835
0.219000000000000056,146.456920431387658255
0.220000000000000057,145.520883861131949288
0.221000000000000058,144.580157740610189876
0.222000000000000058,143.634994796679308138
0.223000000000000059,142.685562208335937839
0.224000000000000060,141.731942491638221782
0.225000000000000061,140.774136427895143697
0.226000000000000062,139.812067755547047909
0.227000000000000063,138.845589344122970488
0.228000000000000064,137.874490572992016268
0.229000000000000065,136.898505647183185374
0.230000000000000066,135.917322596279888103
0.231000000000000066,134.930592719337084873
0.232000000000000067,133.937940258049763997
0.233000000000000068,132.938972101266386971
0.234000000000000069,131.933287345709999272
0.235000000000000070,130.920486559887052636
0.236000000000000071,129.900180620131749265
0.237000000000000072,128.871999009169883266
0.238000000000000073,127.835597488160559010
0.239000000000000073,126.790665072642042333
0.240000000000000074,125.736930260979463014
0.241000000000000075,124.674166480656850808
0.242000000000000076,123.602196732985973426
0.243000000000000077,122.520897430481596757
0.244000000000000078,121.430201433262439537
0.245000000000000079,120.330100301405465757
0.246000000000000080,119.220645789246844970
0.247000000000000081,118.101950615253173282
0.248000000000000081,116.974188547355495871
0.249000000000000082,115.837593848634554661
0.250000000000000111,114.692460132065519929
0.251000000000000112,113.539138675769024189
0.252000000000000113,112.378036251981896498
0.253000000000000114,111.209612523847567900
0.254000000000000115,110.034377064241567723
0.255000000000000115,108.852886050283728991
0.256000000000000116,107.665738686038096716
0.257000000000000117,106.473573404257422226
0.258000000000000118,105.277063895967714302
0.259000000000000119,104.076915014290875661
0.260000000000000120,102.873858596239045937
0.261000000000000121,101.668649243347829270
0.262000000000000122,100.462060099004162339
0.263000000000000123,99.254878657224551830
0.264000000000000123,98.047902634490171181
0.265000000000000124,96.841935933096095823
0.266000000000000125,95.637784721350612926
0.267000000000000126,94.436253652903630496
0.268000000000000127,93.238142244509944589
0.269000000000000128,92.044241428672663119
0.270000000000000129,90.855330294875017216
0.271000000000000130,89.672173030510251124
0.272000000000000131,88.495516070174787160
0.273000000000000131,87.326085459698163049
0.274000000000000132,86.164584439156556073
0.275000000000000133,85.011691247154956841
0.276000000000000134,83.868057146862525997
0.277000000000000135,82.734304672656065804
0.278000000000000136,81.611026094749263393
0.279000000000000137,80.498782097871981023
0.280000000000000138,79.398100668899189714
0.281000000000000139,78.309476187309400075
0.282000000000000139,77.233368711473985968
0.283000000000000140,76.170203453030623564
0.284000000000000141,75.120370430970865527
0.285000000000000142,74.084224296564727297
0.286000000000000143,73.062084319846718472
0.287000000000000144,72.054234528090418621
0.288000000000000145,71.060923986492326776
0.289000000000000146,70.082367211166769039
0.290000000000000147,69.118744704508003451
0.291000000000000147,68.170203603004310366
0.292000000000000148,67.236858427674718541
0.293000000000000149,66.318791927445630563
0.294000000000000150,65.416056005975946164
0.295000000000000151,64.528672722676333251
0.296000000000000152,63.656635358940050651
0.297000000000000153,62.799909540908558370
0.298000000000000154,61.958434410423727456
0.299000000000000155,61.132123836172127085
0.300000000000000155,60.320867657394828143
0.301000000000000156,59.524532952919365414
0.302000000000000157,58.742965328660218916
0.303000000000000158,57.975990217133542615
0.304000000000000159,57.223414182930206096
0.305000000000000160,56.485026228492401401
0.306000000000000161,55.760599094936353026
0.307000000000000162,55.049890553057480247
0.308000000000000163,54.352644680039659875
0.309000000000000163,53.668593117770853951
0.310000000000000164,52.997456309033850630
0.311000000000000165,52.338944708200052958
0.312000000000000166,51.692759963400206402
0.313000000000000167,51.058596067478006830
0.314000000000000168,50.436140475353496981
0.315000000000000169,49.825075185727321525
0.316000000000000170,49.225077785348979376
0.317000000000000171,48.635822454348364374
0.318000000000000171,48.056980931390839373
0.319000000000000172,47.488223437663641846
0.320000000000000173,46.929219558932260270
0.321000000000000174,46.379639085123187670
0.322000000000000175,45.839152807091188890
0.323000000000000176,45.307433270418229654
0.324000000000000177,44.784155486264481283
0.325000000000000178,44.268997599453577152
0.326000000000000179,43.761641514120590557
0.327000000000000179,43.261773477386739728
0.328000000000000180,42.769084621646769051
0.329000000000000181,42.283271466165956554
0.330000000000000182,41.804036378782242878
0.331000000000000183,41.331087998598363242
0.332000000000000184,40.864141620626170948
0.333000000000000185,40.402919543414832049
0.334000000000000186,39.947151380752409011
0.335000000000000187,39.496574338582298935
0.336000000000000187,39.050933458316983149
0.337000000000000188,38.609981827767299478
0.338000000000000189,38.173480760931909117
0.339000000000000190,37.741199947912789980
0.340000000000000191,37.312917576236770856
0.341000000000000192,36.888420424872563785
0.342000000000000193,36.467503932234464514
0.343000000000000194,36.049972239464096901
0.344000000000000195,35.635638210274343862
0.345000000000000195,35.224323428629588761
0.346000000000000196,34.815858175522954809
0.347000000000000197,34.410081386093139599
0.348000000000000198,34.006840588303916206
0.349000000000000199,33.605991824385647249
0.350000000000000200,33.207399556213303526
0.351000000000000201,32.810936555767227674
0.352000000000000202,32.416483781794511287
0.353000000000000203,32.023930243756787206
0.354000000000000203,31.633172854118708273
0.355000000000000204,31.244116269997750379
0.356000000000000205,30.856672725161690352
0.357000000000000206,30.470761853324880519
0.358000000000000207,30.086310503659273508
0.359000000000000208,29.703252549400041005
0.360000000000000209,29.321528690389477845
0.361000000000000210,28.941086250366907962
0.362000000000000210,28.561878969776035575
0.363000000000000211,28.183866794825270574
0.364000000000000212,27.807015663501317704
0.365000000000000213,27.431297289200358591
0.366000000000000214,27.056688942607230786
0.367000000000000215,26.683173232418219811
0.368000000000000216,26.310737885469762887
0.369000000000000217,25.939375526802528782
0.370000000000000218,25.569083460158054777
0.371000000000000218,25.199863449373896884
0.372000000000000219,24.831721501112706818
0.373000000000000220,24.464667649330799293
0.374000000000000221,24.098715741863426132
0.375000000000000222,23.733883229475999599
0.376000000000000223,23.370190957702710932
0.377000000000000224,23.007662961769778320
0.378000000000000225,22.646326264873728462
0.379000000000000226,22.286210680062165324
0.380000000000000226,21.927348615940946530
0.381000000000000227,21.569774886409458503
0.382000000000000228,21.213526524604777279
0.383000000000000229,20.858642601214857137
0.384000000000000230,20.505164047301718711
0.385000000000000231,20.153133481757294021
0.386000000000000232,19.802595043496829419
0.387000000000000233,19.453594228478078065
0.388000000000000234,19.106177731619091276
0.389000000000000234,18.760393293672201764
0.390000000000000235,18.416289553097534792
0.391000000000000236,18.073915902966746216
0.392000000000000237,17.733322352914296260
0.393000000000000238,17.394559396142703633
0.394000000000000239,17.057677881476575266
0.395000000000000240,16.722728890450287764
0.396000000000000241,16.389763619404600803
0.397000000000000242,16.058833266558217190
0.398000000000000242,15.729988924012683782
0.399000000000000243,15.403281474640802884
0.400000000000000244,15.078761493801735583
0.401000000000000245,14.756479155819956617
0.402000000000000246,14.436484145159061754
0.403000000000000247,14.118825572215325082
0.404000000000000248,13.803551893652530325
0.405000000000000249,13.490710837193651273
0.406000000000000250,13.180349330782016537
0.407000000000000250,12.872513436020563304
0.408000000000000251,12.567248285794812901
0.409000000000000252,12.264598025982747842
0.410000000000000253,11.964605761151819507
0.411000000000000254,11.667313504142043712
0.412000000000000255,11.372762129432107514
0.413000000000000256,11.080991330183877608
0.414000000000000257,10.792039578860283200
0.415000000000000258,10.505944091310031041
0.416000000000000258,10.222740794212906934
0.417000000000000259,9.942464295778332684
0.418000000000000260,9.665147859590669910
0.419000000000000261,9.390823381494096012
0.420000000000000262,9.119521369411149436
0.421000000000000263,8.851270925988774962
0.422000000000000264,8.586099733967222036
0.423000000000000265,8.324034044167337498
0.424000000000000266,8.065098665993414073
0.425000000000000266,7.809316960349792502
0.426000000000000267,7.556710834870342453
0.427000000000000268,7.307300741362037222
0.428000000000000269,7.061105675364826695
0.429000000000000270,6.818143177731886162
0.430000000000000271,6.578429338135970639
0.431000000000000272,6.341978800409230566
0.432000000000000273,6.108804769626038578
0.433000000000000274,5.878919020839954435
0.434000000000000274,5.652331909387814157
0.435000000000000275,5.429052382676487376
0.436000000000000276,5.209087993369225345
0.437000000000000277,4.992444913890787817
0.438000000000000278,4.779127952172984806
0.439000000000000279,4.569140568563736515
0.440000000000000280,4.362484893825333110
0.441000000000000281,4.159161748149569071
0.442000000000000282,3.959170661119396861
0.443000000000000282,3.762509892549140922
0.444000000000000283,3.569176454137125809
0.445000000000000284,3.379166131867028522
0.446000000000000285,3.192473509095887341
0.447000000000000286,3.009091990269317840
0.448000000000000287,2.829013825206112998
0.449000000000000288,2.652230133896670061
0.450000000000000289,2.478730931761673695
0.451000000000000290,2.308505155319391822
0.452000000000000290,2.141540688211846621
0.453000000000000291,1.977824387542397089
0.454000000000000292,1.817342110478688211
0.455000000000000293,1.660078741077075648
0.456000000000000294,1.506018217286600791
0.457000000000000295,1.355143558091864486
0.458000000000000296,1.207436890756708348
0.459000000000000297,1.062879478131479871
0.460000000000000298,0.921451745989021687
0.461000000000000298,0.783133310355820567
0.462000000000000299,0.647903004806476779
0.463000000000000300,0.515738907691221327
0.464000000000000301,0.386618369267676898
0.465000000000000302,0.260518038709743605
0.466000000000000303,0.137413890967673646
0.467000000000000304,0.017281253454872747
0.468000000000000305,-0.099905167461208769
0.469000000000000306,-0.214171260186257456
0.470000000000000306,-0.325543481864425388
0.471000000000000307,-0.434048832601014845
0.472000000000000308,-0.539714829960395770
0.473000000000000309,-0.642569483756101123
0.474000000000000310,-0.742641271148316129
0.475000000000000311,-0.839959112063708879
0.476000000000000312,-0.934552344950528968
0.477000000000000313,-1.026450702882015120
0.478000000000000314,-1.115684290018867930
0.479000000000000314,-1.202283558441761713
0.480000000000000315,-1.286279285363163272
0.481000000000000316,-1.367702550727259991
0.482000000000000317,-1.446584715205724292
0.483000000000000318,-1.522957398596354484
0.484000000000000319,-1.596852458630887428
0.485000000000000320,-1.668301970197191508
0.486000000000000321,-1.737338204980919842
0.487000000000000322,-1.803993611530465557
0.488000000000000322,-1.868300795748557785
0.489000000000000323,-1.930292501813502870
0.490000000000000324,-1.990001593532014112
0.491000000000000325,-2.047461036125247880
0.492000000000000326,-2.102703878449200037
0.493000000000000327,-2.155763235649852838
0.494000000000000328,-2.206672272253122014
0.495000000000000329,-2.255464185689246559
0.496000000000000330,-2.302172190250446171
0.497000000000000330,-2.346829501481062952
0.498000000000000331,-2.389469320997669399
0.499000000000000332,-2.430124821737855267
0.500000000000000333,-2.468829133634746764
0.501000000000000334,-2.505615329714427464
0.502000000000000335,-2.540516412613540442
0.503000000000000336,-2.573565301513177861
0.504000000000000337,-2.604794819485769075
0.505000000000000338,-2.634237681250721330
0.506000000000000338,-2.661926481334758066
0.507000000000000339,-2.687893682632560566
0.508000000000000340,-2.712171605362834637
0.509000000000000341,-2.734792416415421368
0.510000000000000342,-2.755788119083840026
0.511000000000000343,-2.775190543178703173
0.512000000000000344,-2.793031335516129587
0.513000000000000345,-2.809341950776035990
0.514000000000000346,-2.824153642724628099
0.515000000000000346,-2.837497455795242818
0.516000000000000347,-2.849404217021884733
0.517000000000000348,-2.859904528319480388
0.518000000000000349,-2.869028759104874204
0.519000000000000350,-2.876807039252547771
0.520000000000000351,-2.883269252378743541
0.521000000000000352,-2.888445029448263757
0.522000000000000353,-2.892363742697149576
0.523000000000000353,-2.895054499865515663
0.524000000000000354,-2.896546138733969933
0.525000000000000355,-2.896867221957434957
0.526000000000000356,-2.896046032190009889
0.527000000000000357,-2.894110567494702302
0.528000000000000358,-2.891088537031547112
0.529000000000000359,-2.887007357018066322
0.530000000000000360,-2.881894146955467306
0.531000000000000361,-2.875775726114693231
0.532000000000000361,-2.868678610275853025
0.533000000000000362,-2.860629008714914434
0.534000000000000363,-2.851652821431491791
0.535000000000000364,-2.841775636611716838
0.536000000000000365,-2.831022728319907422
0.537000000000000366,-2.819419054413278225
0.538000000000000367,-2.806989254673413203
0.539000000000000368,-2.793757649148992162
0.540000000000000369,-2.779748236703457831
0.541000000000000369,-2.764984693762317924
0.542000000000000370,-2.749490373253813846
0.543000000000000371,-2.733288303737872127
0.544000000000000372,-2.716401188717269211
0.545000000000000373,-2.698851406125830188
0.546000000000000374,-2.680661007987994005
0.547000000000000375,-2.661851720244507113
0.548000000000000376,-2.642444942738914282
0.549000000000000377,-2.622461749359627170
0.550000000000000377,-2.601922888332533379
0.551000000000000378,-2.580848782658825336
0.552000000000000379,-2.559259530693545504
0.553000000000000380,-2.537174906859452239
0.554000000000000381,-2.514614362491734756
0.555000000000000382,-2.491597026808876514
0.556000000000000383,-2.468141708004710555
0.557000000000000384,-2.444266894457603367
0.558000000000000385,-2.419990756051805025
0.559000000000000385,-2.395331145606984791
0.560000000000000386,-2.370305600411516167
0.561000000000000387,-2.344931343855230832
0.562000000000000388,-2.319225287157598903
0.563000000000000389,-2.293204031187418224
0.564000000000000390,-2.266883868369841348
0.565000000000000391,-2.240280784677028958
0.566000000000000392,-2.213410461698607445
0.567000000000000393,-2.186288278788329098
0.568000000000000393,-2.158929315283134365
0.569000000000000394,-2.131348352791224698
0.570000000000000395,-2.103559877545813528
0.571000000000000396,-2.075578082820855208
0.572000000000000397,-2.047416871405876471
0.573000000000000398,-2.019089858136398963
0.574000000000000399,-1.990610372477013668
0.575000000000000400,-1.961991461153980598
0.576000000000000401,-1.933245890834368597
0.577000000000000401,-1.904386150849072035
0.578000000000000402,-1.875424455956498759
0.579000000000000403,-1.846372749144528980
0.580000000000000404,-1.817242704468067016
0.581000000000000405,-1.788045729919273130
0.582000000000000406,-1.758792970328471483
0.583000000000000407,-1.729495310292749721
0.584000000000000408,-1.700163377130346376
0.585000000000000409,-1.670807543858243038
0.586000000000000409,-1.641437932190720206
0.587000000000000410,-1.612064415556966335
0.588000000000000411,-1.582696622135240538
0.589000000000000412,-1.553343937901987326
0.590000000000000413,-1.524015509693513071
0.591000000000000414,-1.494720248278606833
0.592000000000000415,-1.465466831440181972
0.593000000000000416,-1.436263707064009409
0.594000000000000417,-1.407119096232936739
0.595000000000000417,-1.378040996325093026
0.596000000000000418,-1.349037184113901500
0.597000000000000419,-1.320115218869089890
0.598000000000000420,-1.291282445456499506
0.599000000000000421,-1.262545997435750467
0.600000000000000422,-1.233912800154046252
0.601000000000000423,-1.205389573834873884
0.602000000000000424,-1.176982836660387610
0.603000000000000425,-1.148698907846058104
0.604000000000000425,-1.120543910706470081
0.605000000000000426,-1.092523775711140122
0.606000000000000427,-1.064644243529249135
0.607000000000000428,-1.036910868062013158
0.608000000000000429,-1.009329019462112953
0.609000000000000430,-0.981903887138657061
0.610000000000000431,-0.954640482747240116
0.611000000000000432,-0.927543643163851073
