# Rutile-100-old_CS-6331-AC
# h[nm],U(h)[kJ/mol]
0.149999999999999994,194.391820164714289376
0.150999999999999995,192.574262948463740486
0.151999999999999996,191.408788910681579409
0.152999999999999997,190.394430509484521963
0.153999999999999998,189.336913317764327758
0.154999999999999999,188.191529835095622047
0.156000000000000000,186.975847231585362351
0.157000000000000001,185.724509348212620807
0.158000000000000002,184.468480093404139097
0.159000000000000002,183.227739983342985397
0.160000000000000003,182.010789805194434621
0.161000000000000004,180.817096204832097328
0.162000000000000005,179.640356571616024439
0.163000000000000006,178.471521923019849964
0.164000000000000007,177.301138103380139910
0.165000000000000008,176.120909220593091504
0.166000000000000009,174.924559797167745501
0.167000000000000010,173.708143260804149577
0.168000000000000010,172.469958646513077838
0.169000000000000011,171.210222457737216928
0.170000000000000012,169.930615239309531717
0.171000000000000013,168.633792123756336423
0.172000000000000014,167.322918493289932940
0.173000000000000015,166.001268259519378034
0.174000000000000016,164.671903785361507744
0.175000000000000017,163.337442950633032979
0.176000000000000018,161.999909650379038339
0.177000000000000018,160.660658308493424329
0.178000000000000019,159.320359980329328664
0.179000000000000020,157.979036576856685770
0.180000000000000021,156.636130053616454916
0.181000000000000022,155.290594576591843179
0.182000000000000023,153.941001325886162476
0.183000000000000024,152.585647449436294210
0.184000000000000025,151.222662539527021863
0.185000000000000026,149.850107748105529026
0.186000000000000026,148.466064207714140366
0.187000000000000027,147.068708746133580689
0.188000000000000028,145.656375964380572441
0.189000000000000029,144.227606597535213950
0.190000000000000030,142.781182715356152357
0.191000000000000031,141.316150770459472596
0.192000000000000032,139.831833794333419974
0.193000000000000033,138.327834204081142389
0.194000000000000034,136.804028742430375587
0.195000000000000034,135.260557054586939785
0.196000000000000035,133.697805329216464543
0.197000000000000036,132.116386315283136810
0.198000000000000037,130.517116886526281405
0.199000000000000038,128.900994172933167192
0.200000000000000039,127.269171122917697403
0.201000000000000040,125.622932207958541539
0.202000000000000041,123.963669838133824896
0.203000000000000042,122.292861925612754703
0.204000000000000042,120.612050915709886567
0.205000000000000043,118.922824502508291289
0.206000000000000044,117.226798158444850628
0.207000000000000045,115.525599534173650795
0.208000000000000046,113.820854725608640479
0.209000000000000047,112.114176358146750090
0.210000000000000048,110.407153402392481212
0.211000000000000049,108.701342609861882238
0.212000000000000050,106.998261439768128866
0.213000000000000050,105.299382337749676708
0.214000000000000051,103.606128223043782555
0.215000000000000052,101.919869040991926568
0.216000000000000053,100.241919241850993672
0.217000000000000054,98.573536053774319043
0.218000000000000055,96.915918426721262335
0.219000000000000056,95.270206534296050904
0.220000000000000057,93.637481731525809892
0.221000000000000058,92.018766877928229064
0.222000000000000058,90.415026946499054361
0.223000000000000059,88.827169850201670442
0.224000000000000060,87.256047427936465510
0.225000000000000061,85.702456541658904143
0.226000000000000062,84.167140245195497528
0.227000000000000063,82.650788993317007680
0.228000000000000064,81.154041866745046718
0.229000000000000065,79.677487794989815484
0.230000000000000066,78.221666764274047523
0.231000000000000066,76.787071002328062264
0.232000000000000067,75.374146135597939633
0.233000000000000068,73.983292317456118781
0.234000000000000069,72.614865328403922717
0.235000000000000070,71.269177651081434988
0.236000000000000071,69.946499524216278587
0.237000000000000072,68.647059980518704947
0.238000000000000073,67.371047874028263891
0.239000000000000073,66.118612902601469727
0.240000000000000074,64.889866631148493070
0.241000000000000075,63.684883520941397705
0.242000000000000076,62.503701969865019805
0.243000000000000077,61.346325367908391968
0.244000000000000078,60.212723171538129918
0.245000000000000079,59.102831999881757952
0.246000000000000080,58.016556754912230076
0.247000000000000081,56.953771767081057931
0.248000000000000081,55.914321967119484214
0.249000000000000082,54.898024084030588199
0.250000000000000111,53.904667868638476591
0.251000000000000112,52.934017341456481631
0.252000000000000113,51.985812063089234414
0.253000000000000114,51.059768424900134676
0.254000000000000115,50.155580957254201735
0.255000000000000115,49.272923652293613372
0.256000000000000116,48.411451297912449832
0.257000000000000117,47.570800819371115153
0.258000000000000118,46.750592624826673216
0.259000000000000119,45.950431950945542781
0.260000000000000120,45.169910204711833046
0.261000000000000121,44.408606297539108709
0.262000000000000122,43.666087967833263406
0.263000000000000123,42.941913088235303064
0.264000000000000123,42.235630953888062322
0.265000000000000124,41.546783548219018201
0.266000000000000125,40.874906782905455316
0.267000000000000126,40.219531708884389332
0.268000000000000127,39.580185695484509267
0.269000000000000128,38.956393574987075112
0.270000000000000129,38.347678750162330630
0.271000000000000130,37.753564262574791144
0.272000000000000131,37.173573819703491949
0.273000000000000131,36.607232779175454596
0.274000000000000132,36.054069088663403875
0.275000000000000133,35.513614180247287777
0.276000000000000134,34.985403818282840405
0.277000000000000135,34.468978900057877013
0.278000000000000136,33.963886208744590078
0.279000000000000137,33.469679118375204041
0.280000000000000138,32.985918250777409355
0.281000000000000139,32.512172084601587585
0.282000000000000139,32.048017516757752787
0.283000000000000140,31.593040376752092868
0.284000000000000141,31.146835894572795667
0.285000000000000142,30.709009122921742119
0.286000000000000143,30.279175314722273527
0.287000000000000144,29.856960256954863553
0.288000000000000145,29.442000561980165685
0.289000000000000146,29.033943917606041651
0.290000000000000147,28.632449297238139252
0.291000000000000147,28.237187131526923167
0.292000000000000148,27.847839442984586356
0.293000000000000149,27.464099945096574373
0.294000000000000150,27.085674107492064167
0.295000000000000151,26.712279188769322502
0.296000000000000152,26.343644238592862195
0.297000000000000153,25.979510070693475399
0.298000000000000154,25.619629208406554000
0.299000000000000155,25.263765804383176317
0.300000000000000155,24.911695536098971360
0.301000000000000156,24.563205478771710233
0.302000000000000157,24.218093957277105233
0.303000000000000158,23.876170378627762148
0.304000000000000159,23.537255046549347526
0.305000000000000160,23.201178959654257028
0.306000000000000161,22.867783594675096026
0.307000000000000162,22.536920676179359901
0.308000000000000163,22.208451934143248252
0.309000000000000163,21.882248850716500499
0.310000000000000164,21.558192397462416778
0.311000000000000165,21.236172764307944760
0.312000000000000166,20.916089081388033577
0.313000000000000167,20.597849134917417757
0.314000000000000168,20.281369078170548903
0.315000000000000169,19.966573138598569415
0.316000000000000170,19.653393322059610426
0.317000000000000171,19.341769115086425046
0.318000000000000171,19.031647186064009958
0.319000000000000172,18.722981086138041462
0.320000000000000173,18.415730950624624285
0.321000000000000174,18.109863201642575348
0.322000000000000175,17.805350252639996711
0.323000000000000176,17.502170215440134626
0.324000000000000177,17.200306610384622275
0.325000000000000178,16.899748080107627857
0.326000000000000179,16.600488107430290796
0.327000000000000179,16.302524737823187451
0.328000000000000180,16.005860306843327834
0.329000000000000181,15.710501172913406975
0.330000000000000182,15.416457455773135976
0.331000000000000183,15.123742780896474613
0.332000000000000184,14.832374030134214848
0.333000000000000185,14.542371098808359875
0.334000000000000186,14.253756659453514999
0.335000000000000187,13.966555932370685156
0.336000000000000187,13.680796463130675988
0.337000000000000188,13.396507907138007099
0.338000000000000189,13.113721821340508455
0.339000000000000190,12.832471463146617907
0.340000000000000191,12.552791596590051171
0.341000000000000192,12.274718305760790926
0.342000000000000193,11.998288815501684468
0.343000000000000194,11.723541319352161594
0.344000000000000195,11.450514814703954158
0.345000000000000195,11.179248945117448599
0.346000000000000196,10.909783849734015604
0.347000000000000197,10.642160019705553253
0.348000000000000198,10.376418161551216102
0.349000000000000199,10.112599067339726133
0.350000000000000200,9.850743491586207767
0.351000000000000201,9.590892034743111694
0.352000000000000202,9.333085033157171750
0.353000000000000203,9.077362455356876580
0.354000000000000203,8.823763804528713450
0.355000000000000204,8.572328027035087672
0.356000000000000205,8.323093426822065766
0.357000000000000206,8.076097585560576775
0.358000000000000207,7.831377288362271649
0.359000000000000208,7.588968454907677241
0.360000000000000209,7.348906075822393191
0.361000000000000210,7.111224154135993736
0.362000000000000210,6.875955651656274092
0.363000000000000211,6.643132440092008650
0.364000000000000212,6.412785256756343699
0.365000000000000213,6.184943664683816067
0.366000000000000214,5.959636016994489971
0.367000000000000215,5.736889425339758652
0.368000000000000216,5.516729732265591046
0.369000000000000217,5.299181487331019014
0.370000000000000218,5.084267926821198103
0.371000000000000218,4.872010956896955847
0.372000000000000219,4.662431140024777321
0.373000000000000220,4.455547684534022501
0.374000000000000221,4.251378437151041467
0.375000000000000222,4.049939878362730283
0.376000000000000223,3.851247120464805995
0.377000000000000224,3.655313908154077751
0.378000000000000225,3.462152621526626284
0.379000000000000226,3.271774281347611613
0.380000000000000226,3.084188556461632480
0.381000000000000227,2.899403773216513436
0.382000000000000228,2.717426926776556062
0.383000000000000229,2.538263694205301846
0.384000000000000230,2.361918449201279913
0.385000000000000231,2.188394278373944957
0.386000000000000232,2.017692998950861849
0.387000000000000233,1.849815177810490763
0.388000000000000234,1.684760151739081779
0.389000000000000234,1.522526048813361843
0.390000000000000235,1.363109810814618905
0.391000000000000236,1.206507216583262654
0.392000000000000237,1.052712906226407341
0.393000000000000238,0.901720406094634441
0.394000000000000239,0.753522154447481385
0.395000000000000240,0.608109527730514188
0.396000000000000241,0.465472867390302469
0.397000000000000242,0.325601507156754566
0.398000000000000242,0.188483800725485706
0.399000000000000243,0.054107149776222351
0.400000000000000244,-0.077541967734187575
0.401000000000000245,-0.206477969062042688
0.402000000000000246,-0.332716138005515139
0.403000000000000247,-0.456272596124541685
0.404000000000000248,-0.577164273901156766
0.405000000000000249,-0.695408881887436325
0.406000000000000250,-0.811024881885272997
0.407000000000000250,-0.924031458199877420
0.408000000000000251,-1.034448489006372984
0.409000000000000252,-1.142296517866372652
0.410000000000000253,-1.247596725429436226
0.411000000000000254,-1.350370901351697572
0.412000000000000255,-1.450641416462081335
0.413000000000000256,-1.548431195204493793
0.414000000000000257,-1.643763688382050558
0.415000000000000258,-1.736662846228002266
0.416000000000000258,-1.827153091825577835
0.417000000000000259,-1.915259294897797115
0.418000000000000260,-2.001006745986051438
0.419000000000000261,-2.084421131035134156
0.420000000000000262,-2.165528506400295594
0.421000000000000263,-2.244355274290994462
0.422000000000000264,-2.320928158663941865
0.423000000000000265,-2.395274181577285333
0.424000000000000266,-2.467420640016045219
0.425000000000000266,-2.537395083197742984
0.426000000000000267,-2.605225290366202984
0.427000000000000268,-2.670939249080068301
0.428000000000000269,-2.734565134001656794
0.429000000000000270,-2.796131286190827403
0.430000000000000271,-2.855666192907315271
0.431000000000000272,-2.913198467924405843
0.432000000000000273,-2.968756832355586184
0.433000000000000274,-3.022370095995333905
0.434000000000000274,-3.074067139174181396
0.435000000000000275,-3.123876895127536191
0.436000000000000276,-3.171828332877139278
0.437000000000000277,-3.217950440623249531
0.438000000000000278,-3.262272209645122878
0.439000000000000279,-3.304822618706799719
0.440000000000000280,-3.345630618964622105
0.441000000000000281,-3.384725119372412827
0.442000000000000282,-3.422134972579944368
0.443000000000000282,-3.457888961319539156
0.444000000000000283,-3.492015785275732753
0.445000000000000284,-3.524544048432093568
0.446000000000000285,-3.555502246889277185
0.447000000000000286,-3.584918757148018553
0.448000000000000287,-3.612821824850282582
0.449000000000000288,-3.639239553971900243
0.450000000000000289,-3.664199896459394701
0.451000000000000290,-3.687730642303779227
0.452000000000000290,-3.709859410043882200
0.453000000000000291,-3.730613637691340578
0.454000000000000292,-3.750020574069629298
0.455000000000000293,-3.768107270559104993
0.456000000000000294,-3.784900573239958099
0.457000000000000295,-3.800427115425118352
0.458000000000000296,-3.814713310574595173
0.459000000000000297,-3.827785345583317955
0.460000000000000298,-3.839669174433836041
0.461000000000000298,-3.850390512205777327
0.462000000000000299,-3.859974829433542087
0.463000000000000300,-3.868447346803848497
0.464000000000000301,-3.875833030184894223
0.465000000000000302,-3.882156585978624008
0.466000000000000303,-3.887442456787803202
0.467000000000000304,-3.891714817389752223
0.468000000000000305,-3.894997571008218529
0.469000000000000306,-3.897314345875408037
0.470000000000000306,-3.898688492076052281
0.471000000000000307,-3.899143078665201045
0.472000000000000308,-3.898700891052019557
0.473000000000000309,-3.897384428641554877
0.474000000000000310,-3.895215902726635981
0.475000000000000311,-3.892217234622175503
0.476000000000000312,-3.888410054034316943
0.477000000000000313,-3.883815697656791688
0.478000000000000314,-3.878455207987077991
0.479000000000000314,-3.872349332355113027
0.480000000000000315,-3.865518522157224801
0.481000000000000316,-3.857982932288336997
0.482000000000000317,-3.849762420765301840
0.483000000000000318,-3.840876548534660540
0.484000000000000319,-3.831344579458006105
0.485000000000000320,-3.821185480468331175
0.486000000000000321,-3.810417921890957071
0.487000000000000322,-3.799060277922613693
0.488000000000000322,-3.787130627262362825
0.489000000000000323,-3.774646753888503348
0.490000000000000324,-3.761626147975225987
0.491000000000000325,-3.748086006943294191
0.492000000000000326,-3.734043236638987739
0.493000000000000327,-3.719514452635811264
0.494000000000000328,-3.704515981653348611
0.495000000000000329,-3.689063863088111184
0.496000000000000330,-3.673173850650955696
0.497000000000000330,-3.656861414106317820
0.498000000000000331,-3.640141741107856710
0.499000000000000332,-3.623029739126182314
0.500000000000000333,-3.605540037463620617
0.501000000000000334,-3.587686989351487998
0.502000000000000335,-3.569484674125591450
0.503000000000000336,-3.550946899475425855
0.504000000000000337,-3.532087203762981353
0.505000000000000338,-3.512918858406976597
0.506000000000000338,-3.493454870328623230
0.507000000000000339,-3.473707984455002507
0.508000000000000340,-3.453690686276249977
0.509000000000000341,-3.433415204453150515
0.510000000000000342,-3.412893513471244145
0.511000000000000343,-3.392137336338398423
0.512000000000000344,-3.371158147322232512
0.513000000000000345,-3.349967174724381103
0.514000000000000346,-3.328575403688469159
0.515000000000000346,-3.306993579038681297
0.516000000000000347,-3.285232208146133814
0.517000000000000348,-3.263301563820253826
0.518000000000000349,-3.241211687222336657
0.519000000000000350,-3.218972390798862993
0.520000000000000351,-3.196593261231773120
0.521000000000000352,-3.174083662403628381
0.522000000000000353,-3.151452738374956652
0.523000000000000353,-3.128709416371757701
0.524000000000000354,-3.105862409780939970
0.525000000000000355,-3.082920221151542073
0.526000000000000356,-3.059891145199757467
0.527000000000000357,-3.036783271815929108
0.528000000000000358,-3.013604489071426862
0.529000000000000359,-2.990362486223950178
0.530000000000000360,-2.967064756719199003
0.531000000000000361,-2.943718601187578887
0.532000000000000361,-2.920331130434181688
0.533000000000000362,-2.896909268420643446
0.534000000000000363,-2.873459755237375735
0.535000000000000364,-2.849989150064892396
0.536000000000000365,-2.826503834122823910
0.537000000000000366,-2.803010013605493178
0.538000000000000367,-2.779513722602679593
0.539000000000000368,-2.756020826004748070
0.540000000000000369,-2.732537022390697956
0.541000000000000369,-2.709067846898477683
0.542000000000000370,-2.685618674076287071
0.543000000000000371,-2.662194720714189611
0.544000000000000372,-2.638801048655036396
0.545000000000000373,-2.615442567583957878
0.546000000000000374,-2.592124037795595637
0.547000000000000375,-2.568850072938378304
0.548000000000000376,-2.545625142735201241
0.549000000000000377,-2.522453575679796334
0.550000000000000377,-2.499339561708283419
0.551000000000000378,-2.476287154845204785
0.552000000000000379,-2.453300275823757204
0.553000000000000380,-2.430382714679492739
0.554000000000000381,-2.407538133317159712
0.555000000000000382,-2.384770068050383163
0.556000000000000383,-2.362081932113517357
0.557000000000000384,-2.339477018145680542
0.558000000000000385,-2.316958500646342678
0.559000000000000385,-2.294529438402395094
0.560000000000000386,-2.272192776886382326
0.561000000000000387,-2.249951350625631452
0.562000000000000388,-2.227807885542105737
0.563000000000000389,-2.205765001262879998
0.564000000000000390,-2.183825213400959253
0.565000000000000391,-2.161990935806431757
0.566000000000000392,-2.140264482787757938
0.567000000000000393,-2.118648071303271596
0.568000000000000393,-2.097143823122597173
0.569000000000000394,-2.075753766958169599
0.570000000000000395,-2.054479840566772797
0.571000000000000396,-2.033323892820957823
0.572000000000000397,-2.012287685750641320
0.573000000000000398,-1.991372896554603589
0.574000000000000399,-1.970581119582232699
0.575000000000000400,-1.949913868285326313
0.576000000000000401,-1.929372577140199496
0.577000000000000401,-1.908958603540211074
0.578000000000000402,-1.888673229658653030
0.579000000000000403,-1.868517664282262958
0.580000000000000404,-1.848493044615549197
0.581000000000000405,-1.828600438055856703
0.582000000000000406,-1.808840843939597320
0.583000000000000407,-1.789215195259575619
0.584000000000000408,-1.769724360353789550
0.585000000000000409,-1.750369144565769641
0.586000000000000409,-1.731150291876659697
0.587000000000000410,-1.712068486509365384
0.588000000000000411,-1.693124354504780937
0.589000000000000412,-1.674318465270566492
0.590000000000000413,-1.655651333102447609
0.591000000000000414,-1.637123418678462672
0.592000000000000415,-1.618735130526359756
0.593000000000000416,-1.600486826464287748
0.594000000000000417,-1.582378815015129447
0.595000000000000417,-1.564411356794846109
0.596000000000000418,-1.546584665874715547
0.597000000000000419,-1.528898911118261372
0.598000000000000420,-1.511354217492620888
0.599000000000000421,-1.493950667355051110
0.600000000000000422,-1.476688301714555340
0.601000000000000423,-1.459567121469063533
0.602000000000000424,-1.442587088618415780
0.603000000000000425,-1.425748127453418279
0.604000000000000425,-1.409050125721251323
0.605000000000000426,-1.392492935767541073
0.606000000000000427,-1.376076375655458595
0.607000000000000428,-1.359800230261845488
0.608000000000000429,-1.343664252351182364
0.609000000000000430,-1.327668163627065301
0.610000000000000431,-1.311811655762050277
0.611000000000000432,-1.296094391405782975
0.612000000000000433,-1.280516005171846494
