# Rutile-100-old_CS-7610-AC
# h[nm],U(h)[kJ/mol]
0.149999999999999994,216.427126436661950493
0.150999999999999995,214.822100490065565737
0.151999999999999996,213.925713932809088647
0.152999999999999997,213.154710436998044543
0.153999999999999998,212.301406178280643644
0.154999999999999999,211.332665442034198122
0.156000000000000000,210.281853067067061147
0.157000000000000001,209.195433218376280138
0.158000000000000002,208.110316860840526942
0.159000000000000002,207.047433351064597673
0.160000000000000003,206.012991586004147848
0.161000000000000004,205.002648289261117043
0.162000000000000005,204.006091612606098806
0.163000000000000006,203.010899090077316487
0.164000000000000007,202.005287298697481901
0.165000000000000008,200.979764573486505697
0.166000000000000009,199.927875600114816734
0.167000000000000010,198.846281631002284485
0.168000000000000010,197.734410763695251489
0.169000000000000011,196.593874238352043449
0.170000000000000012,195.427797176008908764
0.171000000000000013,194.240166339978202359
0.172000000000000014,193.035258396244131518
0.173000000000000015,191.817181473121308954
0.174000000000000016,190.589540442661245834
0.175000000000000017,189.355221235172507477
0.176000000000000018,188.116280281268132057
0.177000000000000018,186.873920453656666041
0.178000000000000019,185.628533389469964732
0.179000000000000020,184.379788754116674454
0.180000000000000021,183.126753020704200026
0.181000000000000022,181.868023052771889070
0.182000000000000023,180.601862739145872183
0.183000000000000024,179.326333831465888125
0.184000000000000025,178.039414785492652982
0.185000000000000026,176.739103701125998214
0.186000000000000026,175.423503349771294779
0.187000000000000027,174.090887770487967146
0.188000000000000028,172.739751034811490626
0.189000000000000029,171.368839566634960647
0.190000000000000030,169.977169907980140806
0.191000000000000031,168.564034095422641713
0.192000000000000032,167.128994904798815924
0.193000000000000033,165.671873178511191327
0.194000000000000034,164.192729309478096411
0.195000000000000034,162.691840751542713406
0.196000000000000035,161.169677184865832942
0.197000000000000036,159.626874707664455855
0.198000000000000037,158.064210168694273762
0.199000000000000038,156.482576509761486250
0.200000000000000039,154.882959762225681288
0.201000000000000040,153.266418140827681782
0.202000000000000041,151.634063504749889262
0.203000000000000042,149.987045310260270981
0.204000000000000042,148.326537060899397602
0.205000000000000043,146.653725168293476600
0.206000000000000044,144.969800067023868451
0.207000000000000045,143.275949377911132387
0.208000000000000046,141.573352882771530403
0.209000000000000047,139.863179057362287949
0.210000000000000048,138.146582905152854437
0.211000000000000049,136.424704840218765867
0.212000000000000050,134.698670380673718228
0.213000000000000050,132.969590432614097608
0.214000000000000051,131.238561966787472102
0.215000000000000052,129.506668914641409174
0.216000000000000053,127.774983135814750312
0.217000000000000054,126.044565334524506284
0.218000000000000055,124.316465826880587997
0.219000000000000056,122.591725084358287745
0.220000000000000057,120.871374000031352125
0.221000000000000058,119.156433843457904231
0.222000000000000058,117.447915887135536650
0.223000000000000059,115.746820702150287730
0.224000000000000060,114.054137133044406482
0.225000000000000061,112.370840972095351162
0.226000000000000062,110.697893361256632261
0.227000000000000063,109.036238956108874731
0.228000000000000064,107.386803890490938329
0.229000000000000065,105.750493583201887304
0.230000000000000066,104.128190429492747171
0.231000000000000066,102.520751420180815217
0.232000000000000067,100.929005730319346412
0.233000000000000068,99.353752317607259670
0.234000000000000069,97.795757568302818186
0.235000000000000070,96.255753025458645311
0.236000000000000071,94.734433230966800465
0.237000000000000072,93.232453709309268675
0.238000000000000073,91.750429117165523962
0.239000000000000073,90.288931579227352131
0.240000000000000074,88.848489226788046835
0.241000000000000075,87.429584951982775465
0.242000000000000076,86.032655387007906711
0.243000000000000077,84.658090114285343475
0.244000000000000078,83.306231110399110662
0.245000000000000079,81.977372423734465201
0.246000000000000080,80.671760083119366413
0.247000000000000081,79.389592232404282868
0.248000000000000081,78.131019483831295247
0.249000000000000082,76.896145481229865482
0.250000000000000111,75.685027662532746717
0.251000000000000112,74.497678209818516848
0.252000000000000113,73.334065174048177482
0.253000000000000114,72.194113760859067952
0.254000000000000115,71.077707763188726631
0.255000000000000115,69.984691126116160831
0.256000000000000116,68.914869629103435500
0.257000000000000117,67.868012670783826934
0.258000000000000118,66.843855141554811894
0.259000000000000119,65.842099369478276571
0.260000000000000120,64.862417125348343916
0.261000000000000121,63.904451673245475263
0.262000000000000122,62.967819853437390520
0.263000000000000123,62.052114185098119492
0.264000000000000123,61.156904976983675226
0.265000000000000124,60.281742434913688555
0.266000000000000125,59.426158755651421473
0.267000000000000126,58.589670197538680441
0.268000000000000127,57.771779119019882387
0.269000000000000128,56.971975976970405497
0.270000000000000129,56.189741277521861207
0.271000000000000130,55.424547472844643892
0.272000000000000131,54.675860798100146098
0.273000000000000131,53.943143043506154299
0.274000000000000132,53.225853257165965715
0.275000000000000133,52.523449374990342164
0.276000000000000134,51.835389774688835018
0.277000000000000135,51.161134751423297473
0.278000000000000136,50.500147913294952673
0.279000000000000137,49.851897495382885950
0.280000000000000138,49.215857591559142747
0.281000000000000139,48.591509303777968398
0.282000000000000139,47.978341808971855187
0.283000000000000140,47.375853344086209518
0.284000000000000141,46.783552110147653025
0.285000000000000142,46.200957096590585138
0.286000000000000143,45.627598827360387190
0.287000000000000144,45.063020030575565045
0.288000000000000145,44.506776233761414119
0.289000000000000146,43.958436286870096410
0.290000000000000147,43.417582815474403901
0.291000000000000147,42.883812606669884815
0.292000000000000148,42.356736930340041170
0.293000000000000149,41.835981798538043108
0.294000000000000150,41.321188165812792192
0.295000000000000151,40.812012073362964770
0.296000000000000152,40.308124739938357095
0.297000000000000153,39.809212602426796934
0.298000000000000154,39.314977309067245415
0.299000000000000155,38.825135668218514695
0.300000000000000155,38.339419555587632260
0.301000000000000156,37.857575782786135221
0.302000000000000157,37.379365930034097687
0.303000000000000158,36.904566145776904307
0.304000000000000159,36.432966915913794992
0.305000000000000160,35.964372805266364708
0.306000000000000161,35.498602173837142004
0.307000000000000162,35.035486870325492248
0.308000000000000163,34.574871905280701867
0.309000000000000163,34.116615106182180739
0.310000000000000164,33.660586756642601358
0.311000000000000165,33.206669221835092287
0.312000000000000166,32.754756562148813259
0.313000000000000167,32.304754136979902057
0.314000000000000168,31.856578200467275508
0.315000000000000169,31.410155490885312446
0.316000000000000170,30.965422815308830451
0.317000000000000171,30.522326631070473724
0.318000000000000171,30.080822625436081097
0.319000000000000172,29.640875294831580788
0.320000000000000173,29.202457524864058769
0.321000000000000174,28.765550172292257969
0.322000000000000175,28.330141650014944332
0.323000000000000176,27.896227516063298424
0.324000000000000177,27.463810067502446799
0.325000000000000178,27.032897940069751996
0.326000000000000179,26.603505714302901453
0.327000000000000179,26.175653528838836337
0.328000000000000180,25.749366701495965515
0.329000000000000181,25.324675358686473459
0.330000000000000182,24.901614073642818425
0.331000000000000183,24.480221513883002160
0.332000000000000184,24.060540098282565680
0.333000000000000185,23.642615664068138415
0.334000000000000186,23.226497143996130745
0.335000000000000187,22.812236253933264152
0.336000000000000187,22.399887191010030563
0.337000000000000188,21.989506342477177725
0.338000000000000189,21.581152005354955037
0.339000000000000190,21.174884116928833322
0.340000000000000191,20.770763996111277550
0.341000000000000192,20.368854095657447090
0.342000000000000193,19.969217765192997405
0.343000000000000194,19.571919024986051738
0.344000000000000195,19.177022350370155124
0.345000000000000195,18.784592466702008551
0.346000000000000196,18.394694154718202128
0.347000000000000197,18.007392066135267328
0.348000000000000198,17.622750549321516189
0.349000000000000199,17.240833484853276047
0.350000000000000200,16.861704130755221342
0.351000000000000201,16.485424977212069564
0.352000000000000202,16.112057610529170404
0.353000000000000203,15.741662586109862687
0.354000000000000203,15.374299310210082226
0.355000000000000204,15.010025930224369262
0.356000000000000205,14.648899233252020480
0.357000000000000206,14.290974552687529808
0.358000000000000207,13.936305682577161846
0.359000000000000208,13.584944799480442867
0.360000000000000209,13.236942391574109124
0.361000000000000210,12.892347194736217375
0.362000000000000210,12.551206135347060311
0.363000000000000211,12.213564279545678914
0.364000000000000212,11.879464788681390885
0.365000000000000213,11.548948880702289088
0.366000000000000214,11.222055797225161555
0.367000000000000215,10.898822776034513993
0.368000000000000216,10.579285028761546528
0.369000000000000217,10.263475723498530101
0.370000000000000218,9.951425972107601936
0.371000000000000218,9.643164821988243318
0.372000000000000219,9.338719252071992827
0.373000000000000220,9.038114172818435321
0.374000000000000221,8.741372429991761450
0.375000000000000222,8.448514812002825281
0.376000000000000223,8.159560060606565912
0.377000000000000224,7.874524884751531673
0.378000000000000225,7.593423977383208623
0.379000000000000226,7.316270035009242001
0.380000000000000226,7.043073779840328896
0.381000000000000227,6.773843984326967771
0.382000000000000228,6.508587497917811326
0.383000000000000229,6.247309275871866241
0.384000000000000230,5.990012409962346851
0.385000000000000231,5.736698160916312794
0.386000000000000232,5.487365992440036422
0.387000000000000233,5.242013606685683058
0.388000000000000234,5.000636981021215455
0.389000000000000234,4.763230405970598547
0.390000000000000235,4.529786524197301212
0.391000000000000236,4.300296370409748548
0.392000000000000237,4.074749412072436350
0.393000000000000238,3.853133590812159781
0.394000000000000239,3.635435364413774462
0.395000000000000240,3.421639749305099176
0.396000000000000241,3.211730363435525870
0.397000000000000242,3.005689469457828444
0.398000000000000242,2.803498018127226210
0.399000000000000243,2.605135691836740097
0.400000000000000244,2.410580948211644259
0.401000000000000245,2.219811063691000008
0.402000000000000246,2.032802177028034230
0.403000000000000247,1.849529332644840540
0.404000000000000248,1.669966523781734269
0.405000000000000249,1.494086735384484665
0.406000000000000250,1.321861986677003831
0.407000000000000250,1.153263373370135625
0.408000000000000251,0.988261109460882636
0.409000000000000252,0.826824568579745067
0.410000000000000253,0.668922324846637384
0.411000000000000254,0.514522193199435596
0.412000000000000255,0.363591269161665731
0.413000000000000256,0.216095968018803763
0.414000000000000257,0.072002063375515762
0.415000000000000258,-0.068725274931695959
0.416000000000000258,-0.206121443588926867
0.417000000000000259,-0.340222369247223821
0.418000000000000260,-0.471064472670719769
0.419000000000000261,-0.598684633607078576
0.420000000000000262,-0.723120156393875946
0.421000000000000263,-0.844408736313524977
0.422000000000000264,-0.962588426706643574
0.423000000000000265,-1.077697606852806134
0.424000000000000266,-1.189774950625426264
0.425000000000000266,-1.298859395926105886
0.426000000000000267,-1.404990114902567644
0.427000000000000268,-1.508206484952466564
0.428000000000000269,-1.608548060514381373
0.429000000000000270,-1.706054545646008336
0.430000000000000271,-1.800765767388173177
0.431000000000000272,-1.892721649912682214
0.432000000000000273,-1.981962189450364509
0.433000000000000274,-2.068527429995357103
0.434000000000000274,-2.152457439780302462
0.435000000000000275,-2.233792288516531777
0.436000000000000276,-2.312572025392547914
0.437000000000000277,-2.388836657823282916
0.438000000000000278,-2.462626130942041858
0.439000000000000279,-2.533980307826434686
0.440000000000000280,-2.602938950448993261
0.441000000000000281,-2.669541701342645457
0.442000000000000282,-2.733828065970937082
0.443000000000000282,-2.795837395792083235
0.444000000000000283,-2.855608872006079935
0.445000000000000284,-2.913181489973182714
0.446000000000000285,-2.968594044292267586
0.447000000000000286,-3.021885114527023575
0.448000000000000287,-3.073093051567702627
0.449000000000000288,-3.122255964616140744
0.450000000000000289,-3.169411708781318726
0.451000000000000290,-3.214597873272801998
0.452000000000000290,-3.257851770179287509
0.453000000000000291,-3.299210423819091798
0.454000000000000292,-3.338710560649782000
0.455000000000000293,-3.376388599723789241
0.456000000000000294,-3.412280643676876224
0.457000000000000295,-3.446422470236542246
0.458000000000000296,-3.478849524236996782
0.459000000000000297,-3.509596910128022440
0.460000000000000298,-3.538699384964362871
0.461000000000000298,-3.566191351863025716
0.462000000000000299,-3.592106853915423503
0.463000000000000300,-3.616479568541657752
0.464000000000000301,-3.639342802274368349
0.465000000000000302,-3.660729485959497431
0.466000000000000303,-3.680672170361530160
0.467000000000000304,-3.699203022161182020
0.468000000000000305,-3.716353820332975566
0.469000000000000306,-3.732155952891095918
0.470000000000000306,-3.746640413991616292
0.471000000000000307,-3.759837801379232847
0.472000000000000308,-3.771778314167286261
0.473000000000000309,-3.782491750939694697
0.474000000000000310,-3.792007508163580898
0.475000000000000311,-3.800354578901768754
0.476000000000000312,-3.807561551814374390
0.477000000000000313,-3.813656610439010386
0.478000000000000314,-3.818667532739099535
0.479000000000000314,-3.822621690910359860
0.480000000000000315,-3.825546051435373407
0.481000000000000316,-3.827467175376570108
0.482000000000000317,-3.828411218898050805
0.483000000000000318,-3.828403934006984422
0.484000000000000319,-3.827470669505422141
0.485000000000000320,-3.825636372143566000
0.486000000000000321,-3.822925587965924965
0.487000000000000322,-3.819362463841764477
0.488000000000000322,-3.814970749171439302
0.489000000000000323,-3.809773797760853675
0.490000000000000324,-3.803794569855805996
0.491000000000000325,-3.797055634328747153
0.492000000000000326,-3.789579171010352354
0.493000000000000327,-3.781386973158796572
0.494000000000000328,-3.772500450059356414
0.495000000000000329,-3.762940629747796528
0.496000000000000330,-3.752728161850460431
0.497000000000000330,-3.741883320535011936
0.498000000000000331,-3.730426007564923818
0.499000000000000332,-3.718375755452189679
0.500000000000000333,-3.705751730701911217
0.501000000000000334,-3.692572737142989503
0.502000000000000335,-3.678857219339598750
0.503000000000000336,-3.664623266077711605
0.504000000000000337,-3.649888613921667968
0.505000000000000338,-3.634670650835500005
0.506000000000000338,-3.618986419864266502
0.507000000000000339,-3.602852622870558630
0.508000000000000340,-3.586285624321503551
0.509000000000000341,-3.569301455122116273
0.510000000000000342,-3.551915816490282651
0.511000000000000343,-3.534144083869686259
0.512000000000000344,-3.516001310876298191
0.513000000000000345,-3.497502233274851768
0.514000000000000346,-3.478661272981558028
0.515000000000000346,-3.459492542089328104
0.516000000000000347,-3.440009846912258862
0.517000000000000348,-3.420226692046045347
0.518000000000000349,-3.400156284440994714
0.519000000000000350,-3.379811537484888273
0.520000000000000351,-3.359205075092365433
0.521000000000000352,-3.338349235798488301
0.522000000000000353,-3.317256076853362323
0.523000000000000353,-3.295937378315494382
0.524000000000000354,-3.274404647141409441
0.525000000000000355,-3.252669121269019747
0.526000000000000356,-3.230741773692586527
0.527000000000000357,-3.208633316527190082
0.528000000000000358,-3.186354205060442091
0.529000000000000359,-3.163914641789760118
0.530000000000000360,-3.141324580443018988
0.531000000000000361,-3.118593729981089968
0.532000000000000361,-3.095731558580398612
0.533000000000000362,-3.072747297593961591
0.534000000000000363,-3.049649945489338876
0.535000000000000364,-3.026448271762165021
0.536000000000000365,-3.003150820823716316
0.537000000000000366,-2.979765915861437353
0.538000000000000367,-2.956301662670957953
0.539000000000000368,-2.932765953458773556
0.540000000000000369,-2.909166470614158229
0.541000000000000369,-2.885510690449646809
0.542000000000000370,-2.861805886908781460
0.543000000000000371,-2.838059135240588837
0.544000000000000372,-2.814277315639677646
0.545000000000000373,-2.790467116851396590
0.546000000000000374,-2.766635039741154323
0.547000000000000375,-2.742787400827407573
0.548000000000000376,-2.718930335777607343
0.549000000000000377,-2.695069802866572495
0.550000000000000377,-2.671211586396832871
0.551000000000000378,-2.647361300080316227
0.552000000000000379,-2.623524390381233751
0.553000000000000380,-2.599706139819500272
0.554000000000000381,-2.575911670234505291
0.555000000000000382,-2.552145946009027888
0.556000000000000383,-2.528413777252742189
0.557000000000000384,-2.504719822945487451
0.558000000000000385,-2.481068594039739228
0.559000000000000385,-2.457464456522388652
0.560000000000000386,-2.433911634435661941
0.561000000000000387,-2.410414212856978544
0.562000000000000388,-2.386976140837770988
0.563000000000000389,-2.363601234301343279
0.564000000000000390,-2.340293178899520488
0.565000000000000391,-2.317055532828349307
0.566000000000000392,-2.293891729602724805
0.567000000000000393,-2.270805080790198272
0.568000000000000393,-2.247798778703825384
0.569000000000000394,-2.224875899054363781
0.570000000000000395,-2.202039403561951936
0.571000000000000396,-2.179292142527212484
0.572000000000000397,-2.156636857362284054
0.573000000000000398,-2.134076183081654143
0.574000000000000399,-2.111612650753265985
0.575000000000000400,-2.089248689909898093
0.576000000000000401,-2.066986630921208601
0.577000000000000401,-2.044828707326728168
0.578000000000000402,-2.022777058129853422
0.579000000000000403,-2.000833730053320103
0.580000000000000404,-1.979000679756481862
0.581000000000000405,-1.957279776014418271
0.582000000000000406,-1.935672801859564585
0.583000000000000407,-1.914181456685815519
0.584000000000000408,-1.892807358315747646
0.585000000000000409,-1.871552045031110056
0.586000000000000409,-1.850416977566935017
0.587000000000000410,-1.829403541069799077
0.588000000000000411,-1.808513047020313680
0.589000000000000412,-1.787746735120540720
0.590000000000000413,-1.767105775146384783
0.591000000000000414,-1.746591268765579130
0.592000000000000415,-1.726204251321582062
0.593000000000000416,-1.705945693583676093
0.594000000000000417,-1.685816503463748006
0.595000000000000417,-1.665817527700302891
0.596000000000000418,-1.645949553509626018
0.597000000000000419,-1.626213310205163909
0.598000000000000420,-1.606609470784879701
0.599000000000000421,-1.587138653487487172
0.600000000000000422,-1.567801423317652709
0.601000000000000423,-1.548598293540701887
0.602000000000000424,-1.529529727147273643
0.603000000000000425,-1.510596138288228252
0.604000000000000425,-1.491797893680268272
0.605000000000000426,-1.473135313982694594
0.606000000000000427,-1.454608675145777630
0.607000000000000428,-1.436218209730820261
0.608000000000000429,-1.417964108202933726
0.609000000000000430,-1.399846520196206034
0.610000000000000431,-1.381865555752296082
0.611000000000000432,-1.364021286532455690
0.612000000000000433,-1.346313747003531791
