# Rutile-100-old_CS-4945-AC
# h[nm],U(h)[kJ/mol]
0.149999999999999994,225.485952697260017885
0.150999999999999995,223.161610018736752181
0.151999999999999996,221.395719054028404571
0.152999999999999997,219.776904782090639401
0.153999999999999998,218.151445453411042763
0.154999999999999999,216.486414591009946662
0.156000000000000000,214.796025201256099990
0.157000000000000001,213.105122275653968700
0.158000000000000002,211.433577177046487350
0.159000000000000002,209.791710194065899486
0.160000000000000003,208.180941682770566103
0.161000000000000004,206.596424655998532671
0.162000000000000005,205.029969656631749331
0.163000000000000006,203.472490993159652817
0.164000000000000007,201.915718171845639972
0.165000000000000008,200.353183049734809629
0.166000000000000009,198.780612582328330973
0.167000000000000010,197.195893114438234761
0.168000000000000010,195.598764735016288796
0.169000000000000011,193.990377184057138038
0.170000000000000012,192.372805864331382963
0.171000000000000013,190.748594972266715786
0.172000000000000014,189.120368017738229582
0.173000000000000015,187.490525168596917638
0.174000000000000016,185.861031800742182440
0.175000000000000017,184.233292617243762379
0.176000000000000018,182.608099751089781648
0.177000000000000018,180.985640403422848976
0.178000000000000019,179.365548908560668906
0.179000000000000020,177.746988919834933540
0.180000000000000021,176.128753092766856980
0.181000000000000022,174.509369765935048235
0.182000000000000023,172.887208392265534940
0.183000000000000024,171.260577644334972547
0.184000000000000025,169.627812077003909508
0.185000000000000026,167.987344910007038834
0.186000000000000026,166.337765866131405801
0.187000000000000027,164.677864071001692992
0.188000000000000028,163.006656810826683568
0.189000000000000029,161.323405488070335423
0.190000000000000030,159.627620450101119332
0.191000000000000031,157.919056531462558723
0.192000000000000032,156.197701183620040410
0.193000000000000033,154.463757000486566540
0.194000000000000034,152.717620312953897610
0.195000000000000034,150.959857345645446003
0.196000000000000035,149.191179224146424076
0.197000000000000036,147.412416906791747806
0.198000000000000037,145.624496903590909369
0.199000000000000038,143.828418444641386031
0.200000000000000039,142.025232577249994392
0.201000000000000040,140.216023508483658588
0.202000000000000041,138.401892369765619151
0.203000000000000042,136.583943462784048961
0.204000000000000042,134.763272950722267751
0.205000000000000043,132.940959884282506209
0.206000000000000044,131.118059396294313501
0.207000000000000045,129.295597859749364034
0.208000000000000046,127.474569779639267608
0.209000000000000047,125.655936176738492804
0.210000000000000048,123.840624219305368570
0.211000000000000049,122.029527864553557492
0.212000000000000050,120.223509283822380667
0.213000000000000050,118.423400862025658853
0.214000000000000051,116.630007581740258615
0.215000000000000052,114.844109624009689696
0.216000000000000053,113.066465040551406673
0.217000000000000054,111.297812374756134091
0.218000000000000055,109.538873130982409521
0.219000000000000056,107.790354012690684726
0.220000000000000057,106.052948869537772225
0.221000000000000058,104.327340311436188358
0.222000000000000058,102.614200963587407500
0.223000000000000059,100.914194350573865222
0.224000000000000060,99.227975409711874022
0.225000000000000061,97.556190644081496544
0.226000000000000062,95.899477934035687099
0.227000000000000063,94.258466032661232248
0.228000000000000064,92.633773775760658964
0.229000000000000065,91.026009040576212783
0.230000000000000066,89.435767489856260681
0.231000000000000066,87.863631139110452750
0.232000000000000067,86.310166785174956772
0.233000000000000068,84.775924333654174347
0.234000000000000069,83.261435061563346949
0.235000000000000070,81.767209849695433377
0.236000000000000071,80.293737416996421530
0.237000000000000072,78.841482586661271625
0.238000000000000073,77.410884610858090582
0.239000000000000073,76.002355578035491135
0.240000000000000074,74.616278923737553441
0.241000000000000075,73.253008062814657819
0.242000000000000076,71.912865157921117998
0.243000000000000077,70.596140036284396047
0.244000000000000078,69.303089263946759502
0.245000000000000079,68.033935384048177752
0.246000000000000080,66.788866323264386438
0.247000000000000081,65.568034968243892990
0.248000000000000081,64.371558911819690252
0.249000000000000082,63.199520366908529923
0.250000000000000111,62.051966244350523993
0.251000000000000112,60.928908389489208730
0.252000000000000113,59.830323971035532793
0.253000000000000114,58.756156014697481282
0.254000000000000115,57.706314073176088186
0.255000000000000115,56.680675023422267600
0.256000000000000116,55.679083981503232792
0.257000000000000117,54.701355325031769894
0.258000000000000118,53.747273812854885477
0.259000000000000119,52.816595791564317608
0.260000000000000120,51.909050478372577686
0.261000000000000121,51.024341309977771175
0.262000000000000122,50.162147347210179760
0.263000000000000123,49.322124725499946862
0.264000000000000123,48.503908141517229069
0.265000000000000124,47.707112366705814566
0.266000000000000125,46.931333778845669258
0.267000000000000126,46.176151903233417784
0.268000000000000127,45.441130955550434578
0.269000000000000128,44.725821378993657618
0.270000000000000129,44.029761368761406004
0.271000000000000130,43.352478377514337637
0.272000000000000131,42.693490595961954170
0.273000000000000131,42.052308403253583435
0.274000000000000132,41.428435782375480301
0.275000000000000133,40.821371696267888751
0.276000000000000134,40.230611420875959539
0.277000000000000135,39.655647831832382622
0.278000000000000136,39.095972641935020420
0.279000000000000137,38.551077587028984794
0.280000000000000138,38.020455558327718393
0.281000000000000139,37.503601679609275266
0.282000000000000139,37.000014328103631556
0.283000000000000140,36.509196098241957884
0.284000000000000141,36.030654707770445100
0.285000000000000142,35.563903846038684264
0.286000000000000143,35.108463964556236192
0.287000000000000144,34.663863010171567680
0.288000000000000145,34.229637101464291504
0.289000000000000146,33.805331149157339610
0.290000000000000147,33.390499421548035741
0.291000000000000147,32.984706056130406182
0.292000000000000148,32.587525518732562091
0.293000000000000149,32.198543011627364763
0.294000000000000150,31.817354832188833313
0.295000000000000151,31.443568683765686700
0.296000000000000152,31.076803940524960979
0.297000000000000153,30.716691868085682415
0.298000000000000154,30.362875801815221166
0.299000000000000155,30.015011284700715777
0.300000000000000155,29.672766166735122795
0.301000000000000156,29.335820667774079595
0.302000000000000157,29.003867405825236148
0.303000000000000158,28.676611392728766248
0.304000000000000159,28.353769999175256089
0.305000000000000160,28.035072890988054439
0.306000000000000161,27.720261938570285309
0.307000000000000162,27.409091101383857847
0.308000000000000163,27.101326289290096128
0.309000000000000163,26.796745202538282626
0.310000000000000164,26.495137152141474246
0.311000000000000165,26.196302862328479932
0.312000000000000166,25.900054256706955158
0.313000000000000167,25.606214229717032538
0.314000000000000168,25.314616404896348456
0.315000000000000169,25.025104881418162250
0.316000000000000170,24.737533970303292818
0.317000000000000171,24.451767921645277681
0.318000000000000171,24.167680644126342315
0.319000000000000172,23.885155418039527575
0.320000000000000173,23.604084602970814899
0.321000000000000174,23.324369341233666120
0.322000000000000175,23.045919258087554482
0.323000000000000176,22.768652159712356564
0.324000000000000177,22.492493729851751993
0.325000000000000178,22.217377225980989408
0.326000000000000179,21.943243175798329503
0.327000000000000179,21.670039074784561706
0.328000000000000180,21.397719085521831772
0.329000000000000181,21.126243739411361133
0.330000000000000182,20.855579641379826228
0.331000000000000183,20.585699178115852703
0.332000000000000184,20.316580230332018431
0.333000000000000185,20.048205889503027066
0.334000000000000186,19.780564179488095533
0.335000000000000187,19.513647783404998393
0.336000000000000187,19.247453776083762733
0.337000000000000188,18.981983362391641634
0.338000000000000189,18.717241621685023034
0.339000000000000190,18.453237258610766247
0.340000000000000191,18.189982360447874754
0.341000000000000192,17.927492161150350825
0.342000000000000193,17.665784812223758848
0.343000000000000194,17.404881160541485485
0.344000000000000195,17.144804533182277595
0.345000000000000195,16.885580529346249534
0.346000000000000196,16.627236819385935007
0.347000000000000197,16.369802950967589084
0.348000000000000198,16.113310162359912425
0.349000000000000199,15.857791202829272237
0.350000000000000200,15.603280160104528562
0.351000000000000201,15.349812294859736639
0.352000000000000202,15.097423882149266561
0.353000000000000203,14.846152059717308447
0.354000000000000203,14.596034683092318218
0.355000000000000204,14.347110187366855172
0.356000000000000205,14.099417455553743039
0.357000000000000206,13.852995693400973920
0.358000000000000207,13.607884310540793393
0.359000000000000208,13.364122807841514629
0.360000000000000209,13.121750670824628315
0.361000000000000210,12.880807269005469351
0.362000000000000210,12.641331761010608403
0.363000000000000211,12.403363005322180612
0.364000000000000212,12.166939476496091643
0.365000000000000213,11.932099186698721383
0.366000000000000214,11.698879612405098882
0.367000000000000215,11.467317626100093975
0.368000000000000216,11.237449432823314766
0.369000000000000217,11.009310511398393118
0.370000000000000218,10.782935560186954760
0.371000000000000218,10.558358447208515685
0.372000000000000219,10.335612164467836038
0.373000000000000220,10.114728786332841892
0.374000000000000221,9.895739431807388797
0.375000000000000222,9.678674230545178503
0.376000000000000223,9.463562292452319724
0.377000000000000224,9.250431680729288786
0.378000000000000225,9.039309388204461726
0.379000000000000226,8.830221316814526489
0.380000000000000226,8.623192260089352246
0.381000000000000227,8.418245888502189800
0.382000000000000228,8.215404737548618996
0.383000000000000229,8.014690198421032363
0.384000000000000230,7.816122511148401841
0.385000000000000231,7.619720760074399024
0.386000000000000232,7.425502871550287765
0.387000000000000233,7.233485613722140606
0.388000000000000234,7.043684598295603116
0.389000000000000234,6.856114284164561923
0.390000000000000235,6.670787982793632054
0.391000000000000236,6.487717865247828009
0.392000000000000237,6.306914970766056783
0.393000000000000238,6.128389216778659332
0.394000000000000239,5.952149410272511432
0.395000000000000240,5.778203260410521125
0.396000000000000241,5.606557392315891342
0.397000000000000242,5.437217361934549409
0.398000000000000242,5.270187671892611725
0.399000000000000243,5.105471788268975075
0.400000000000000244,4.943072158205954914
0.401000000000000245,4.782990228284491607
0.402000000000000246,4.625226463593292259
0.403000000000000247,4.469780367423883405
0.404000000000000248,4.316650501527257155
0.405000000000000249,4.165834506869925846
0.406000000000000250,4.017329124830522069
0.407000000000000250,3.871130218780419519
0.408000000000000251,3.727232795994775749
0.409000000000000252,3.585631029842988760
0.410000000000000253,3.446318282209804629
0.411000000000000254,3.309287126101172927
0.412000000000000255,3.174529368391071138
0.413000000000000256,3.042036072667736679
0.414000000000000257,2.911797582140415841
0.415000000000000258,2.783803542569306178
0.416000000000000258,2.658042925184122218
0.417000000000000259,2.534504049558109706
0.418000000000000260,2.413174606406880418
0.419000000000000261,2.294041680282763007
0.420000000000000262,2.177091772137806913
0.421000000000000263,2.062310821729659516
0.422000000000000264,1.949684229846949446
0.423000000000000265,1.839196880331750661
0.424000000000000266,1.730833161878750914
0.425000000000000266,1.624576989592134924
0.426000000000000267,1.520411826282431544
0.427000000000000268,1.418320703487261802
0.428000000000000269,1.318286242201069491
0.429000000000000270,1.220290673300164608
0.430000000000000271,1.124315857650823647
0.431000000000000272,1.030343305889023675
0.432000000000000273,0.938354197861897554
0.433000000000000274,0.848329401721676257
0.434000000000000274,0.760249492664108795
0.435000000000000275,0.674094771304333151
0.436000000000000276,0.589845281683910594
0.437000000000000277,0.507480828903736914
0.438000000000000278,0.426980996378372335
0.439000000000000279,0.348325162708048586
0.440000000000000280,0.271492518165323715
0.441000000000000281,0.196462080794281319
0.442000000000000282,0.123212712120386231
0.443000000000000282,0.051723132470343589
0.444000000000000283,-0.018028064098764007
0.445000000000000284,-0.086062395260620844
0.446000000000000285,-0.152401476270615038
0.447000000000000286,-0.217067006205355101
0.448000000000000287,-0.280080754589047576
0.449000000000000288,-0.341464548404829371
0.450000000000000289,-0.401240259488454598
0.451000000000000290,-0.459429792301560447
0.452000000000000290,-0.516055072081423205
0.453000000000000291,-0.571138033363497444
0.454000000000000292,-0.624700608873110852
0.455000000000000293,-0.676764718782195018
0.456000000000000294,-0.727352260326616595
0.457000000000000295,-0.776485097779762712
0.458000000000000296,-0.824185052777300031
0.459000000000000297,-0.870473894988440855
0.460000000000000298,-0.915373333128331135
0.461000000000000298,-0.958905006306403629
0.462000000000000299,-1.001090475705167293
0.463000000000000300,-1.041951216583848261
0.464000000000000301,-1.081508610601285003
0.465000000000000302,-1.119783938452190597
0.466000000000000303,-1.156798372810925235
0.467000000000000304,-1.192572971576979501
0.468000000000000305,-1.227128671415913974
0.469000000000000306,-1.260486281589926261
0.470000000000000306,-1.292666478071935909
0.471000000000000307,-1.323689797936906443
0.472000000000000308,-1.353576634024474590
0.473000000000000309,-1.382347229866700555
0.474000000000000310,-1.410021674874693876
0.475000000000000311,-1.436619899778142306
0.476000000000000312,-1.462161672311505622
0.477000000000000313,-1.486666593140923531
0.478000000000000314,-1.510154092025589145
0.479000000000000314,-1.532643424207781324
0.480000000000000315,-1.554153667025367724
0.481000000000000316,-1.574703716741034487
0.482000000000000317,-1.594312285582176303
0.483000000000000318,-1.612997898985778944
0.484000000000000319,-1.630778893042413857
0.485000000000000320,-1.647673412133671800
0.486000000000000321,-1.663699406757456645
0.487000000000000322,-1.678874631535503426
0.488000000000000322,-1.693216643397587706
0.489000000000000323,-1.706742799937175592
0.490000000000000324,-1.719470257933027879
0.491000000000000325,-1.731415972031531636
0.492000000000000326,-1.742596693584611334
0.493000000000000327,-1.753028969638170453
0.494000000000000328,-1.762729142065935672
0.495000000000000329,-1.771713346843962311
0.496000000000000330,-1.779997513460749969
0.497000000000000330,-1.787597364458564986
0.498000000000000331,-1.794528415100846486
0.499000000000000332,-1.800805973161662354
0.500000000000000333,-1.806445138832402320
0.501000000000000334,-1.811460804741368502
0.502000000000000335,-1.815867656082153614
0.503000000000000336,-1.819680170846452061
0.504000000000000337,-1.822912620157285390
0.505000000000000338,-1.825579068698579777
0.506000000000000338,-1.827693375237256390
0.507000000000000339,-1.829269193233946655
0.508000000000000340,-1.830319971538543866
0.509000000000000341,-1.830858955167185886
0.510000000000000342,-1.830899186156742076
0.511000000000000343,-1.830453504493714245
0.512000000000000344,-1.829534549113851938
0.513000000000000345,-1.828154758969383620
0.514000000000000346,-1.826326374160671673
0.515000000000000346,-1.824061437128969843
0.516000000000000347,-1.821371793907417214
0.517000000000000348,-1.818269095427333060
0.518000000000000349,-1.814764798876731700
0.519000000000000350,-1.810870169108547589
0.520000000000000351,-1.806596280095527307
0.521000000000000352,-1.801954016429520689
0.522000000000000353,-1.796954074862248563
0.523000000000000353,-1.791606965885308211
0.524000000000000354,-1.785923015346938758
0.525000000000000355,-1.779912366103141519
0.526000000000000356,-1.773584979700964626
0.527000000000000357,-1.766950638091750125
0.528000000000000358,-1.760018945372158639
0.529000000000000359,-1.752799329551032681
0.530000000000000360,-1.745301044339916174
0.531000000000000361,-1.737533170965505747
0.532000000000000361,-1.729504620002052961
0.533000000000000362,-1.721224133221938901
0.534000000000000363,-1.712700285462675165
0.535000000000000364,-1.703941486508716352
0.536000000000000365,-1.694955982986343201
0.537000000000000366,-1.685751860270210400
0.538000000000000367,-1.676337044399830445
0.539000000000000368,-1.666719304004860236
0.540000000000000369,-1.656906252237423605
0.541000000000000369,-1.646905348710477668
0.542000000000000370,-1.636723901440598095
0.543000000000000371,-1.626369068794229378
0.544000000000000372,-1.615847861435985466
0.545000000000000373,-1.605167144278006663
0.546000000000000374,-1.594333638429143107
0.547000000000000375,-1.583353923142983621
0.548000000000000376,-1.572234437763722514
0.549000000000000377,-1.560981483668812952
0.550000000000000377,-1.549601226207608651
0.551000000000000378,-1.538099696634899871
0.552000000000000379,-1.526482794038764412
0.553000000000000380,-1.514756287261663781
0.554000000000000381,-1.502925816814123072
0.555000000000000382,-1.490996896780351744
0.556000000000000383,-1.478974916714844046
0.557000000000000384,-1.466865143529597848
0.558000000000000385,-1.454672723371021270
0.559000000000000385,-1.442402683486143644
0.560000000000000386,-1.430059934077466677
0.561000000000000387,-1.417649270145884044
0.562000000000000388,-1.405175373321163601
0.563000000000000389,-1.392642813679627611
0.564000000000000390,-1.380056051548350649
0.565000000000000391,-1.367419439295650019
0.566000000000000392,-1.354737223107298494
0.567000000000000393,-1.342013544748259513
0.568000000000000393,-1.329252443309356213
0.569000000000000394,-1.316457856938729298
0.570000000000000395,-1.303633624557730020
0.571000000000000396,-1.290783487560834830
0.572000000000000397,-1.277911091499531304
0.573000000000000398,-1.265019987749684383
0.574000000000000399,-1.252113635162385830
0.575000000000000400,-1.239195401697851695
0.576000000000000401,-1.226268566042340247
0.577000000000000401,-1.213336319207910297
0.578000000000000402,-1.200401766114702617
0.579000000000000403,-1.187467927155758662
0.580000000000000404,-1.174537739744273335
0.581000000000000405,-1.161614059842966951
0.582000000000000406,-1.148699663475747368
0.583000000000000407,-1.135797248221321221
0.584000000000000408,-1.122909434688918129
0.585000000000000409,-1.110038767975906282
0.586000000000000409,-1.097187719107294068
0.587000000000000410,-1.084358686457194576
0.588000000000000411,-1.071553997152000282
0.589000000000000412,-1.058775908455583448
0.590000000000000413,-1.046026609136157415
0.591000000000000414,-1.033308220815108314
0.592000000000000415,-1.020622799297706607
0.593000000000000416,-1.007972335885649162
0.594000000000000417,-0.995358758671566646
0.595000000000000417,-0.982783933815658761
0.596000000000000418,-0.970249666804110733
0.597000000000000419,-0.957757703689916973
0.598000000000000420,-0.945309732315637752
0.599000000000000421,-0.932907383518584710
0.600000000000000422,-0.920552232318258112
0.601000000000000423,-0.908245799086220496
0.602000000000000424,-0.895989550698541470
0.603000000000000425,-0.883784901670848555
0.604000000000000425,-0.871633215276074180
0.605000000000000426,-0.859535804645094936
0.606000000000000427,-0.847493933850376968
0.607000000000000428,-0.835508818972524381
0.608000000000000429,-0.823581629150313743
0.609000000000000430,-0.811713487613775597
0.610000000000000431,-0.799905472700981002
0.611000000000000432,-0.788158618858306403
0.612000000000000433,-0.776473917624453724
