# Rutile-100-old_CS-13867413-AC
# h[nm],U(h)[kJ/mol]
0.149999999999999994,221.003913510063114245
0.150999999999999995,219.488313869585368820
0.151999999999999996,219.499635905272128866
0.152999999999999997,219.737175937523403491
0.153999999999999998,219.747189295034871748
0.154999999999999999,219.467948382975862387
0.156000000000000000,218.985548192856725791
0.157000000000000001,218.413464191551014437
0.158000000000000002,217.841672196406392459
0.159000000000000002,217.322425133910059003
0.160000000000000003,216.873371606178437787
0.161000000000000004,216.487205408896386416
0.162000000000000005,216.142221071819989220
0.163000000000000006,215.811205072853624642
0.164000000000000007,215.467804594259234818
0.165000000000000008,215.090403623610569639
0.166000000000000009,214.663934998398644893
0.167000000000000010,214.180179442973894766
0.168000000000000010,213.637080635094662284
0.169000000000000011,213.037517994617843442
0.170000000000000012,212.387871527752793099
0.171000000000000013,211.696609818529083213
0.172000000000000014,210.973044379720533925
0.173000000000000015,210.226324789562255546
0.174000000000000016,209.464698973367973167
0.175000000000000017,208.695029264564254845
0.176000000000000018,207.922534372717336737
0.177000000000000018,207.150716927796167965
0.178000000000000019,206.381433008531075757
0.179000000000000020,205.615061616689388302
0.180000000000000021,204.850736548526668912
0.181000000000000022,204.086609127853705559
0.182000000000000023,203.320116794310024488
0.183000000000000024,202.548238907655104413
0.184000000000000025,201.767726913744496642
0.185000000000000026,200.975300992729188465
0.186000000000000026,200.167809385457445615
0.187000000000000027,199.342349774767683357
0.188000000000000028,198.496354448908903123
0.189000000000000029,197.627642593423274775
0.190000000000000030,196.734444059767611179
0.191000000000000031,195.815399460722403546
0.192000000000000032,194.869541555529281140
0.193000000000000033,193.896262712214877411
0.194000000000000034,192.895272857866359573
0.195000000000000034,191.866551822611285161
0.196000000000000035,190.810299408666992349
0.197000000000000036,189.726885918054335889
0.198000000000000037,188.616805285877831011
0.199000000000000038,187.480632415012109959
0.200000000000000039,186.318985808891909528
0.201000000000000040,185.132496161449580541
0.202000000000000041,183.921781191402459399
0.203000000000000042,182.687426702359715591
0.204000000000000042,181.429973607994128315
0.205000000000000043,180.149910478171818795
0.206000000000000044,178.847671031562754251
0.207000000000000045,177.523635916264311163
0.208000000000000046,176.178138075537674467
0.209000000000000047,174.811470984137201867
0.210000000000000048,173.423899055518319301
0.211000000000000049,172.015669555531701462
0.212000000000000050,170.587025408754243472
0.213000000000000050,169.138218344711674490
0.214000000000000051,167.669521898918247871
0.215000000000000052,166.181243854537768811
0.216000000000000053,164.673737781812576486
0.217000000000000054,163.147413402019992645
0.218000000000000055,161.602745568916276397
0.219000000000000056,160.040281722173801882
0.220000000000000057,158.460647723345630311
0.221000000000000058,156.864552034881000964
0.222000000000000058,155.252788246394146654
0.223000000000000059,153.626235989726325215
0.224000000000000060,151.985860315467988357
0.225000000000000061,150.332709628803570467
0.226000000000000062,148.667912302162392280
0.227000000000000063,146.992672096663852699
0.228000000000000064,145.308262534205482552
0.229000000000000065,143.616020367768896904
0.230000000000000066,141.917338299627886045
0.231000000000000066,140.213657096137438884
0.232000000000000067,138.506457244148720065
0.233000000000000068,136.797250288294605980
0.234000000000000069,135.087569980852663321
0.235000000000000070,133.378963367005951568
0.236000000000000071,131.672981918449778505
0.237000000000000072,129.971172817742086636
0.238000000000000073,128.275070484852022901
0.239000000000000073,126.586188426265579210
0.240000000000000074,124.906011475961321366
0.241000000000000075,123.235988486751779192
0.242000000000000076,121.577525520037141860
0.243000000000000077,119.931979572046344629
0.244000000000000078,118.300652865246505030
0.245000000000000079,116.684787724837207179
0.246000000000000080,115.085562052166636704
0.247000000000000081,113.504085399537189005
0.248000000000000081,111.941395644217010386
0.249000000000000082,110.398456253550492079
0.250000000000000111,108.876154127843577157
0.251000000000000112,107.375298003175998929
0.252000000000000113,105.896617392433171290
0.253000000000000114,104.440762039621517943
0.254000000000000115,103.008301859897869690
0.255000000000000115,101.599727335665107830
0.256000000000000116,100.215450337520451285
0.257000000000000117,98.855805337747511885
0.258000000000000118,97.521050983376639465
0.259000000000000119,96.211371995554628711
0.260000000000000120,94.926881362024843725
0.261000000000000121,93.667622789882472034
0.262000000000000122,92.433573386395465832
0.263000000000000123,91.224646536537633779
0.264000000000000123,90.040694946926009834
0.265000000000000124,88.881513827062491373
0.266000000000000125,87.746844180119154544
0.267000000000000126,86.636376176946825467
0.268000000000000127,85.549752588506166262
0.269000000000000128,84.486572253495339169
0.270000000000000129,83.446393559557776598
0.271000000000000130,82.428737918078098801
0.272000000000000131,81.433093214201306864
0.273000000000000131,80.458917215321335448
0.274000000000000132,79.505640922870412624
0.275000000000000133,78.572671853789827878
0.276000000000000134,77.659397239564370352
0.277000000000000135,76.765187132152931326
0.278000000000000136,75.889397407537828144
0.279000000000000137,75.031372658940284737
0.280000000000000138,74.190448973009807787
0.281000000000000139,73.365956583481363396
0.282000000000000139,72.557222397911544931
0.283000000000000140,71.763572394146962097
0.284000000000000141,70.984333884149606320
0.285000000000000142,70.218837643700084072
0.286000000000000143,69.466419907326482530
0.287000000000000144,68.726424228561995733
0.288000000000000145,67.998203206322841652
0.289000000000000146,67.281120078818759112
0.290000000000000147,66.574550186967286436
0.291000000000000147,65.877882309779494108
0.292000000000000148,65.190519874624300201
0.293000000000000149,64.511882045662702012
0.294000000000000150,63.841404694074242343
0.295000000000000151,63.178541253981485681
0.296000000000000152,62.522763468214634486
0.297000000000000153,61.873562028252727885
0.298000000000000154,61.230447112830823642
0.299000000000000155,60.592948829820763024
0.300000000000000155,59.960617566075008256
0.301000000000000156,59.333024249975871101
0.302000000000000157,58.709760531454534771
0.303000000000000158,58.090438884242828976
0.304000000000000159,57.474692635094186244
0.305000000000000160,56.862175924663063142
0.306000000000000161,56.252563604667457753
0.307000000000000162,55.645551075875651748
0.308000000000000163,55.040854071362581124
0.309000000000000163,54.438208389371446572
0.310000000000000164,53.837369579995879576
0.311000000000000165,53.238112589768569194
0.312000000000000166,52.640231368105233400
0.313000000000000167,52.043538439408870033
0.314000000000000168,51.447864444491962388
0.315000000000000169,50.853057654820496225
0.316000000000000170,50.258983462930714836
0.317000000000000171,49.665523852212068334
0.318000000000000171,49.072576849092875761
0.319000000000000172,48.480055960508714463
0.320000000000000173,47.887889599376691763
0.321000000000000174,47.296020500644999629
0.322000000000000175,46.704405130333867646
0.323000000000000176,46.113013089834673508
0.324000000000000177,45.521826517586745808
0.325000000000000178,44.930839490108240852
0.326000000000000179,44.340057424218045412
0.327000000000000179,43.749496482149574206
0.328000000000000180,43.159182981126512857
0.329000000000000181,42.569152808844378910
0.330000000000000182,41.979450846178259837
0.331000000000000183,41.390130398321346661
0.332000000000000184,40.801252635445266037
0.333000000000000185,40.212886043866525654
0.334000000000000186,39.625105888599840398
0.335000000000000187,39.037993688081954247
0.336000000000000187,38.451636701756413572
0.337000000000000188,37.866127431121654467
0.338000000000000189,37.281563134761533718
0.339000000000000190,36.698045357798676491
0.340000000000000191,36.115679476136783421
0.341000000000000192,35.534574255789301844
0.342000000000000193,34.954841427525160213
0.343000000000000194,34.376595277002735429
0.344000000000000195,33.799952250505725715
0.345000000000000195,33.225030576341438859
0.346000000000000196,32.651949901913823737
0.347000000000000197,32.080830946437068008
0.348000000000000198,31.511795169215201184
0.349000000000000199,30.944964453373394520
0.350000000000000200,30.380460804892457816
0.351000000000000201,29.818406066765579254
0.352000000000000202,29.258921648067637733
0.353000000000000203,28.702128267700764752
0.354000000000000203,28.148145712556772224
0.355000000000000204,27.597092609815604192
0.356000000000000205,27.049086213081164232
0.357000000000000206,26.504242202038096110
0.358000000000000207,25.962674495300838373
0.359000000000000208,25.424495076112485492
0.360000000000000209,24.889813830541452688
0.361000000000000210,24.358738397815582033
0.362000000000000210,23.831374032425792109
0.363000000000000211,23.307823477626900655
0.364000000000000212,22.788186849958723457
0.365000000000000213,22.272561534408261252
0.366000000000000214,21.761042089832702828
0.367000000000000215,21.253720164262336567
0.368000000000000216,20.750684419703581796
0.369000000000000217,20.252020466064557525
0.370000000000000218,19.757810803827624113
0.371000000000000218,19.268134775097440325
0.372000000000000219,18.783068522657153210
0.373000000000000220,18.302684956670070449
0.374000000000000221,17.827053728670154698
0.375000000000000222,17.356241212490516546
0.376000000000000223,16.890310491784983782
0.377000000000000224,16.429321353806049189
0.378000000000000225,15.973330289108639946
0.379000000000000226,15.522390496857511266
0.380000000000000226,15.076551895423358829
0.381000000000000227,14.635861137961521550
0.382000000000000228,14.200361632674908918
0.383000000000000229,13.770093567471613838
0.384000000000000230,13.345093938735852035
0.385000000000000231,12.925396583940059969
0.386000000000000232,12.511032217834229030
0.387000000000000233,12.102028471957376965
0.388000000000000234,11.698409937225061839
0.389000000000000234,11.300198209355345469
0.390000000000000235,10.907411936904036764
0.391000000000000236,10.520066871689429888
0.392000000000000237,10.138175921394195100
0.393000000000000238,9.761749204141555225
0.394000000000000239,9.390794104850545665
0.395000000000000240,9.025315333183421274
0.396000000000000241,8.665314982906767938
0.397000000000000242,8.310792592495108266
0.398000000000000242,7.961745206814232922
0.399000000000000243,7.618167439728729562
0.400000000000000244,7.280051537485313418
0.401000000000000245,6.947387442731620233
0.402000000000000246,6.620162859036739178
0.403000000000000247,6.298363315786053462
0.404000000000000248,5.981972233331054767
0.405000000000000249,5.670970988280016556
0.406000000000000250,5.365338978822462579
0.407000000000000250,5.065053689986265262
0.408000000000000251,4.770090758732023595
0.409000000000000252,4.480424038795640662
0.410000000000000253,4.196025665194681231
0.411000000000000254,3.916866118320534440
0.412000000000000255,3.642914287542725837
0.413000000000000256,3.374137534257052984
0.414000000000000257,3.110501754314159761
0.415000000000000258,2.851971439769417138
0.416000000000000258,2.598509739899927062
0.417000000000000259,2.350078521438077495
0.418000000000000260,2.106638427976014860
0.419000000000000261,1.868148938498222833
0.420000000000000262,1.634568425004486070
0.421000000000000263,1.405854209187716419
0.422000000000000264,1.181962618135849130
0.423000000000000265,0.962849039029074483
0.424000000000000266,0.748467972807876580
0.425000000000000266,0.538773086789628874
0.426000000000000267,0.333717266214453301
0.427000000000000268,0.133252664703983920
0.428000000000000269,-0.062669246380971003
0.429000000000000270,-0.254097629695523519
0.430000000000000271,-0.441082234787594452
0.431000000000000272,-0.623673352104008760
0.432000000000000273,-0.801921768130427259
0.433000000000000274,-0.975878721668516191
0.434000000000000274,-1.145595861251571090
0.435000000000000275,-1.311125203698013220
0.436000000000000276,-1.472519093800848777
0.437000000000000277,-1.629830165149539045
0.438000000000000278,-1.783111302079171567
0.439000000000000279,-1.932415602740760630
0.440000000000000280,-2.077796343285114311
0.441000000000000281,-2.219306943151512002
0.442000000000000282,-2.357000931451630255
0.443000000000000282,-2.490931914437718664
0.444000000000000283,-2.621153544043714589
0.445000000000000284,-2.747719487486430801
0.446000000000000285,-2.870683397913944557
0.447000000000000286,-2.990098886086977714
0.448000000000000287,-3.106019493078736371
0.449000000000000288,-3.218498663978082597
0.450000000000000289,-3.327589722580240217
0.451000000000000290,-3.433345847048882238
0.452000000000000290,-3.535820046533149963
0.453000000000000291,-3.635065138722330946
0.454000000000000292,-3.731133728321181398
0.455000000000000293,-3.824078186428243153
0.456000000000000294,-3.913950630799176711
0.457000000000000295,-4.000802906977474649
0.458000000000000296,-4.084686570273911244
0.459000000000000297,-4.165652868576863455
0.460000000000000298,-4.243752725974810680
0.461000000000000298,-4.319036727172795409
0.462000000000000299,-4.391555102684163714
0.463000000000000300,-4.461357714779224715
0.464000000000000301,-4.528494044172374444
0.465000000000000302,-4.593013177429183358
0.466000000000000303,-4.654963795075131472
0.467000000000000304,-4.714394160387946009
0.468000000000000305,-4.771352108854916452
0.469000000000000306,-4.825885038277678341
0.470000000000000306,-4.878039899506404709
0.471000000000000307,-4.927863187785529675
0.472000000000000308,-4.975400934693711363
0.473000000000000309,-5.020698700660688907
0.474000000000000310,-5.063801568043679424
0.475000000000000311,-5.104754134746636751
0.476000000000000312,-5.143600508365449464
0.477000000000000313,-5.180384300842921341
0.478000000000000314,-5.215148623616891577
0.479000000000000314,-5.247936083245907213
0.480000000000000315,-5.278788777496481899
0.481000000000000316,-5.307748291876608349
0.482000000000000317,-5.334855696600218522
0.483000000000000318,-5.360151543967830889
0.484000000000000319,-5.383675866148630362
0.485000000000000320,-5.405468173349525784
0.486000000000000321,-5.425567452357383580
0.487000000000000322,-5.444012165440375028
0.488000000000000322,-5.460840249594935081
0.489000000000000323,-5.476089116125339551
0.490000000000000324,-5.489795650542696137
0.491000000000000325,-5.501996212770778882
0.492000000000000326,-5.512726637646375494
0.493000000000000327,-5.522022235702102932
0.494000000000000328,-5.529917794219675109
0.495000000000000329,-5.536447578542468939
0.496000000000000330,-5.541645333635681681
0.497000000000000330,-5.545544285883766022
0.498000000000000331,-5.548177145113642794
0.499000000000000332,-5.549576106834157585
0.500000000000000333,-5.549772854681085832
0.501000000000000334,-5.548798563057910194
0.502000000000000335,-5.546683899963044340
0.503000000000000336,-5.543459029993885068
0.504000000000000337,-5.539153617518872252
0.505000000000000338,-5.533796830008507861
0.506000000000000338,-5.527417341517034899
0.507000000000000339,-5.520043336306335924
0.508000000000000340,-5.511702512603902093
0.509000000000000341,-5.502422086487465336
0.510000000000000342,-5.492228795888109971
0.511000000000000343,-5.481148904705172242
0.512000000000000344,-5.469208207025275215
0.513000000000000345,-5.456432031438962937
0.514000000000000346,-5.442845245448239666
0.515000000000000346,-5.428472259958359913
0.516000000000000347,-5.413337033847874125
0.517000000000000348,-5.397463078610845955
0.518000000000000349,-5.380873463065325879
0.519000000000000350,-5.363590818122707660
0.520000000000000351,-5.345637341612143878
0.521000000000000352,-5.327034803155378917
0.522000000000000353,-5.307804549086332813
0.523000000000000353,-5.287967507411058143
0.524000000000000354,-5.267544192803200964
0.525000000000000355,-5.246554711630444068
0.526000000000000356,-5.225018767007652443
0.527000000000000357,-5.202955663872595338
0.528000000000000358,-5.180384314080133557
0.529000000000000359,-5.157323241511241108
0.530000000000000360,-5.133790587192806676
0.531000000000000361,-5.109804114425109844
0.532000000000000361,-5.085381213913284348
0.533000000000000362,-5.060538908899606447
0.534000000000000363,-5.035293860293478474
0.535000000000000364,-5.009662371796260061
0.536000000000000365,-4.983660395017840194
0.537000000000000366,-4.957303534582548465
0.538000000000000367,-4.930607053221458536
0.539000000000000368,-4.903585876849017033
0.540000000000000369,-4.876254599621233865
0.541000000000000369,-4.848627488973566990
0.542000000000000370,-4.820718490635944597
0.543000000000000371,-4.792541233623383690
0.544000000000000372,-4.764109035199819431
0.545000000000000373,-4.735434905813699302
0.546000000000000374,-4.706531554003317019
0.547000000000000375,-4.677411391270445584
0.548000000000000376,-4.648086536920629008
0.549000000000000377,-4.618568822868726720
0.550000000000000377,-4.588869798408371281
0.551000000000000378,-4.559000734943824185
0.552000000000000379,-4.528972630683472111
0.553000000000000380,-4.498796215293317857
0.554000000000000381,-4.468481954509707421
0.555000000000000382,-4.438040054710407745
0.556000000000000383,-4.407480467442679739
0.557000000000000384,-4.376812893908050839
0.558000000000000385,-4.346046789402516985
0.559000000000000385,-4.315191367711741499
0.560000000000000386,-4.284255605460563388
0.561000000000000387,-4.253248246416040601
0.562000000000000388,-4.222177805743589474
0.563000000000000389,-4.191052574215828663
0.564000000000000390,-4.159880622373433923
0.565000000000000391,-4.128669804637825180
0.566000000000000392,-4.097427763375171672
0.567000000000000393,-4.066161932911633414
0.568000000000000393,-4.034879543499244825
0.569000000000000394,-4.003587625232500002
0.570000000000000395,-3.972293011915458472
0.571000000000000396,-3.941002344878921981
0.572000000000000397,-3.909722076748020303
0.573000000000000398,-3.878458475159762830
0.574000000000000399,-3.847217626430762039
0.575000000000000400,-3.816005439174966263
0.576000000000000401,-3.784827647871495060
0.577000000000000401,-3.753689816382780098
0.578000000000000402,-3.722597341422737571
0.579000000000000403,-3.691555455975415789
0.580000000000000404,-3.660569232664227179
0.581000000000000405,-3.629643587071613275
0.582000000000000406,-3.598783281009814594
0.583000000000000407,-3.567992925742447419
0.584000000000000408,-3.537276985157542075
0.585000000000000409,-3.506639778892046699
0.586000000000000409,-3.476085485408036302
0.587000000000000410,-3.445618145021190681
0.588000000000000411,-3.415241662881392415
0.589000000000000412,-3.384959811906298022
0.590000000000000413,-3.354776235667672690
0.591000000000000414,-3.324694451231238190
0.592000000000000415,-3.294717851950258680
0.593000000000000416,-3.264849710213110434
0.594000000000000417,-3.235093180145345748
0.595000000000000417,-3.205451300266839443
0.596000000000000418,-3.175926996103786593
0.597000000000000419,-3.146523082756854439
0.598000000000000420,-3.117242267425015978
0.599000000000000421,-3.088087151886226955
0.600000000000000422,-3.059060234934882772
0.601000000000000423,-3.030163914776712097
0.602000000000000424,-3.001400491381608582
0.603000000000000425,-2.972772168794675096
0.604000000000000425,-2.944281057406044066
0.605000000000000426,-2.915929176179970828
0.606000000000000427,-2.887718454843663629
0.607000000000000428,-2.859650736036051910
0.608000000000000429,-2.831727777417556435
0.609000000000000430,-2.803951253740623706
0.610000000000000431,-2.776322758882106445
0.611000000000000432,-2.748843807837595854
