# Rutile-100-old_BUT2ENOIC-AC
# h[nm],U(h)[kJ/mol]
0.149999999999999994,186.725417498693730067
0.150999999999999995,185.756049846232514255
0.151999999999999996,185.294067830157757726
0.152999999999999997,184.841989461825278340
0.153999999999999998,184.251319557517092562
0.154999999999999999,183.526654757136498120
0.156000000000000000,182.723177090964384206
0.157000000000000001,181.898215896595957020
0.158000000000000002,181.092593655958864929
0.159000000000000002,180.327174471991895643
0.160000000000000003,179.606187260246628057
0.161000000000000004,178.922713032944045608
0.162000000000000005,178.264026769197840849
0.163000000000000006,177.615818042247383346
0.164000000000000007,176.965044108959716596
0.165000000000000008,176.301531929802621335
0.166000000000000009,175.618594176402723406
0.167000000000000010,174.912954805574230477
0.168000000000000010,174.184251157318470860
0.169000000000000011,173.434326587018915689
0.170000000000000012,172.666469852349138137
0.171000000000000013,171.884704812392868689
0.172000000000000014,171.093190722261510928
0.173000000000000015,170.295760524124801805
0.174000000000000016,169.495601328109103179
0.175000000000000017,168.695066246022463474
0.176000000000000018,167.895598157162055486
0.177000000000000018,167.097742186210325599
0.178000000000000019,166.301223209661912961
0.179000000000000020,165.505066397337543549
0.180000000000000021,164.707741725023595336
0.181000000000000022,163.907316890217032324
0.182000000000000023,163.101606656072220858
0.183000000000000024,162.288310032871208932
0.184000000000000025,161.465129700943350599
0.185000000000000026,160.629870595454747217
0.186000000000000026,159.780516588220166341
0.187000000000000027,158.915285734027150966
0.188000000000000028,158.032665644600086807
0.189000000000000029,157.131431271879534961
0.190000000000000030,156.210647788540029524
0.191000000000000031,155.269661411568961285
0.192000000000000032,154.308080983661909613
0.193000000000000033,153.325752959779094908
0.194000000000000034,152.322732187356450595
0.195000000000000034,151.299250555366427307
0.196000000000000035,150.255685249107557411
0.197000000000000036,149.192528006862460188
0.198000000000000037,148.110356447917354217
0.199000000000000038,147.009808240340959173
0.200000000000000039,145.891558608587160961
0.201000000000000040,144.756301449260973868
0.202000000000000041,143.604734129517453312
0.203000000000000042,142.437545885835191939
0.204000000000000042,141.255409619212343841
0.205000000000000043,140.058976793149156492
0.206000000000000044,138.848875079528198739
0.207000000000000045,137.625708360827331944
0.208000000000000046,136.390058681132330776
0.209000000000000047,135.142489739391749026
0.210000000000000048,133.883551532759923930
0.211000000000000049,132.613785782508159627
0.212000000000000050,131.333731806986833135
0.213000000000000050,130.043932543031644400
0.214000000000000051,128.744940456906419968
0.215000000000000052,127.437323126626367298
0.216000000000000053,126.121668317882907218
0.217000000000000054,124.798588414696354221
0.218000000000000055,123.468724102503529139
0.219000000000000056,122.132747235049649248
0.220000000000000057,120.791362846794029906
0.221000000000000058,119.445310299333485204
0.222000000000000058,118.095363573503135513
0.223000000000000059,116.742330738369588516
0.224000000000000060,115.387052644389626721
0.225000000000000061,114.030400900769521400
0.226000000000000062,112.673275206742346199
0.227000000000000063,111.316600113363591618
0.228000000000000064,109.961321296787261304
0.229000000000000065,108.608401426120238398
0.230000000000000066,107.258815709159037510
0.231000000000000066,105.913547197871665162
0.232000000000000067,104.573581932675693906
0.233000000000000068,103.239904000635121406
0.234000000000000069,101.913490577891337807
0.235000000000000070,100.595307021174846795
0.236000000000000071,99.286302067305598484
0.237000000000000072,97.987403193355163467
0.238000000000000073,96.699512183761711981
0.239000000000000073,95.423500944291532733
0.240000000000000074,94.160207596431646948
0.241000000000000075,92.910432879676264406
0.242000000000000076,91.674936883300503609
0.243000000000000077,90.454436123663583658
0.244000000000000078,89.249600977888491116
0.245000000000000079,88.061053479962396295
0.246000000000000080,86.889365480909845019
0.247000000000000081,85.735057170720665454
0.248000000000000081,84.598595956169788224
0.249000000000000082,83.480395685543797413
0.250000000000000111,82.380816208577371640
0.251000000000000112,81.300163257589815657
0.252000000000000113,80.238688633877131906
0.253000000000000114,79.196590681840490333
0.254000000000000115,78.174015032094061439
0.255000000000000115,77.171055593865560240
0.256000000000000116,76.187755776363502491
0.257000000000000117,75.224109918404536756
0.258000000000000118,74.280064905450146284
0.259000000000000119,73.355521953267654567
0.260000000000000120,72.450338537682412721
0.261000000000000121,71.564330450303955899
0.262000000000000122,70.697273960662343484
0.263000000000000123,69.848908065867505002
0.264000000000000123,69.018936809676063149
0.265000000000000124,68.207031653707218766
0.266000000000000125,67.412833884466891732
0.267000000000000126,66.635957040807937801
0.268000000000000127,65.875989347455345069
0.269000000000000128,65.132496141249774269
0.270000000000000129,64.405022277796334151
0.271000000000000130,63.693094507238996016
0.272000000000000131,62.996223808906094632
0.273000000000000131,62.313907675581162948
0.274000000000000132,61.645632339137115707
0.275000000000000133,60.990874930228983430
0.276000000000000134,60.349105565661190553
0.277000000000000135,59.719789357931389873
0.278000000000000136,59.102388342295320456
0.279000000000000137,58.496363317498790479
0.280000000000000138,57.901175597078847090
0.281000000000000139,57.316288668846290477
0.282000000000000139,56.741169760825115986
0.283000000000000140,56.175291312542199762
0.284000000000000141,55.618132351130249447
0.285000000000000142,55.069179772233020742
0.286000000000000143,54.527929526180457742
0.287000000000000144,53.993887710338562158
0.288000000000000145,53.466571568931968272
0.289000000000000146,52.945510401990460991
0.290000000000000147,52.430246385383647123
0.291000000000000147,51.920335304184995096
0.292000000000000148,51.415347201846337555
0.293000000000000149,50.914866947871551872
0.294000000000000150,50.418494726852756571
0.295000000000000151,49.925846451878300059
0.296000000000000152,49.436554105439157070
0.297000000000000153,48.950266011052661952
0.298000000000000154,48.466647038889824728
0.299000000000000155,47.985378748738582999
0.300000000000000155,47.506159473660780179
0.301000000000000156,47.028704347708000455
0.302000000000000157,46.552745281050611936
0.303000000000000158,46.078030885850523646
0.304000000000000159,45.604326356168890300
0.305000000000000160,45.131413305148655013
0.306000000000000161,44.659089562651352878
0.307000000000000162,44.187168936455108792
0.308000000000000163,43.715480940042496627
0.309000000000000163,43.243870489919686406
0.310000000000000164,42.772197575316468487
0.311000000000000165,42.300336903018710188
0.312000000000000166,41.828177519983995580
0.313000000000000167,41.355622416286045961
0.314000000000000168,40.882588110826667105
0.315000000000000169,40.409004222145412655
0.316000000000000170,39.934813026547253401
0.317000000000000171,39.459969005658635410
0.318000000000000171,38.984438385412474304
0.319000000000000172,38.508198668353252003
0.320000000000000173,38.031238161045223478
0.321000000000000174,37.553555498260422496
0.322000000000000175,37.075159165517916904
0.323000000000000176,36.596067021443488443
0.324000000000000177,36.116305821318270830
0.325000000000000178,35.635910743087592323
0.326000000000000179,35.154924917006283636
0.327000000000000179,34.673398960004824687
0.328000000000000180,34.191390515772077663
0.329000000000000181,33.708963801464989274
0.330000000000000182,33.226189161872888178
0.331000000000000183,32.743142631785914887
0.332000000000000184,32.259905507240681288
0.333000000000000185,31.776563926245170677
0.334000000000000186,31.293208459515305719
0.335000000000000187,30.809933711690661085
0.336000000000000187,30.326837933434781291
0.337000000000000188,29.844022644766987185
0.338000000000000189,29.361592269916734210
0.339000000000000190,28.879653783939623679
0.340000000000000191,28.398316371285098114
0.341000000000000192,27.917691096459655853
0.342000000000000193,27.437890586886123145
0.343000000000000194,26.959028728019468701
0.344000000000000195,26.481220370742487802
0.345000000000000195,26.004581051028964112
0.346000000000000196,25.529226721830994506
0.347000000000000197,25.055273497116168357
0.348000000000000198,24.582837407954311715
0.349000000000000199,24.112034170527188337
0.350000000000000200,23.642978965912909928
0.351000000000000201,23.175786231475200339
0.352000000000000202,22.710569463669564527
0.353000000000000203,22.247441032061356481
0.354000000000000203,21.786512004335371273
0.355000000000000204,21.327891982064116405
0.356000000000000205,20.871688946989571889
0.357000000000000206,20.418009117562924359
0.358000000000000207,19.966956815478859255
0.359000000000000208,19.518634341932916243
0.360000000000000209,19.073141863324188705
0.361000000000000210,18.630577306121715253
0.362000000000000210,18.191036260607642561
0.363000000000000211,17.754611893208867457
0.364000000000000212,17.321394867126024053
0.365000000000000213,16.891473270968315745
0.366000000000000214,16.464932555102357981
0.367000000000000215,16.041855475424039668
0.368000000000000216,15.622322044263409424
0.369000000000000217,15.206409488135250285
0.370000000000000218,14.794192212049875224
0.371000000000000218,14.385741770102418613
0.372000000000000219,13.981126842062121085
0.373000000000000220,13.580413215687253015
0.374000000000000221,13.183663774496139354
0.375000000000000222,12.790938490729145016
0.376000000000000223,12.402294423241439603
0.377000000000000224,12.017785720072561517
0.378000000000000225,11.637463625443547954
0.379000000000000226,11.261376490938944883
0.380000000000000226,10.889569790636393520
0.381000000000000227,10.522086139953302109
0.382000000000000228,10.158965317985920507
0.383000000000000229,9.800244293122785777
0.384000000000000230,9.445957251720765058
0.385000000000000231,9.096135629638634867
0.386000000000000232,8.750808146429552181
0.387000000000000233,8.410000842000190602
0.388000000000000234,8.073737115551173460
0.389000000000000234,7.742037766619626282
0.390000000000000235,7.414921038051232927
0.391000000000000236,7.092402660735862341
0.392000000000000237,6.774495899946633592
0.393000000000000238,6.461211603129167536
0.394000000000000239,6.152558248993618584
0.395000000000000240,5.848541997768206713
0.396000000000000241,5.549166742479188841
0.397000000000000242,5.254434161127780278
0.398000000000000242,4.964343769640652937
0.399000000000000243,4.678892975476236060
0.400000000000000244,4.398077131774044801
0.401000000000000245,4.121889591940705699
0.402000000000000246,3.850321764570877825
0.403000000000000247,3.583363168606196858
0.404000000000000248,3.321001488641397437
0.405000000000000249,3.063222630290582948
0.406000000000000250,2.810010775531990301
0.407000000000000250,2.561348437953929302
0.408000000000000251,2.317216517829000288
0.409000000000000252,2.077594356948353038
0.410000000000000253,1.842459793151281833
0.411000000000000254,1.611789214490257027
0.412000000000000255,1.385557612974783526
0.413000000000000256,1.163738637841446266
0.414000000000000257,0.946304648301306783
0.415000000000000258,0.733226765718888118
0.416000000000000258,0.524474925180865581
0.417000000000000259,0.320017926415267384
0.418000000000000260,0.119823484025652016
0.419000000000000261,-0.076141722993010030
0.420000000000000262,-0.267912002486208167
0.421000000000000263,-0.455522601147368367
0.422000000000000264,-0.639009657325010694
0.423000000000000265,-0.818410154652317146
0.424000000000000266,-0.993761876518431841
0.425000000000000266,-1.165103361399177695
0.426000000000000267,-1.332473859062575094
0.427000000000000268,-1.495913287662282931
0.428000000000000269,-1.655462191730341370
0.429000000000000270,-1.811161701078623398
0.430000000000000271,-1.963053490616618380
0.431000000000000272,-2.111179741091638196
0.432000000000000273,-2.255583100755656822
0.433000000000000274,-2.396306647961787828
0.434000000000000274,-2.533393854691888603
0.435000000000000275,-2.666888551015261122
0.436000000000000276,-2.796834890477454483
0.437000000000000277,-2.923277316416812877
0.438000000000000278,-3.046260529205250922
0.439000000000000279,-3.165829454408876309
0.440000000000000280,-3.282029211862943274
0.441000000000000281,-3.394905085654731813
0.442000000000000282,-3.504502495007252971
0.443000000000000282,-3.610866966055599647
0.444000000000000283,-3.714044104507352451
0.445000000000000284,-3.814079569177463380
0.446000000000000285,-3.911019046387727904
0.447000000000000286,-4.004908225220115803
0.448000000000000287,-4.095792773612778603
0.449000000000000288,-4.183718315287259237
0.450000000000000289,-4.268730407494610191
0.451000000000000290,-4.350874519568096233
0.452000000000000290,-4.430196012269719930
0.453000000000000291,-4.506740117917206412
0.454000000000000292,-4.580551921278214422
0.455000000000000293,-4.651676341218089483
0.456000000000000294,-4.720158113087085994
0.457000000000000295,-4.786041771833374980
0.458000000000000296,-4.849371635827093741
0.459000000000000297,-4.910191791381615545
0.460000000000000298,-4.968546077957184615
0.461000000000000298,-5.024478074032676211
0.462000000000000299,-5.078031083630707876
0.463000000000000300,-5.129248123481620070
0.464000000000000301,-5.178171910811699696
0.465000000000000302,-5.224844851740983565
0.466000000000000303,-5.269309030276088990
0.467000000000000304,-5.311606197883742553
0.468000000000000305,-5.351777763630119367
0.469000000000000306,-5.389864784872046677
0.470000000000000306,-5.425907958485628235
0.471000000000000307,-5.459947612617915169
0.472000000000000308,-5.492023698947850363
0.473000000000000309,-5.522175785442423823
0.474000000000000310,-5.550443049594169231
0.475000000000000311,-5.576864272126448085
0.476000000000000312,-5.601477831152982034
0.477000000000000313,-5.624321696778382673
0.478000000000000314,-5.645433426126371224
0.479000000000000314,-5.664850158782865464
0.480000000000000315,-5.682608612641074863
0.481000000000000316,-5.698745080136005114
0.482000000000000317,-5.713295424855987292
0.483000000000000318,-5.726295078519013870
0.484000000000000319,-5.737779038301961343
0.485000000000000320,-5.747781864510700167
0.486000000000000321,-5.756337678579829920
0.487000000000000322,-5.763480161390431178
0.488000000000000322,-5.769242551894655513
0.489000000000000323,-5.773657646036506108
0.490000000000000324,-5.776757795957779607
0.491000000000000325,-5.778574909478807697
0.492000000000000326,-5.779140449843718663
0.493000000000000327,-5.778485435720190466
0.494000000000000328,-5.776640441443693597
0.495000000000000329,-5.773635597496879157
0.496000000000000330,-5.769500591214324459
0.497000000000000330,-5.764264667703963951
0.498000000000000331,-5.757956630975571422
0.499000000000000332,-5.750604845268229681
0.500000000000000333,-5.742237236567787839
0.501000000000000334,-5.732881294305990139
0.502000000000000335,-5.722564073233472826
0.503000000000000336,-5.711312195458349450
0.504000000000000337,-5.699151852642935445
0.505000000000000338,-5.686108808350927468
0.506000000000000338,-5.672208400537851247
0.507000000000000339,-5.657475544177676063
0.508000000000000340,-5.641934734018463793
0.509000000000000341,-5.625610047460804175
0.510000000000000342,-5.608525147551896239
0.511000000000000343,-5.590703286089556023
0.512000000000000344,-5.572167306829454603
0.513000000000000345,-5.552939648789982030
0.514000000000000346,-5.533042349648848557
0.515000000000000346,-5.512497049225697054
0.516000000000000347,-5.491324993045370029
0.517000000000000348,-5.469547035976619398
0.518000000000000349,-5.447183645940955721
0.519000000000000350,-5.424254907686991700
0.520000000000000351,-5.400780526625039712
0.521000000000000352,-5.376779832717935470
0.522000000000000353,-5.352271784422988787
0.523000000000000353,-5.327274972681204090
0.524000000000000354,-5.301807624949381292
0.525000000000000355,-5.275887609271064704
0.526000000000000356,-5.249532438382498611
0.527000000000000357,-5.222759273849843176
0.528000000000000358,-5.195584930233943410
0.529000000000000359,-5.168025879279329438
0.530000000000000360,-5.140098254123835808
0.531000000000000361,-5.111817853525865374
0.532000000000000361,-5.083200146106034545
0.533000000000000362,-5.054260274600212988
0.534000000000000363,-5.025013060121122699
0.535000000000000364,-4.995473006425767970
0.536000000000000365,-4.965654304185897594
0.537000000000000366,-4.935570835259171396
0.538000000000000367,-4.905236176958295502
0.539000000000000368,-4.874663606316198994
0.540000000000000369,-4.843866104344530576
0.541000000000000369,-4.812856360283812585
0.542000000000000370,-4.781646775842750330
0.543000000000000371,-4.750249469425144255
0.544000000000000372,-4.718676280342225304
0.545000000000000373,-4.686938773008875181
0.546000000000000374,-4.655048241121813923
0.547000000000000375,-4.623015711818315943
0.548000000000000376,-4.590851949813819388
0.549000000000000377,-4.558567461516986441
0.550000000000000377,-4.526172499120920456
0.551000000000000378,-4.493677064668963439
0.552000000000000379,-4.461090914094255844
0.553000000000000380,-4.428423561231420891
0.554000000000000381,-4.395684281799558946
0.555000000000000382,-4.362882117355512790
0.556000000000000383,-4.330025879216135465
0.557000000000000384,-4.297124152349053539
0.558000000000000385,-4.264185299230632609
0.559000000000000385,-4.231217463670626344
0.560000000000000386,-4.198228574602707930
0.561000000000000387,-4.165226349840006392
0.562000000000000388,-4.132218299795144212
0.563000000000000389,-4.099211731164201566
0.564000000000000390,-4.066213750573879793
0.565000000000000391,-4.033231268191487473
0.566000000000000392,-4.000271001297189599
0.567000000000000393,-3.967339477818229820
0.568000000000000393,-3.934443039824485844
0.569000000000000394,-3.901587846985226093
0.570000000000000395,-3.868779879986745218
0.571000000000000396,-3.836024943910353535
0.572000000000000397,-3.803328671570851416
0.573000000000000398,-3.770696526814938832
0.574000000000000399,-3.738133807779605799
0.575000000000000400,-3.705645650110217737
0.576000000000000401,-3.673237030138224668
0.577000000000000401,-3.640912768018532031
0.578000000000000402,-3.608677530826164936
0.579000000000000403,-3.576535835612467906
0.580000000000000404,-3.544492052420802786
0.581000000000000405,-3.512550407261504581
0.582000000000000406,-3.480714985046516663
0.583000000000000407,-3.448989732483349169
0.584000000000000408,-3.417378460928812700
0.585000000000000409,-3.385884849202393188
0.586000000000000409,-3.354512446359358968
0.587000000000000410,-3.323264674424014409
0.588000000000000411,-3.292144831082817635
0.589000000000000412,-3.261156092338004520
0.590000000000000413,-3.230301515121477784
0.591000000000000414,-3.199584039869434182
0.592000000000000415,-3.169006493057899387
0.593000000000000416,-3.138571589699224340
0.594000000000000417,-3.108281935799966700
0.595000000000000417,-3.078140030780488701
0.596000000000000418,-3.048148269856061798
0.597000000000000419,-3.018308946380471092
0.598000000000000420,-2.988624254151662107
0.599000000000000421,-2.959096289680320346
0.600000000000000422,-2.929727054421287669
0.601000000000000423,-2.900518456968283587
0.602000000000000424,-2.871472315212302284
0.603000000000000425,-2.842590358463862543
0.604000000000000425,-2.813874229539505389
0.605000000000000426,-2.785325486812921358
0.606000000000000427,-2.756945606231067991
0.607000000000000428,-2.728735983295324630
0.608000000000000429,-2.700697935008627759
0.609000000000000430,-2.672832701788257825
0.610000000000000431,-2.645141449345199902
0.611000000000000432,-2.617625270530095527
