# Rutile-100-old_FLUORANE-AC
# h[nm],U(h)[kJ/mol]
0.149999999999999994,100.503601873012954115
0.150999999999999995,99.053568403748855076
0.151999999999999996,98.148407153451813656
0.152999999999999997,97.318461254368870073
0.153999999999999998,96.408941115341505679
0.154999999999999999,95.407483685269554030
0.156000000000000000,94.352648517046048937
0.157000000000000001,93.289628846051797950
0.158000000000000002,92.252260975289658518
0.159000000000000002,91.258698238316952711
0.160000000000000003,90.313385423023831322
0.161000000000000004,89.411253048188612524
0.162000000000000005,88.542042498489223590
0.163000000000000006,87.693837767906657632
0.164000000000000007,86.855525710911919646
0.165000000000000008,86.018236070832656992
0.166000000000000009,85.175955250614350689
0.167000000000000010,84.325546083692557886
0.168000000000000010,83.466390486420635852
0.169000000000000011,82.599833067667077557
0.170000000000000012,81.728558692270581787
0.171000000000000013,80.855994639872292851
0.172000000000000014,79.985792433548951408
0.173000000000000015,79.121416846362393471
0.174000000000000016,78.265849703556114036
0.175000000000000017,77.421402828124129769
0.176000000000000018,76.589626518105973219
0.177000000000000018,75.771295996412860063
0.178000000000000019,74.966457183655023755
0.179000000000000020,74.174513954557468765
0.180000000000000021,73.394340998157787226
0.181000000000000022,72.624408949579333239
0.182000000000000023,71.862911197419393261
0.183000000000000024,71.107884427972209096
0.184000000000000025,70.357317380224159820
0.185000000000000026,69.609244364757387302
0.186000000000000026,68.861821810908622865
0.187000000000000027,68.113387452374979603
0.188000000000000028,67.362502768111852447
0.189000000000000029,66.607980002415700937
0.190000000000000030,65.848895541224663930
0.191000000000000031,65.084591667648950875
0.192000000000000032,64.314668803079968029
0.193000000000000033,63.538970301204038549
0.194000000000000034,62.757561735924220159
0.195000000000000034,61.970706440024272865
0.196000000000000035,61.178838833378179629
0.197000000000000036,60.382536846500102001
0.198000000000000037,59.582494511588983244
0.199000000000000038,58.779495569375384889
0.200000000000000039,57.974388733169817556
0.201000000000000040,57.168065066008068698
0.202000000000000041,56.361437765040683701
0.203000000000000042,55.555424510040687380
0.204000000000000042,54.750932419620561120
0.205000000000000043,53.948845568121384986
0.206000000000000044,53.150014946261421755
0.207000000000000045,52.355250697280283134
0.208000000000000046,51.565316425098878028
0.209000000000000047,50.780925349537561431
0.210000000000000048,50.002738073566355581
0.211000000000000049,49.231361726735393347
0.212000000000000050,48.467350255360663880
0.213000000000000050,47.711205641959274715
0.214000000000000051,46.963379852291595284
0.215000000000000052,46.224277326862107884
0.216000000000000053,45.494257853746269404
0.217000000000000054,44.773639680247420358
0.218000000000000055,44.062702741418988239
0.219000000000000056,43.361691903353829503
0.220000000000000057,42.670820137923385573
0.221000000000000058,41.990271563050825421
0.222000000000000058,41.320204298423476530
0.223000000000000059,40.660753100690399719
0.224000000000000060,40.012031754603313516
0.225000000000000061,39.374135207263961433
0.226000000000000062,38.747141441693585762
0.227000000000000063,38.131113093430684557
0.228000000000000064,37.526098819903474180
0.229000000000000065,36.932134437037213104
0.230000000000000066,36.349243841081616324
0.231000000000000066,35.777439736111958268
0.232000000000000067,35.216724189208896689
0.233000000000000068,34.667089036084931308
0.234000000000000069,34.128516160025029080
0.235000000000000070,33.600977666561668400
0.236000000000000071,33.084435975416496944
0.237000000000000072,32.578843850008055938
0.238000000000000073,32.084144383335051032
0.239000000000000073,31.600270957372504910
0.240000000000000074,31.127147191328912612
0.241000000000000075,30.664686892266111329
0.242000000000000076,30.212794019723350658
0.243000000000000077,29.771362674155984251
0.244000000000000078,29.340277117227611114
0.245000000000000079,28.919411830307790723
0.246000000000000080,28.508631615946018911
0.247000000000000081,28.107791745628230018
0.248000000000000081,27.716738155786934783
0.249000000000000082,27.335307692832799376
0.250000000000000111,26.963328406908381396
0.251000000000000112,26.600619893131590032
0.252000000000000113,26.246993678294643360
0.253000000000000114,25.902253650310051114
0.254000000000000115,25.566196527140210293
0.255000000000000115,25.238612361505879278
0.256000000000000116,24.919285077332652634
0.257000000000000117,24.607993033653848158
0.258000000000000118,24.304509611536392555
0.259000000000000119,24.008603819521809442
0.260000000000000120,23.720040913070331356
0.261000000000000121,23.438583023553309914
0.262000000000000122,23.163989792448454352
0.263000000000000123,22.896019006547884800
0.264000000000000123,22.634427230180499180
0.265000000000000124,22.378970430673582825
0.266000000000000125,22.129404593525467959
0.267000000000000126,21.885486324026263816
0.268000000000000127,21.646973432342228705
0.269000000000000128,21.413625499365650739
0.270000000000000129,21.185204420922836732
0.271000000000000130,20.961474928222990854
0.272000000000000131,20.742205082718701448
0.273000000000000131,20.527166743829965867
0.274000000000000132,20.316136008257068113
0.275000000000000133,20.108893619870585212
0.276000000000000134,19.905225349417545289
0.277000000000000135,19.704922343520685502
0.278000000000000136,19.507781442671181082
0.279000000000000137,19.313605468123476783
0.280000000000000138,19.122203477794549542
0.281000000000000139,18.933390991446657381
0.282000000000000139,18.746990185594810896
0.283000000000000140,18.562830058726206062
0.284000000000000141,18.380746567549330450
0.285000000000000142,18.200582735106408450
0.286000000000000143,18.022188731683890239
0.287000000000000144,17.845421929542844452
0.288000000000000145,17.670146932564886555
0.289000000000000146,17.496235581970726258
0.290000000000000147,17.323566939316997093
0.291000000000000147,17.152027248015723870
0.292000000000000148,16.981509874647425562
0.293000000000000149,16.811915231357321687
0.294000000000000150,16.643150680632590621
0.295000000000000151,16.475130423759061671
0.296000000000000152,16.307775374249370515
0.297000000000000153,16.141013017520585038
0.298000000000000154,15.974777258079845055
0.299000000000000155,15.809008255451763247
0.300000000000000155,15.643652250051237829
0.301000000000000156,15.478661380171848450
0.302000000000000157,15.313993491222552379
0.303000000000000158,15.149611938304815340
0.304000000000000159,14.985485383179900865
0.305000000000000160,14.821587586630712963
0.306000000000000161,14.657897197176556148
0.307000000000000162,14.494397537051217029
0.308000000000000163,14.331076386306838444
0.309000000000000163,14.167925765856741904
0.310000000000000164,14.004941720221804502
0.311000000000000165,13.842124100695922806
0.312000000000000166,13.679476349597759821
0.313000000000000167,13.517005286228245708
0.314000000000000168,13.354720895106179768
0.315000000000000169,13.192636117008467167
0.316000000000000170,13.030766643296521679
0.317000000000000171,12.869130713966947965
0.318000000000000171,12.707748919822481781
0.319000000000000172,12.546644009118240959
0.320000000000000173,12.385840698999547982
0.321000000000000174,12.225365492009819590
0.322000000000000175,12.065246497911271462
0.323000000000000176,11.905513261026991145
0.324000000000000177,11.746196593280439302
0.325000000000000178,11.587328413077788269
0.326000000000000179,11.428941590149305441
0.327000000000000179,11.271069796438812460
0.328000000000000180,11.113747363104467425
0.329000000000000181,10.957009143670239482
0.330000000000000182,10.800890383344910362
0.331000000000000183,10.645426594504789009
0.332000000000000184,10.490653438317011137
0.333000000000000185,10.336606612462535537
0.334000000000000186,10.183321744901730810
0.335000000000000187,10.030834293610400465
0.336000000000000187,9.879179452200752110
0.337000000000000188,9.728392061329374840
0.338000000000000189,9.578506525783387460
0.339000000000000190,9.429556737125993848
0.340000000000000191,9.281576001774071827
0.341000000000000192,9.134596974372717781
0.342000000000000193,8.988651596324967130
0.343000000000000194,8.843771039329336503
0.344000000000000195,8.699985653773069316
0.345000000000000195,8.557324921824866593
0.346000000000000196,8.415817415067916585
0.347000000000000197,8.275490756511544532
0.348000000000000198,8.136371586818116342
0.349000000000000199,7.998485534580760614
0.350000000000000200,7.861857190486984059
0.351000000000000201,7.726510085203338818
0.352000000000000202,7.592466670816887309
0.353000000000000203,7.459748305670285795
0.354000000000000203,7.328375242428625924
0.355000000000000204,7.198366619218274920
0.356000000000000205,7.069740453679965064
0.357000000000000206,6.942513639780854007
0.358000000000000207,6.816701947233343439
0.359000000000000208,6.692320023371219229
0.360000000000000209,6.569381397336958806
0.361000000000000210,6.447898486437795285
0.362000000000000210,6.327882604531296806
0.363000000000000211,6.209343972305430448
0.364000000000000212,6.092291729321605231
0.365000000000000213,5.976733947693409377
0.366000000000000214,5.862677647277692472
0.367000000000000215,5.750128812258805233
0.368000000000000216,5.639092409010849849
0.369000000000000217,5.529572405127228585
0.370000000000000218,5.421571789510638339
0.371000000000000218,5.315092593421129052
0.372000000000000219,5.210135912383821122
0.373000000000000220,5.106701928862085182
0.374000000000000221,5.004789935606129170
0.375000000000000222,4.904398359591013445
0.376000000000000223,4.805524786461868203
0.377000000000000224,4.708165985408441223
0.378000000000000225,4.612317934394604357
0.379000000000000226,4.517975845672486557
0.380000000000000226,4.425134191514375814
0.381000000000000227,4.333786730099482121
0.382000000000000228,4.243926531495828769
0.383000000000000229,4.155546003681296341
0.384000000000000230,4.068636918550983417
0.385000000000000231,3.983190437861400479
0.386000000000000232,3.899197139065185613
0.387000000000000233,3.816647040992948714
0.388000000000000234,3.735529629342025260
0.389000000000000234,3.655833881934547058
0.390000000000000235,3.577548293710119509
0.391000000000000236,3.500660901421036808
0.392000000000000237,3.425159308000432556
0.393000000000000238,3.351030706576286100
0.394000000000000239,3.278261904106539504
0.395000000000000240,3.206839344612781417
0.396000000000000241,3.136749131992142559
0.397000000000000242,3.067977052389113446
0.398000000000000242,3.000508596110901927
0.399000000000000243,2.934328979071910037
0.400000000000000244,2.869423163754534212
0.401000000000000245,2.805775879675344253
0.402000000000000246,2.743371643347283673
0.403000000000000247,2.682194777729839608
0.404000000000000248,2.622229431160906454
0.405000000000000249,2.563459595765152699
0.406000000000000250,2.505869125335126846
0.407000000000000250,2.449441752682487206
0.408000000000000251,2.394161106457880273
0.409000000000000252,2.340010727439120863
0.410000000000000253,2.286974084288209141
0.411000000000000254,2.235034588778756603
0.412000000000000255,2.184175610496266184
0.413000000000000256,2.134380491014369774
0.414000000000000257,2.085632557551151844
0.415000000000000258,2.037915136110052927
0.416000000000000258,1.991211564110834997
0.417000000000000259,1.945505202516365939
0.418000000000000260,1.900779447461798055
0.419000000000000261,1.857017741392958055
0.420000000000000262,1.814203583721488489
0.421000000000000263,1.772320541004405836
0.422000000000000264,1.731352256656388366
0.423000000000000265,1.691282460203192173
0.424000000000000266,1.652094976085046296
0.425000000000000266,1.613773732019127660
0.426000000000000267,1.576302766930308019
0.427000000000000268,1.539666238459745262
0.428000000000000269,1.503848430060940045
0.429000000000000270,1.468833757693008391
0.430000000000000271,1.434606776121141181
0.431000000000000272,1.401152184834148828
0.432000000000000273,1.368454833589223485
0.433000000000000274,1.336499727593948528
0.434000000000000274,1.305272032335668353
0.435000000000000275,1.274757078068384342
0.436000000000000276,1.244940363967188990
0.437000000000000277,1.215807561960373206
0.438000000000000278,1.187344520249168367
0.439000000000000279,1.159537266525102917
0.440000000000000280,1.132372010894823200
0.441000000000000281,1.105835148522192890
0.442000000000000282,1.079913261997303531
0.443000000000000282,1.054593123442037594
0.444000000000000283,1.029861696361557888
0.445000000000000284,1.005706137251117349
0.446000000000000285,0.982113796967341246
0.447000000000000286,0.959072221872997455
0.448000000000000287,0.936569154764217315
0.449000000000000288,0.914592535588824362
0.450000000000000289,0.893130501964402357
0.451000000000000290,0.872171389504496575
0.452000000000000290,0.851703731961141353
0.453000000000000291,0.831716261191864703
0.454000000000000292,0.812197906958990634
0.455000000000000293,0.793137796568965880
0.456000000000000294,0.774525254359288096
0.457000000000000295,0.756349801040295366
0.458000000000000296,0.738601152899104219
0.459000000000000297,0.721269220872567063
0.460000000000000298,0.704344109496140236
0.461000000000000298,0.687816115735227163
0.462000000000000299,0.671675727705459358
0.463000000000000300,0.655913623288180259
0.464000000000000301,0.640520668647165392
0.465000000000000302,0.625487916652524012
0.466000000000000303,0.610806605217473209
0.467000000000000304,0.596468155553497525
0.468000000000000305,0.582464170349331622
0.469000000000000306,0.568786431878891219
0.470000000000000306,0.555426900043170524
0.471000000000000307,0.542377710351034770
0.472000000000000308,0.529631171843511384
0.473000000000000309,0.517179764966127276
0.474000000000000310,0.505016139393684838
0.475000000000000311,0.493133111811641656
0.476000000000000312,0.481523663658166623
0.477000000000000313,0.470180938830738193
0.478000000000000314,0.459098241361094228
0.479000000000000314,0.448269033062046796
0.480000000000000315,0.437686931149706193
0.481000000000000316,0.427345705844361823
0.482000000000000317,0.417239277953249388
0.483000000000000318,0.407361716438223276
0.484000000000000319,0.397707235971250461
0.485000000000000320,0.388270194480552333
0.486000000000000321,0.379045090689986708
0.487000000000000322,0.370026561654277331
0.488000000000000322,0.361209380292520921
0.489000000000000323,0.352588452922195927
0.490000000000000324,0.344158816795983480
0.491000000000000325,0.335915637643416365
0.492000000000000326,0.327854207219381633
0.493000000000000327,0.319969940861316748
0.494000000000000328,0.312258375056948645
0.495000000000000329,0.304715165024181389
0.496000000000000330,0.297336082304828164
0.497000000000000330,0.290117012373559413
0.498000000000000331,0.283053952263650765
0.499000000000000332,0.276143008210698704
0.500000000000000333,0.269380393315652555
0.501000000000000334,0.262762425228342422
0.502000000000000335,0.256285523852521069
0.503000000000000336,0.249946209073523523
0.504000000000000337,0.243741098509440535
0.505000000000000338,0.237666905286723906
0.506000000000000338,0.231720435841016703
0.507000000000000339,0.225898587743969648
0.508000000000000340,0.220198347556762819
0.509000000000000341,0.214616788710886436
0.510000000000000342,0.209151069416881524
0.511000000000000343,0.203798430601426050
0.512000000000000344,0.198556193873359155
0.513000000000000345,0.193421759518990932
0.514000000000000346,0.188392604527067242
0.515000000000000346,0.183466280643776652
0.516000000000000347,0.178640412458033693
0.517000000000000348,0.173912695517273758
0.518000000000000349,0.169280894474011678
0.519000000000000350,0.164742841263252338
0.520000000000000351,0.160296433310982200
0.521000000000000352,0.155939631773695492
0.522000000000000353,0.151670459809169239
0.523000000000000353,0.147487000878376878
0.524000000000000354,0.143387397078622886
0.525000000000000355,0.139369847507835792
0.526000000000000356,0.135432606659969090
0.527000000000000357,0.131573982851407700
0.528000000000000358,0.127792336678301199
0.529000000000000359,0.124086079504652294
0.530000000000000360,0.120453671981069085
0.531000000000000361,0.116893622593927549
0.532000000000000361,0.113404486244817623
0.533000000000000362,0.109984862860024249
0.534000000000000363,0.106633396029844854
0.535000000000000364,0.103348771677450962
0.536000000000000365,0.100129716757100695
0.537000000000000366,0.096974997981364580
0.538000000000000367,0.093883420577140206
0.539000000000000368,0.090853827070088669
0.540000000000000369,0.087885096097256393
0.541000000000000369,0.084976141247493267
0.542000000000000370,0.082125909929418470
0.543000000000000371,0.079333382266503688
0.544000000000000372,0.076597570019012601
0.545000000000000373,0.073917515532384417
0.546000000000000374,0.071292290711733541
0.547000000000000375,0.068720996022102909
0.548000000000000376,0.066202759514067830
0.549000000000000377,0.063736735874368636
0.550000000000000377,0.061322105501119009
0.551000000000000378,0.058958073603310068
0.552000000000000379,0.056643869324108212
0.553000000000000380,0.054378744887655948
0.554000000000000381,0.052161974768946573
0.555000000000000382,0.049992854886349747
0.556000000000000383,0.047870701816477478
0.557000000000000384,0.045794852030899960
0.558000000000000385,0.043764661154410141
0.559000000000000385,0.041779503244382489
0.560000000000000386,0.039838770090838159
0.561000000000000387,0.037941870536865693
0.562000000000000388,0.036088229818978669
0.563000000000000389,0.034277288926994318
0.564000000000000390,0.032508503983109630
0.565000000000000391,0.030781345639730291
0.566000000000000392,0.029095298495719495
0.567000000000000393,0.027449860530612276
0.568000000000000393,0.025844542556530736
0.569000000000000394,0.024278867687308053
0.570000000000000395,0.022752370824510898
0.571000000000000396,0.021264598160013998
0.572000000000000397,0.019815106694676825
0.573000000000000398,0.018403463772863421
0.574000000000000399,0.017029246632354132
0.575000000000000400,0.015692041969373433
0.576000000000000401,0.014391445518338869
0.577000000000000401,0.013127061645969629
0.578000000000000402,0.011898502959472446
0.579000000000000403,0.010705389928437170
0.580000000000000404,0.009547350520054270
0.581000000000000405,0.008424019847449078
0.582000000000000406,0.007335039830671658
0.583000000000000407,0.006280058870142319
0.584000000000000408,0.005258731532146038
0.585000000000000409,0.004270718246117933
0.586000000000000409,0.003315685013421815
0.587000000000000410,0.002393303127249371
0.588000000000000411,0.001503248903466336
0.589000000000000412,0.000645203421972187
0.590000000000000413,-0.000181147721581698
0.591000000000000414,-0.000976114654082535
0.592000000000000415,-0.001740003453504543
0.593000000000000416,-0.002473116367973549
0.594000000000000417,-0.003175752025611112
0.595000000000000417,-0.003848205635493340
0.596000000000000418,-0.004490769179830933
0.597000000000000419,-0.005103731597802879
0.598000000000000420,-0.005687378961125716
0.599000000000000421,-0.006241994641727838
0.600000000000000422,-0.006767859471689408
0.601000000000000423,-0.007265251895689645
0.602000000000000424,-0.007734448116240120
0.603000000000000425,-0.008175722231869889
0.604000000000000425,-0.008589346368487275
0.605000000000000426,-0.008975590804171107
0.606000000000000427,-0.009334724087583981
0.607000000000000428,-0.009667013150142040
0.608000000000000429,-0.009972723412305456
0.609000000000000430,-0.010252118883978825
0.610000000000000431,-0.010505462259396451
0.611000000000000432,-0.010733015006559318
0.612000000000000433,-0.010935037451457500
0.613000000000000433,-0.011111788857258373
0.614000000000000434,-0.011263527498612985
0.615000000000000435,-0.011390510731266091
0.616000000000000436,-0.011492995057111852
0.617000000000000437,-0.011571236184929251
0.618000000000000438,-0.011625489086854887
