# Rutile-100-old_DIHYDROXYPHOSPHANIUM-AC
# h[nm],U(h)[kJ/mol]
0.149999999999999994,194.134562775315657746
0.150999999999999995,191.273262126664690186
0.151999999999999996,189.602873302368550412
0.152999999999999997,188.207827765933245701
0.153999999999999998,186.743450161398328646
0.154999999999999999,185.137989878017009460
0.156000000000000000,183.429471895428889638
0.157000000000000001,181.682897604784386658
0.158000000000000002,179.953450828079468238
0.159000000000000002,178.274558625313545690
0.160000000000000003,176.658179043189278445
0.161000000000000004,175.100092178539227916
0.162000000000000005,173.586318152339487142
0.163000000000000006,172.098795233090356760
0.164000000000000007,170.619606537512993327
0.165000000000000008,169.133665333744090731
0.166000000000000009,167.630067224015164129
0.167000000000000010,166.102427877366324083
0.168000000000000010,164.548532995229550124
0.169000000000000011,162.969585258796030303
0.170000000000000012,161.369272062835477755
0.171000000000000013,159.752815101445548862
0.172000000000000014,158.126107015549138168
0.173000000000000015,156.494994888240000819
0.174000000000000016,154.864736001337860216
0.175000000000000017,153.239627024489465157
0.176000000000000018,151.622792089156149586
0.177000000000000018,150.016106208789267384
0.178000000000000019,148.420226535354174757
0.179000000000000020,146.834703503432848493
0.180000000000000021,145.258145787507771729
0.181000000000000022,143.688416235280726596
0.182000000000000023,142.122839832467008137
0.183000000000000024,140.558408800980316755
0.184000000000000025,138.991973798150354469
0.185000000000000026,137.420413664527927722
0.186000000000000026,135.840779153758006714
0.187000000000000027,134.250408531201543383
0.188000000000000028,132.647014857122201192
0.189000000000000029,131.028746214219665944
0.190000000000000030,129.394221154274646324
0.191000000000000031,127.742542288788243354
0.192000000000000032,126.073291299228458229
0.193000000000000033,124.386508756342863080
0.194000000000000034,122.682662071858970876
0.195000000000000034,120.962604709620080712
0.196000000000000035,119.227529499098181986
0.197000000000000036,117.478918557096818631
0.198000000000000037,115.718491961088574271
0.199000000000000038,113.948156951475567666
0.200000000000000039,112.169959086043874663
0.201000000000000040,110.386036439224085370
0.202000000000000041,108.598577638816706781
0.203000000000000042,106.809784267808112190
0.204000000000000042,105.021837930543597395
0.205000000000000043,103.236872090744753905
0.206000000000000044,101.456948632183056702
0.207000000000000045,99.684038968851524487
0.208000000000000046,97.920009437194494240
0.209000000000000047,96.166610635018770381
0.210000000000000048,94.425470326649445951
0.211000000000000049,92.698089508275756998
0.212000000000000050,90.985841217966594741
0.213000000000000050,89.289971678463771809
0.214000000000000051,87.611603374792622390
0.215000000000000052,85.951739690476031797
0.216000000000000053,84.311270753530664024
0.217000000000000054,82.690980174583103235
0.218000000000000055,81.091552392801816040
0.219000000000000056,79.513580379590365510
0.220000000000000057,77.957573484073449777
0.221000000000000058,76.423965237513769466
0.222000000000000058,74.913120965273733987
0.223000000000000059,73.425345084346176350
0.224000000000000060,71.960887991490764648
0.225000000000000061,70.519952471450793041
0.226000000000000062,69.102699576495240308
0.227000000000000063,67.709253947629832737
0.228000000000000064,66.339708564307770189
0.229000000000000065,64.994128923452279878
0.230000000000000066,63.672556660229005843
0.231000000000000066,62.375012632443031180
0.232000000000000067,61.101499497873739131
0.233000000000000068,59.852003819493688752
0.234000000000000069,58.626497737545989253
0.235000000000000070,57.424940250070982017
0.236000000000000071,56.247278144868843697
0.237000000000000072,55.093446626236399766
0.238000000000000073,53.963369679295205117
0.239000000000000073,52.856960213488250133
0.240000000000000074,51.774120025002901002
0.241000000000000075,50.714739615611833301
0.242000000000000076,49.678697902821156163
0.243000000000000077,48.665861853376604529
0.244000000000000078,47.676086069194603567
0.245000000000000079,46.709212351727416035
0.246000000000000080,45.765069267707339407
0.247000000000000081,44.843471736192896060
0.248000000000000081,43.944220653909056296
0.249000000000000082,43.067102573063912985
0.250000000000000111,42.211889443166164426
0.251000000000000112,41.378338425879157114
0.252000000000000113,40.566191789643212928
0.253000000000000114,39.775176888689102839
0.254000000000000115,39.005006229151447883
0.255000000000000115,38.255377623278725707
0.256000000000000116,37.525974431217008487
0.257000000000000117,36.816465888518322913
0.258000000000000118,36.126507516380819141
0.259000000000000119,35.455741610659188723
0.260000000000000120,34.803797804879096134
0.261000000000000121,34.170293701840066092
0.262000000000000122,33.554835567882705050
0.263000000000000123,32.957019083519348612
0.264000000000000123,32.376430143868148548
0.265000000000000124,31.812645702180049057
0.266000000000000125,31.265234649691045377
0.267000000000000126,30.733758725061818495
0.268000000000000127,30.217773446767772327
0.269000000000000128,29.716829061969384895
0.270000000000000129,29.230471505612428018
0.271000000000000130,28.758243363772585610
0.272000000000000131,28.299684835561571106
0.273000000000000131,27.854334688243351792
0.274000000000000132,27.421731200563282727
0.275000000000000133,27.001413089663241607
0.276000000000000134,26.592920417336706862
0.277000000000000135,26.195795471764700579
0.278000000000000136,25.809583621260468789
0.279000000000000137,25.433834136935853820
0.280000000000000138,25.068100981581089570
0.281000000000000139,24.711943562418746012
0.282000000000000139,24.364927445751007440
0.283000000000000140,24.026625031863268589
0.284000000000000141,23.696616188876667763
0.285000000000000142,23.374488844554331735
0.286000000000000143,23.059839535361209784
0.287000000000000144,22.752273912354294083
0.288000000000000145,22.451407203737637985
0.289000000000000146,22.156864634156317351
0.290000000000000147,21.868281801022710908
0.291000000000000147,21.585305008370632152
0.292000000000000148,21.307591558914474206
0.293000000000000149,21.034810005156050039
0.294000000000000150,20.766640360527826914
0.295000000000000151,20.502774271691354357
0.296000000000000152,20.242915153223162150
0.297000000000000153,19.986778286017997885
0.298000000000000154,19.734090880822208192
0.299000000000000155,19.484592108379050757
0.300000000000000155,19.238033097723025833
0.301000000000000156,18.994176904204060463
0.302000000000000157,18.752798448853376101
0.303000000000000158,18.513684430724609342
0.304000000000000159,18.276633213854172055
0.305000000000000160,18.041454690487309875
0.306000000000000161,17.807970122210033281
0.307000000000000162,17.576011960612955676
0.308000000000000163,17.345423649093071106
0.309000000000000163,17.116059407372631540
0.310000000000000164,16.887784000282159980
0.311000000000000165,16.660472492318227467
0.312000000000000166,16.434009989445499400
0.313000000000000167,16.208291369568183171
0.314000000000000168,15.983221003048711850
0.315000000000000169,15.758712464601208225
0.316000000000000170,15.534688237835547753
0.317000000000000171,15.311079413674018923
0.318000000000000171,15.087825383807961899
0.319000000000000172,14.864873530305732885
0.320000000000000173,14.642178912427539217
0.321000000000000174,14.419703951646202000
0.322000000000000175,14.197418115816564210
0.323000000000000176,13.975297603380582245
0.324000000000000177,13.753325028439551403
0.325000000000000178,13.531489107470719091
0.326000000000000179,13.309784348411728416
0.327000000000000179,13.088210742783953577
0.328000000000000180,12.866773461474835472
0.329000000000000181,12.645482554749266413
0.330000000000000182,12.424352657011976220
0.331000000000000183,12.203402696796073812
0.332000000000000184,11.982655612407777213
0.333000000000000185,11.762138073614265110
0.334000000000000186,11.541880209719399986
0.335000000000000187,11.321915344332776243
0.336000000000000187,11.102279737098928791
0.337000000000000188,10.883012332617710172
0.338000000000000189,10.664154516751901625
0.339000000000000190,10.445749880485552197
0.340000000000000191,10.227843991465769946
0.341000000000000192,10.010484173331130719
0.342000000000000193,9.793719292902556717
0.343000000000000194,9.577599555286553823
0.344000000000000195,9.362176306916936142
0.345000000000000195,9.147501846537851478
0.346000000000000196,8.933629244110722567
0.347000000000000197,8.720612167607587395
0.348000000000000198,8.508504717635771541
0.349000000000000199,8.297361269821887930
0.350000000000000200,8.087236324868069204
0.351000000000000201,7.878184366179320719
0.352000000000000202,7.670259724948428115
0.353000000000000203,7.463516452573036197
0.354000000000000203,7.258008200269346233
0.355000000000000204,7.053788105737893943
0.356000000000000205,6.850908686728276464
0.357000000000000206,6.649421741342600001
0.358000000000000207,6.449378254911501074
0.359000000000000208,6.250828313270815784
0.360000000000000209,6.053821022262413365
0.361000000000000210,5.858404433279512880
0.362000000000000210,5.664625474672972061
0.363000000000000211,5.472529888833420841
0.364000000000000212,5.282162174762040863
0.365000000000000213,5.093565535941833033
0.366000000000000214,4.906781833320768449
0.367000000000000215,4.721851543218161140
0.368000000000000216,4.538813719966007909
0.369000000000000217,4.357705963098281288
0.370000000000000218,4.178564388902128890
0.371000000000000218,4.001423606147032075
0.372000000000000219,3.826316695809728774
0.373000000000000220,3.653275194615225985
0.374000000000000221,3.482329082217010985
0.375000000000000222,3.313506771842365417
0.376000000000000223,3.146835104231591185
0.377000000000000224,2.982339344703875739
0.378000000000000225,2.820043183185489521
0.379000000000000226,2.659968737040095732
0.380000000000000226,2.502136556544336532
0.381000000000000227,2.346565632856344674
0.382000000000000228,2.193273408328296536
0.383000000000000229,2.042275789018608734
0.384000000000000230,1.893587159263406150
0.385000000000000231,1.747220398170969302
0.386000000000000232,1.603186897907467046
0.387000000000000233,1.461496583646055836
0.388000000000000234,1.322157935056204492
0.389000000000000234,1.185178009213904149
0.390000000000000235,1.050562464818008968
0.391000000000000236,0.918315587602036687
0.392000000000000237,0.788440316834897126
0.393000000000000238,0.660938272808270666
0.394000000000000239,0.535809785212473799
0.395000000000000240,0.413053922306526489
0.396000000000000241,0.292668520792336184
0.397000000000000242,0.174650216306683981
0.398000000000000242,0.058994474448597581
0.399000000000000243,-0.054304377736433242
0.400000000000000244,-0.165253119890533234
0.401000000000000245,-0.273859606166990566
0.402000000000000246,-0.380132732811000074
0.403000000000000247,-0.484082405562235807
0.404000000000000248,-0.585719506939928580
0.405000000000000249,-0.685055863468419401
0.406000000000000250,-0.782104212897558271
0.407000000000000250,-0.876878171469547496
0.408000000000000251,-0.969392201280665944
0.409000000000000252,-1.059661577783395758
0.410000000000000253,-1.147702357471833690
0.411000000000000254,-1.233531345790342293
0.412000000000000255,-1.317166065302892708
0.413000000000000256,-1.398624724158108013
0.414000000000000257,-1.477926184882261795
0.415000000000000258,-1.555089933530625856
0.416000000000000258,-1.630136049224715666
0.417000000000000259,-1.703085174101379717
0.418000000000000260,-1.773958483697101185
0.419000000000000261,-1.842777657789308465
0.420000000000000262,-1.909564851714117051
0.421000000000000263,-1.974342668178621807
0.422000000000000264,-2.037134129583460407
0.423000000000000265,-2.097962650870341506
0.424000000000000266,-2.156852012907166216
0.425000000000000266,-2.213826336421939711
0.426000000000000267,-2.268910056495419436
0.427000000000000268,-2.322127897620757331
0.428000000000000269,-2.373504849337265021
0.429000000000000270,-2.423066142444184834
0.430000000000000271,-2.470837225798972803
0.431000000000000272,-2.516843743703782721
0.432000000000000273,-2.561111513882421420
0.433000000000000274,-2.603666506049366003
0.434000000000000274,-2.644534821071270692
0.435000000000000275,-2.683742670720538293
0.436000000000000276,-2.721316358019817194
0.437000000000000277,-2.757282258175291823
0.438000000000000278,-2.791666800096065160
0.439000000000000279,-2.824496448496186307
0.440000000000000280,-2.855797686575164640
0.441000000000000281,-2.885596999272295626
0.442000000000000282,-2.913920857089625116
0.443000000000000282,-2.940795700477563557
0.444000000000000283,-2.966247924777146050
0.445000000000000284,-2.990303865712022890
0.446000000000000285,-3.012989785423179523
0.447000000000000286,-3.034331859038957191
0.448000000000000287,-3.054356161772374900
0.449000000000000288,-3.073088656537868335
0.450000000000000289,-3.090555182078818408
0.451000000000000290,-3.106781441597358473
0.452000000000000290,-3.121792991877574863
0.453000000000000291,-3.135615232892946302
0.454000000000000292,-3.148273397888873060
0.455000000000000293,-3.159792543930863395
0.456000000000000294,-3.170197542908824495
0.457000000000000295,-3.179513072987970368
0.458000000000000296,-3.187763610496412436
0.459000000000000297,-3.194973422239922645
0.460000000000000298,-3.201166558233789594
0.461000000000000298,-3.206366844842139407
0.462000000000000299,-3.210597878314680464
0.463000000000000300,-3.213883018711052753
0.464000000000000301,-3.216245384202969237
0.465000000000000302,-3.217707845744237183
0.466000000000000303,-3.218293022098867251
0.467000000000000304,-3.218023275217620771
0.468000000000000305,-3.216920705953111970
0.469000000000000306,-3.215007150104010947
0.470000000000000306,-3.212304174778801702
0.471000000000000307,-3.208833075069434049
0.472000000000000308,-3.204614871025786904
0.473000000000000309,-3.199670304921495845
0.474000000000000310,-3.194019838802044209
0.475000000000000311,-3.187683652306082749
0.476000000000000312,-3.180681640751092054
0.477000000000000313,-3.173033413474565911
0.478000000000000314,-3.164758292422023889
0.479000000000000314,-3.155875310973436321
0.480000000000000315,-3.146403212999548504
0.481000000000000316,-3.136360452139975941
0.482000000000000317,-3.125765191294867407
0.483000000000000318,-3.114635302322279031
0.484000000000000319,-3.102988365933387449
0.485000000000000320,-3.090841671777911248
0.486000000000000321,-3.078212218712283565
0.487000000000000322,-3.065116715243184853
0.488000000000000322,-3.051571580139173179
0.489000000000000323,-3.037592943203615725
0.490000000000000324,-3.023196646201767201
0.491000000000000325,-3.008398243935441307
0.492000000000000326,-2.993213005458634335
0.493000000000000327,-2.977655915427779298
0.494000000000000328,-2.961741675580216171
0.495000000000000329,-2.945484706334999370
0.496000000000000330,-2.928899148509819916
0.497000000000000330,-2.911998865148591964
0.498000000000000331,-2.894797443453637875
0.499000000000000332,-2.877308196817426555
0.500000000000000333,-2.859544166948207788
0.501000000000000334,-2.841518126084406681
0.502000000000000335,-2.823242579292863930
0.503000000000000336,-2.804729766845860617
0.504000000000000337,-2.785991666672264166
0.505000000000000338,-2.767039996878101871
0.506000000000000338,-2.747886218332151298
0.507000000000000339,-2.728541537312158649
0.508000000000000340,-2.709016908207416918
0.509000000000000341,-2.689323036273837175
0.510000000000000342,-2.669470380437238610
0.511000000000000343,-2.649469156141370796
0.512000000000000344,-2.629329338236703784
0.513000000000000345,-2.609060663906567878
0.514000000000000346,-2.588672635627208063
0.515000000000000346,-2.568174524158281180
0.516000000000000347,-2.547575371560703239
0.517000000000000348,-2.526883994238764419
0.518000000000000349,-2.506108986003364514
0.519000000000000350,-2.485258721153728256
0.520000000000000351,-2.464341357574551861
0.521000000000000352,-2.443364839846217329
0.522000000000000353,-2.422336902365225697
0.523000000000000353,-2.401265072472562601
0.524000000000000354,-2.380156673587622063
0.525000000000000355,-2.359018828345286867
0.526000000000000356,-2.337858461734131588
0.527000000000000357,-2.316682304233620204
0.528000000000000358,-2.295496894948205302
0.529000000000000359,-2.274308584736608907
0.530000000000000360,-2.253123539334211056
0.531000000000000361,-2.231947742467037532
0.532000000000000361,-2.210786998955503790
0.533000000000000362,-2.189646937806421612
0.534000000000000363,-2.168533015291694177
0.535000000000000364,-2.147450518012329557
0.536000000000000365,-2.126404565946292458
0.537000000000000366,-2.105400115479041823
0.538000000000000367,-2.084441962415309213
0.539000000000000368,-2.063534744971229795
0.540000000000000369,-2.042682946745402628
0.541000000000000369,-2.021890899668135511
0.542000000000000370,-2.001162786927619841
0.543000000000000371,-1.980502645872312284
0.544000000000000372,-1.959914370888536039
0.545000000000000373,-1.939401716252527219
0.546000000000000374,-1.918968298956134522
0.547000000000000375,-1.898617601505443231
0.548000000000000376,-1.878352974691735344
0.549000000000000377,-1.858177640334042646
0.550000000000000377,-1.838094693992829320
0.551000000000000378,-1.818107107654158394
0.552000000000000379,-1.798217732383993184
0.553000000000000380,-1.778429300952052428
0.554000000000000381,-1.758744430424835858
0.555000000000000382,-1.739165624727590398
0.556000000000000383,-1.719695277174605907
0.557000000000000384,-1.700335672967858258
0.558000000000000385,-1.681088991663450383
0.559000000000000385,-1.661957309605806898
0.560000000000000386,-1.642942602329367174
0.561000000000000387,-1.624046746927553020
0.562000000000000388,-1.605271524388912852
0.563000000000000389,-1.586618621900374837
0.564000000000000390,-1.568089635117393410
0.565000000000000391,-1.549686070401064431
0.566000000000000392,-1.531409347022040901
0.567000000000000393,-1.513260799331394679
0.568000000000000393,-1.495241678898219906
0.569000000000000394,-1.477353156614191754
0.570000000000000395,-1.459596324765080499
0.571000000000000396,-1.441972199069162075
0.572000000000000397,-1.424481720682852171
0.573000000000000398,-1.407125758173414232
0.574000000000000399,-1.389905109459081078
0.575000000000000400,-1.372820503716531526
0.576000000000000401,-1.355872603256025766
0.577000000000000401,-1.339062005364338503
0.578000000000000402,-1.322389244115575346
0.579000000000000403,-1.305854792150142440
0.580000000000000404,-1.289459062422149360
0.581000000000000405,-1.273202409915262789
0.582000000000000406,-1.257085133327455306
0.583000000000000407,-1.241107476724711889
0.584000000000000408,-1.225269631164076722
0.585000000000000409,-1.209571736286226606
0.586000000000000409,-1.194013881877807215
0.587000000000000410,-1.178596109403941439
0.588000000000000411,-1.163318413510992189
0.589000000000000412,-1.148180743500086587
0.590000000000000413,-1.133183004771489255
0.591000000000000414,-1.118325060240271673
0.592000000000000415,-1.103606731723557388
0.593000000000000416,-1.089027801299572884
0.594000000000000417,-1.074588012638881818
0.595000000000000417,-1.060287072308237821
0.596000000000000418,-1.046124651047046328
0.597000000000000419,-1.032100385017214572
0.598000000000000420,-1.018213877026279413
0.599000000000000421,-1.004464697724505751
0.600000000000000422,-0.990852386776026606
0.601000000000000423,-0.977376454004532436
0.602000000000000424,-0.964036380513757174
0.603000000000000425,-0.950831619783166659
0.604000000000000425,-0.937761598739095370
0.605000000000000426,-0.924825718801781549
0.606000000000000427,-0.912023356908637339
0.607000000000000428,-0.899353866513891709
0.608000000000000429,-0.886816578565365221
0.609000000000000430,-0.874410802458203129
0.610000000000000431,-0.862135826966403784
0.611000000000000432,-0.849990921152113388
0.612000000000000433,-0.837975335253206333
