# Rutile-100-old_PYRROLIDINE-AC
# h[nm],U(h)[kJ/mol]
0.149999999999999994,233.695119917537340370
0.150999999999999995,232.690984443454368602
0.151999999999999996,231.024425561794544137
0.152999999999999997,229.269123115481846753
0.153999999999999998,227.601303853128854371
0.154999999999999999,226.028616605029981201
0.156000000000000000,224.505555681602032791
0.157000000000000001,222.985270168355498299
0.158000000000000002,221.437728083057209005
0.159000000000000002,219.851664814537059556
0.160000000000000003,218.229993674059187470
0.161000000000000004,216.583690366843484298
0.162000000000000005,214.926452820629862117
0.163000000000000006,213.270941354289021774
0.164000000000000007,211.626641123486479046
0.165000000000000008,209.999052878618755358
0.166000000000000009,208.389818060708108760
0.167000000000000010,206.797403851496483185
0.168000000000000010,205.218044794967767075
0.169000000000000011,203.646722099167675424
0.170000000000000012,202.078040359084667443
0.171000000000000013,200.506925866403406644
0.172000000000000014,198.929118742455017355
0.173000000000000015,197.341463919737805099
0.174000000000000016,195.742026010105632849
0.175000000000000017,194.130063245575513520
0.176000000000000018,192.505898731385826750
0.177000000000000018,190.870725585162119842
0.178000000000000019,189.226378045043219345
0.179000000000000020,187.575094736629694125
0.180000000000000021,185.919294001588440324
0.181000000000000022,184.261375175965042672
0.182000000000000023,182.603554363592735399
0.183000000000000024,180.947738781475607084
0.184000000000000025,179.295440222007613329
0.185000000000000026,177.647725550903231806
0.186000000000000026,176.005200352600326141
0.187000000000000027,174.368020729596963747
0.188000000000000028,172.735927730687677695
0.189000000000000029,171.108298799184353811
0.190000000000000030,169.484210879557821272
0.191000000000000031,167.862510297382243607
0.192000000000000032,166.241885147056933647
0.193000000000000033,164.620936614916161034
0.194000000000000034,162.998246377883219793
0.195000000000000034,161.372437909509642395
0.196000000000000035,159.742230167770685512
0.197000000000000036,158.106482714086894248
0.198000000000000037,156.464231810477969020
0.199000000000000038,154.814717457612857743
0.200000000000000039,153.157401671615787109
0.201000000000000040,151.491978556011616774
0.202000000000000041,149.818376913633869663
0.203000000000000042,148.136756269512659401
0.204000000000000042,146.447497248231599087
0.205000000000000043,144.751187276624051492
0.206000000000000044,143.048602573351530509
0.207000000000000045,141.340687348697883863
0.208000000000000046,139.628531077948679240
0.209000000000000047,137.913344636301161472
0.210000000000000048,136.196435997824522701
0.211000000000000049,134.479186110160242151
0.212000000000000050,132.763025464208880067
0.213000000000000050,131.049411787032170196
0.214000000000000051,129.339809198953361147
0.215000000000000052,127.635669094118952671
0.216000000000000053,125.938412928814571501
0.217000000000000054,124.249417034376662627
0.218000000000000055,122.569999512027749233
0.219000000000000056,120.901409215481521642
0.220000000000000057,119.244816783580205310
0.221000000000000058,117.601307649228004948
0.222000000000000058,115.971876922003644950
0.223000000000000059,114.357426019532226746
0.224000000000000060,112.758760906354979170
0.225000000000000061,111.176591788015485918
0.226000000000000062,109.611534101733653301
0.227000000000000063,108.064110642721516342
0.228000000000000064,106.534754666299050996
0.229000000000000065,105.023813809903117544
0.230000000000000066,103.531554685319676423
0.231000000000000066,102.058167999507176660
0.232000000000000067,100.603774071779739074
0.233000000000000068,99.168428625483997507
0.234000000000000069,97.752128743289247836
0.235000000000000070,96.354818886517662690
0.236000000000000071,94.976396890318639521
0.237000000000000072,93.616719857720710252
0.238000000000000073,92.275609886510196134
0.239000000000000073,90.952859573346373168
0.240000000000000074,89.648237249414350458
0.241000000000000075,88.361491911175818359
0.242000000000000076,87.092357818331237240
0.243000000000000077,85.840558738934376493
0.244000000000000078,84.605811828680771214
0.245000000000000079,83.387831137721022401
0.246000000000000080,82.186330743950307465
0.247000000000000081,81.001027516606413315
0.248000000000000081,79.831643518208721844
0.249000000000000082,78.677908056424300298
0.250000000000000111,77.539559400391937061
0.251000000000000112,76.416346178417740020
0.252000000000000113,75.308028475820322001
0.253000000000000114,74.214378653098208360
0.254000000000000115,73.135181905558638960
0.255000000000000115,72.070236586136246615
0.256000000000000116,71.019354313381171551
0.257000000000000117,69.982359886555684625
0.258000000000000118,68.959091029481697888
0.259000000000000119,67.949397984271428186
0.260000000000000120,66.953142975379222435
0.261000000000000121,65.970199563572194279
0.262000000000000122,65.000451908456170713
0.263000000000000123,64.043793957140735529
0.264000000000000123,63.100128575506232664
0.265000000000000124,62.169366637368760564
0.266000000000000125,61.251426085645356068
0.267000000000000126,60.346230978417089830
0.268000000000000127,59.453710531587887544
0.269000000000000128,58.573798168655386576
0.270000000000000129,57.706430586954660100
0.271000000000000130,56.851546848616749230
0.272000000000000131,56.009087503411421949
0.273000000000000131,55.178993749616985554
0.274000000000000132,54.361206638090720844
0.275000000000000133,53.555666323799997031
0.276000000000000134,52.762311368219705798
0.277000000000000135,51.981078095210889956
0.278000000000000136,51.211900002262083831
0.279000000000000137,50.454707228305650801
0.280000000000000138,49.709426078712183994
0.281000000000000139,48.975978607513638963
0.282000000000000139,48.254282256413937091
0.283000000000000140,47.544249549706108837
0.284000000000000141,46.845787843829761243
0.285000000000000142,46.158799129967682973
0.286000000000000143,45.483179887791415297
0.287000000000000144,44.818820988223095014
0.288000000000000145,44.165607642878342176
0.289000000000000146,43.523419397693267285
0.290000000000000147,42.892130168109829924
0.291000000000000147,42.271608313101609156
0.292000000000000148,41.661716745256036631
0.293000000000000149,41.062313074094404897
0.294000000000000150,40.473249779797328074
0.295000000000000151,39.894374414514501836
0.296000000000000152,39.325529828466940785
0.297000000000000153,38.766554418097435075
0.298000000000000154,38.217282393586714306
0.299000000000000155,37.677544063129040808
0.300000000000000155,37.147166131446638815
0.301000000000000156,36.625972010119639322
0.302000000000000157,36.113782137410218809
0.303000000000000158,35.610414305371470789
0.304000000000000159,35.115683992144298031
0.305000000000000160,34.629404697465453467
0.306000000000000161,34.151388279529030001
0.307000000000000162,33.681445291466161507
0.308000000000000163,33.219385315829349281
0.309000000000000163,32.765017295589757396
0.310000000000000164,32.318149860275369178
0.311000000000000165,31.878591645996902315
0.312000000000000166,31.446151608223622986
0.313000000000000167,31.020639326283976800
0.314000000000000168,30.601865298675733129
0.315000000000000169,30.189641228375272419
0.316000000000000170,29.783780297437459694
0.317000000000000171,29.384097430274572105
0.318000000000000171,28.990409545095708665
0.319000000000000172,28.602535793075617221
0.320000000000000173,28.220297784905802985
0.321000000000000174,27.843519804459202049
0.322000000000000175,27.472029009373301278
0.323000000000000176,27.105655618426276021
0.324000000000000177,26.744233085644349757
0.325000000000000178,26.387598261139252998
0.326000000000000179,26.035591538729001115
0.327000000000000179,25.688056990446632710
0.328000000000000180,25.344842488087849119
0.329000000000000181,25.005799811990609527
0.330000000000000182,24.670784747278354132
0.331000000000000183,24.339657167832537965
0.332000000000000184,24.012281108291166021
0.333000000000000185,23.688524824397045876
0.334000000000000186,23.368260842043092396
0.335000000000000187,23.051365995382759877
0.336000000000000187,22.737721454390921849
0.337000000000000188,22.427212742275791868
0.338000000000000189,22.119729743153410340
0.339000000000000190,21.815166700406638967
0.340000000000000191,21.513422206157095218
0.341000000000000192,21.214399182283838030
0.342000000000000193,20.918004853424669420
0.343000000000000194,20.624150712397696594
0.344000000000000195,20.332752478479910963
0.345000000000000195,20.043730048976446056
0.346000000000000196,19.757007444511504701
0.347000000000000197,19.472512748465845789
0.348000000000000198,19.190178040980036656
0.349000000000000199,18.909939327935006759
0.350000000000000200,18.631736465313117890
0.351000000000000201,18.355513079333938720
0.352000000000000202,18.081216482748754260
0.353000000000000203,17.808797587667619666
0.354000000000000203,17.538210815281011890
0.355000000000000204,17.269414002827474519
0.356000000000000205,17.002368308145786813
0.357000000000000206,16.737038112138279189
0.358000000000000207,16.473390919459475867
0.359000000000000208,16.211397257731523069
0.360000000000000209,15.951030575574520753
0.361000000000000210,15.692267139727936964
0.362000000000000210,15.435085931525387437
0.363000000000000211,15.179468542972921696
0.364000000000000212,14.925399072667882905
0.365000000000000213,14.672864021782618948
0.366000000000000214,14.421852190325125775
0.367000000000000215,14.172354573876173589
0.368000000000000216,13.924364260990293118
0.369000000000000217,13.677876331436261026
0.370000000000000218,13.432887755441029753
0.371000000000000218,13.189397294089847179
0.372000000000000219,12.947405401023861060
0.373000000000000220,12.706914125566218132
0.374000000000000221,12.467927017396998934
0.375000000000000222,12.230449032887497296
0.376000000000000223,11.994486443193911995
0.377000000000000224,11.760046744202123037
0.378000000000000225,11.527138568405346675
0.379000000000000226,11.295771598788146406
0.380000000000000226,11.065956484781741764
0.381000000000000227,10.837704760347723010
0.382000000000000228,10.611028764239440747
0.383000000000000229,10.385941562483246514
0.384000000000000230,10.162456873114532385
0.385000000000000231,9.940588993197110312
0.386000000000000232,9.720352728148244026
0.387000000000000233,9.501763323385283400
0.388000000000000234,9.284836398304847194
0.389000000000000234,9.069587882599648765
0.390000000000000235,8.856033954913282713
0.391000000000000236,8.644190983828725194
0.392000000000000237,8.434075471181568417
0.393000000000000238,8.225703997685199553
0.394000000000000239,8.019093170851135710
0.395000000000000240,7.814259575184183682
0.396000000000000241,7.611219724628867311
0.397000000000000242,7.409990017240279947
0.398000000000000242,7.210586692050027224
0.399000000000000243,7.013025788095141877
0.400000000000000244,6.817323105575328945
0.401000000000000245,6.623494169102182916
0.402000000000000246,6.431554193001849384
0.403000000000000247,6.241518048630522841
0.404000000000000248,6.053400233661331065
0.405000000000000249,5.867214843299174198
0.406000000000000250,5.682975543379191308
0.407000000000000250,5.500695545303315726
0.408000000000000251,5.320387582768586476
0.409000000000000252,5.142063890240232915
0.410000000000000253,4.965736183121592262
0.411000000000000254,4.791415639572930374
0.412000000000000255,4.619112883930545976
0.413000000000000256,4.448837971677294334
0.414000000000000257,4.280600375915844857
0.415000000000000258,4.114408975295529736
0.416000000000000258,3.950272043344221995
0.417000000000000259,3.788197239156241292
0.418000000000000260,3.628191599388210786
0.419000000000000261,3.470261531514366116
0.420000000000000262,3.314412808294020074
0.421000000000000263,3.160650563403512692
0.422000000000000264,3.008979288186310885
0.423000000000000265,2.859402829474785968
0.424000000000000266,2.711924388438286204
0.425000000000000266,2.566546520412739341
0.426000000000000267,2.423271135667451226
0.427000000000000268,2.282099501065894209
0.428000000000000269,2.143032242577892710
0.429000000000000270,2.006069348601358104
0.430000000000000271,1.871210174052798436
0.431000000000000272,1.738453445186421531
0.432000000000000273,1.607797265102871576
0.433000000000000274,1.479239119909247835
0.434000000000000274,1.352775885493088026
0.435000000000000275,1.228403834874122191
0.436000000000000276,1.106118646098205316
0.437000000000000277,0.985915410639050527
0.438000000000000278,0.867788642274286204
0.439000000000000279,0.751732286403263505
0.440000000000000280,0.637739729775029796
0.441000000000000281,0.525803810595952603
0.442000000000000282,0.415916828987151543
0.443000000000000282,0.308070557763297947
0.444000000000000283,0.202256253504752875
0.445000000000000284,0.098464667896492844
0.446000000000000285,-0.003313940692248796
0.447000000000000286,-0.103089795412501670
0.448000000000000287,-0.200873588948246862
0.449000000000000288,-0.296676471360526883
0.450000000000000289,-0.390510037785105457
0.451000000000000290,-0.482386316005123272
0.452000000000000290,-0.572317753919376004
0.453000000000000291,-0.660317206925661759
0.454000000000000292,-0.746397925238246107
0.455000000000000293,-0.830573541157455630
0.456000000000000294,-0.912858056308500920
0.457000000000000295,-0.993265828866237044
0.458000000000000296,-1.071811560781275263
0.459000000000000297,-1.148510285022641408
0.460000000000000298,-1.223377352851069189
0.461000000000000298,-1.296428421136500475
0.462000000000000299,-1.367679439732585767
0.463000000000000300,-1.437146638920336672
0.464000000000000301,-1.504846516932486278
0.465000000000000302,-1.570795827569289926
0.466000000000000303,-1.635011567916094588
0.467000000000000304,-1.697510966172372404
0.468000000000000305,-1.758311469601026689
0.469000000000000306,-1.817430732606703625
0.470000000000000306,-1.874886604950986468
0.471000000000000307,-1.930697120111716902
0.472000000000000308,-1.984880483793505679
0.473000000000000309,-2.037455062595826316
0.474000000000000310,-2.088439372844425712
0.475000000000000311,-2.137852069591732462
0.476000000000000312,-2.185711935791011307
0.477000000000000313,-2.232037871649154681
0.478000000000000314,-2.276848884161890574
0.479000000000000314,-2.320164076835505629
0.480000000000000315,-2.362002639598204112
0.481000000000000316,-2.402383838904289526
0.482000000000000317,-2.441327008033668200
0.483000000000000318,-2.478851537589098708
0.484000000000000319,-2.514976866193149974
0.485000000000000320,-2.549722471386435707
0.486000000000000321,-2.583107860728687033
0.487000000000000322,-2.615152563103630534
0.488000000000000322,-2.645876120228432438
0.489000000000000323,-2.675298078368467891
0.490000000000000324,-2.703437980257564544
0.491000000000000325,-2.730315357223815020
0.492000000000000326,-2.755949721520857487
0.493000000000000327,-2.780360558864294340
0.494000000000000328,-2.803567321172551807
0.495000000000000329,-2.825589419511627565
0.496000000000000330,-2.846446217242520227
0.497000000000000330,-2.866157023370643042
0.498000000000000331,-2.884741086095413021
0.499000000000000332,-2.902217586559138418
0.500000000000000333,-2.918605632793332738
0.501000000000000334,-2.933924253860725528
0.502000000000000335,-2.948192394191409438
0.503000000000000336,-2.961428908110915525
0.504000000000000337,-2.973652554558360528
0.505000000000000338,-2.984881991992379024
0.506000000000000338,-2.995135773482685781
0.507000000000000339,-3.004432341984936805
0.508000000000000340,-3.012790025796326709
0.509000000000000341,-3.020227034189759685
0.510000000000000342,-3.026761453223589804
0.511000000000000343,-3.032411241724794593
0.512000000000000344,-3.037194227442468364
0.513000000000000345,-3.041128103369206137
0.514000000000000346,-3.044230424227567067
0.515000000000000346,-3.046518603118634871
0.516000000000000347,-3.048009908330014284
0.517000000000000348,-3.048721460300345854
0.518000000000000349,-3.048670228737335730
0.519000000000000350,-3.047873029886579044
0.520000000000000351,-3.046346523947916829
0.521000000000000352,-3.044107212636808946
0.522000000000000353,-3.041171436887285751
0.523000000000000353,-3.037555374693857058
0.524000000000000354,-3.033275039089273761
0.525000000000000355,-3.028346276255117875
0.526000000000000356,-3.022784763762309979
0.527000000000000357,-3.016606008938606642
0.528000000000000358,-3.009825347359985415
0.529000000000000359,-3.002457941463188007
0.530000000000000360,-2.994518779276206910
0.531000000000000361,-2.986022673264075333
0.532000000000000361,-2.976984259286874934
0.533000000000000362,-2.967417995667152475
0.534000000000000363,-2.957338162363841061
0.535000000000000364,-2.946758860249961920
0.536000000000000365,-2.935694010491106454
0.537000000000000366,-2.924157354022145494
0.538000000000000367,-2.912162451119124640
0.539000000000000368,-2.899722681064001328
0.540000000000000369,-2.886851241899079934
0.541000000000000369,-2.873561150268951536
0.542000000000000370,-2.859865241346824405
0.543000000000000371,-2.845776168843102916
0.544000000000000372,-2.831306405093320766
0.545000000000000373,-2.816468241223106794
0.546000000000000374,-2.801273787387564163
0.547000000000000375,-2.785734973082678145
0.548000000000000376,-2.769863547526354441
0.549000000000000377,-2.753671080106649516
0.550000000000000377,-2.737168960894940994
0.551000000000000378,-2.720368401221593402
0.552000000000000379,-2.703280434312092417
0.553000000000000380,-2.685915915981198943
0.554000000000000381,-2.668285525383030432
0.555000000000000382,-2.650399765815066644
0.556000000000000383,-2.632268965573669739
0.557000000000000384,-2.613903278859461388
0.558000000000000385,-2.595312686730117058
0.559000000000000385,-2.576506998098949008
0.560000000000000386,-2.557495850777186330
0.561000000000000387,-2.538288712558029125
0.562000000000000388,-2.518894882340640518
0.563000000000000389,-2.499323491292402721
0.564000000000000390,-2.479583504047400577
0.565000000000000391,-2.459683719939622204
0.566000000000000392,-2.439632774269037352
0.567000000000000393,-2.419439139599036004
0.568000000000000393,-2.399111127083411343
0.569000000000000394,-2.378656887821461563
0.570000000000000395,-2.358084414239688620
0.571000000000000396,-2.337401541498369983
0.572000000000000397,-2.316615948921856294
0.573000000000000398,-2.295735161450848771
0.574000000000000399,-2.274766551115525726
0.575000000000000400,-2.253717338527937208
0.576000000000000401,-2.232594594392488307
0.577000000000000401,-2.211405241033261859
0.578000000000000402,-2.190156053936722191
0.579000000000000403,-2.168853663308745627
0.580000000000000404,-2.147504555644875524
0.581000000000000405,-2.126115075312339009
0.582000000000000406,-2.104691426143099342
0.583000000000000407,-2.083239673036482831
0.584000000000000408,-2.061765743570656007
0.585000000000000409,-2.040275429621712266
0.586000000000000409,-2.018774388989407864
0.587000000000000410,-1.997268147028757657
0.588000000000000411,-1.975762098286240498
0.589000000000000412,-1.954261508140122228
0.590000000000000413,-1.932771514443591965
0.591000000000000414,-1.911297129170205888
0.592000000000000415,-1.889843240060704588
0.593000000000000416,-1.868414612270306918
0.594000000000000417,-1.847015890015861972
0.595000000000000417,-1.825651598222208349
0.596000000000000418,-1.804326144166617185
0.597000000000000419,-1.783043819121238327
0.598000000000000420,-1.761808799992306218
0.599000000000000421,-1.740625150955911193
0.600000000000000422,-1.719496825089445569
0.601000000000000423,-1.698427665998247793
0.602000000000000424,-1.677421409436915978
0.603000000000000425,-1.656481684924653308
0.604000000000000425,-1.635612017354144188
0.605000000000000426,-1.614815828593516356
0.606000000000000427,-1.594096439080920469
0.607000000000000428,-1.573457069411025921
0.608000000000000429,-1.552900841913481322
0.609000000000000430,-1.532430782222295784
0.610000000000000431,-1.512049820836341985
0.611000000000000432,-1.491760794670138113
0.612000000000000433,-1.471566448594769927
