# Rutile-100-old_DIFLUOROMETHANE
# h[nm],U(h)[kJ/mol]
0.149999999999999994,143.324668416473599564
0.150999999999999995,141.279482591953922110
0.151999999999999996,139.823002558634243542
0.152999999999999997,138.488701436137660039
0.153999999999999998,137.107038543008201259
0.154999999999999999,135.648767437297777860
0.156000000000000000,134.139580026583956851
0.157000000000000001,132.617151817948013104
0.158000000000000002,131.112375365794775917
0.159000000000000002,129.643589105563535213
0.160000000000000003,128.217136479407315619
0.161000000000000004,126.830456489095723782
0.162000000000000005,125.475678545380532114
0.163000000000000006,124.142755559789549125
0.164000000000000007,122.821777072529584984
0.165000000000000008,121.504429561100067758
0.166000000000000009,120.184725637364152817
0.167000000000000010,118.859179488098149591
0.168000000000000010,117.526607905671014009
0.169000000000000011,116.187712295372037374
0.170000000000000012,114.844563432862713626
0.171000000000000013,113.500076512576285381
0.172000000000000014,112.157533697675191320
0.173000000000000015,110.820186772510353990
0.174000000000000016,109.490953888941859873
0.175000000000000017,108.172211263996160824
0.176000000000000018,106.865672148937122188
0.177000000000000018,105.572340477692790728
0.178000000000000019,104.292524395987442176
0.179000000000000020,103.025894572457261233
0.180000000000000021,101.771573145652411085
0.181000000000000022,100.528240856529095026
0.182000000000000023,99.294251975246240249
0.183000000000000024,98.067748784381933547
0.184000000000000025,96.846769447717420576
0.185000000000000026,95.629344963309137029
0.186000000000000026,94.413582512214048847
0.187000000000000027,93.197733847604951052
0.188000000000000028,91.980248426168145670
0.189000000000000029,90.759811783937649921
0.190000000000000030,89.535370230824085525
0.191000000000000031,88.306143315179809861
0.192000000000000032,87.071625725872422663
0.193000000000000033,85.831580387185070435
0.194000000000000034,84.586024491272937098
0.195000000000000034,83.335210130149064867
0.196000000000000035,82.079601056614734489
0.197000000000000036,80.819846939702472355
0.198000000000000037,79.556756299912024133
0.199000000000000038,78.291269124361832610
0.200000000000000039,77.024429980614684155
0.201000000000000040,75.757362276587457472
0.202000000000000041,74.491244156788212649
0.203000000000000042,73.227286384659322493
0.204000000000000042,71.966712438254447193
0.205000000000000043,70.710740942061164560
0.206000000000000044,69.460570470971802592
0.207000000000000045,68.217366692170031683
0.208000000000000046,66.982251755651375902
0.209000000000000047,65.756295802656339333
0.210000000000000048,64.540510431788902679
0.211000000000000049,63.335843943348017149
0.212000000000000050,62.143178171791099373
0.213000000000000050,60.963326712755986136
0.214000000000000051,59.797034353288538000
0.215000000000000052,58.644977520606460075
0.216000000000000053,57.507765574761855021
0.217000000000000054,56.385942782989403099
0.218000000000000055,55.279990827522780705
0.219000000000000056,54.190331713549085180
0.220000000000000057,53.117330959184883454
0.221000000000000058,52.061300964456471263
0.222000000000000058,51.022504470893288442
0.223000000000000059,50.001158037241523857
0.224000000000000060,48.997435469780121764
0.225000000000000061,48.011471157651016028
0.226000000000000062,47.043363274422290488
0.227000000000000063,46.093176816759573455
0.228000000000000064,45.160946459586639889
0.229000000000000065,44.246679214502563582
0.230000000000000066,43.350356884540097724
0.231000000000000066,42.471938313660579922
0.232000000000000067,41.611361433762944273
0.233000000000000068,40.768545115514385202
0.234000000000000069,39.943390832076808294
0.235000000000000070,39.135784146885221446
0.236000000000000071,38.345596038119694526
0.237000000000000072,37.572684073475002720
0.238000000000000073,36.816893449351475454
0.239000000000000073,36.078057908735885917
0.240000000000000074,35.356000551872490689
0.241000000000000075,34.650534553408910199
0.242000000000000076,33.961463799083382753
0.243000000000000077,33.288583454251380545
0.244000000000000078,32.631680475671018371
0.245000000000000079,31.990534077011716363
0.246000000000000080,31.364916157554056042
0.247000000000000081,30.754591702531985931
0.248000000000000081,30.159319162557540750
0.249000000000000082,29.578850818578843018
0.250000000000000111,29.012933137868191835
0.251000000000000112,28.461307125631144288
0.252000000000000113,27.923708675976929072
0.253000000000000114,27.399868925202127912
0.254000000000000115,26.889514609616309571
0.255000000000000115,26.392368429482871761
0.256000000000000116,25.908149420061409529
0.257000000000000117,25.436573330218195110
0.258000000000000118,24.977353008618383257
0.259000000000000119,24.530198797123286880
0.260000000000000120,24.094818930686578540
0.261000000000000121,23.670919942770950684
0.262000000000000122,23.258207075086779980
0.263000000000000123,22.856384690283796601
0.264000000000000123,22.465156686100471006
0.265000000000000124,22.084226909390146432
0.266000000000000125,21.713299568393146899
0.267000000000000126,21.352079641607041083
0.268000000000000127,21.000273281617076293
0.269000000000000128,20.657588212284373697
0.270000000000000129,20.323734117744905348
0.271000000000000130,19.998423021744976324
0.272000000000000131,19.681369655926783224
0.273000000000000131,19.372291815775980695
0.274000000000000132,19.070910703050873991
0.275000000000000133,18.776951253626705807
0.276000000000000134,18.490142449806715064
0.277000000000000135,18.210217616272402097
0.278000000000000136,17.936914698966496928
0.279000000000000137,17.669976526322621169
0.280000000000000138,17.409151052374344459
0.281000000000000139,17.154191581391337706
0.282000000000000139,16.904856973801628328
0.283000000000000140,16.660911833265618753
0.284000000000000141,16.422126674868216867
0.285000000000000142,16.188278074490870750
0.286000000000000143,15.959148799513972250
0.287000000000000144,15.734527921082635871
0.288000000000000145,15.514210908244470133
0.289000000000000146,15.297999704337224003
0.290000000000000147,15.085702786066326198
0.291000000000000147,14.877135205768180271
0.292000000000000148,14.672118617404155572
0.293000000000000149,14.470481286873422277
0.294000000000000150,14.272058087269076765
0.295000000000000151,14.076690479733340311
0.296000000000000152,13.884226480592655406
0.297000000000000153,13.694520615473573244
0.298000000000000154,13.507433861115288209
0.299000000000000155,13.322833575605008249
0.300000000000000155,13.140593417768082318
0.301000000000000156,12.960593256446994559
0.302000000000000157,12.782719070400935024
0.303000000000000158,12.606862839552947619
0.304000000000000159,12.432922428302701334
0.305000000000000160,12.260801461612082619
0.306000000000000161,12.090409194556913874
0.307000000000000162,11.921660376022105154
0.308000000000000163,11.754475107199748862
0.309000000000000163,11.588778695529924789
0.310000000000000164,11.424501504702970323
0.311000000000000165,11.261578801319537035
0.312000000000000166,11.099950598781630262
0.313000000000000167,10.939561498963403352
0.314000000000000168,10.780360532185984113
0.315000000000000169,10.622300995995257011
0.316000000000000170,10.465340293215943390
0.317000000000000171,10.309439769729912939
0.318000000000000171,10.154564552400824340
0.319000000000000172,10.000683387541656089
0.320000000000000173,9.847768480296583249
0.321000000000000174,9.695795335283428074
0.322000000000000175,9.544742598818567458
0.323000000000000176,9.394591903021948909
0.324000000000000177,9.245327712076512938
0.325000000000000178,9.096937170893351521
0.326000000000000179,8.949409956411669143
0.327000000000000179,8.802738131741309147
0.328000000000000180,8.656916003334632848
0.329000000000000181,8.511939981354759155
0.330000000000000182,8.367808443387872330
0.331000000000000183,8.224521601629048106
0.332000000000000184,8.082081373653396739
0.333000000000000185,7.940491256867877823
0.334000000000000186,7.799756206722902263
0.335000000000000187,7.659882518748228009
0.336000000000000187,7.520877714463033215
0.337000000000000188,7.382750431197100838
0.338000000000000189,7.245510315847060845
0.339000000000000190,7.109167922580025056
0.340000000000000191,6.973734614486050809
0.341000000000000192,6.839222469170323393
0.342000000000000193,6.705644188266584926
0.343000000000000194,6.573013010844387161
0.344000000000000195,6.441342630674905756
0.345000000000000195,6.310647117312008447
0.346000000000000196,6.180940840939078029
0.347000000000000197,6.052238400925313400
0.348000000000000198,5.924554558030000528
0.349000000000000199,5.797904170187890394
0.350000000000000200,5.672302131804467074
0.351000000000000201,5.547763316485673890
0.352000000000000202,5.424302523123442299
0.353000000000000203,5.301934425254849259
0.354000000000000203,5.180673523610466624
0.355000000000000204,5.060534101765094661
0.356000000000000205,4.941530184802191528
0.357000000000000206,4.823675500901769553
0.358000000000000207,4.706983445760712925
0.359000000000000208,4.591467049753257257
0.360000000000000209,4.477138947739012664
0.361000000000000210,4.364011351425867602
0.362000000000000210,4.252096024194729651
0.363000000000000211,4.141404258293698959
0.364000000000000212,4.031946854309475192
0.365000000000000213,3.923734102824642633
0.366000000000000214,3.816775768170259653
0.367000000000000215,3.711081074184257034
0.368000000000000216,3.606658691887222545
0.369000000000000217,3.503516728988712803
0.370000000000000218,3.401662721138365875
0.371000000000000218,3.301103624837989692
0.372000000000000219,3.201845811932140240
0.373000000000000220,3.103895065596629976
0.374000000000000221,3.007256577746276527
0.375000000000000222,2.911934947784989625
0.376000000000000223,2.817934182623114570
0.377000000000000224,2.725257697889307273
0.378000000000000225,2.633908320265859970
0.379000000000000226,2.543888290878716596
0.380000000000000226,2.455199269675279350
0.381000000000000227,2.367842340725463401
0.382000000000000228,2.281818018383263702
0.383000000000000229,2.197126254248463084
0.384000000000000230,2.113766444870038619
0.385000000000000231,2.031737440134950834
0.386000000000000232,1.951037552288191534
0.387000000000000233,1.871664565531798718
0.388000000000000234,1.793615746152888546
0.389000000000000234,1.716887853132429642
0.390000000000000235,1.641477149188796059
0.391000000000000236,1.567379412211841627
0.392000000000000237,1.494589947045313227
0.393000000000000238,1.423103597577204393
0.394000000000000239,1.352914759099614894
0.395000000000000240,1.284017390901358580
0.396000000000000241,1.216405029058418297
0.397000000000000242,1.150070799389065979
0.398000000000000242,1.085007430542085149
0.399000000000000243,1.021207267188294132
0.400000000000000244,0.958662283286986217
0.401000000000000245,0.897364095400579154
0.402000000000000246,0.837303976032347075
0.403000000000000247,0.778472866963231813
0.404000000000000248,0.720861392565579462
0.405000000000000249,0.664459873072638985
0.406000000000000250,0.609258337784243875
0.407000000000000250,0.555246538190166894
0.408000000000000251,0.502413960994001929
0.409000000000000252,0.450749841021574948
0.410000000000000253,0.400243173998958202
0.411000000000000254,0.350882729186356435
0.412000000000000255,0.302657061855148179
0.413000000000000256,0.255554525596265625
0.414000000000000257,0.209563284449327675
0.415000000000000258,0.164671324842493361
0.416000000000000258,0.120866467334302466
0.417000000000000259,0.078136378149239974
0.418000000000000260,0.036468580499864386
0.419000000000000261,-0.004149534311119263
0.420000000000000262,-0.043730696014498534
0.421000000000000263,-0.082287744729145781
0.422000000000000264,-0.119833620551764192
0.423000000000000265,-0.156381353385761063
0.424000000000000266,-0.191944053012350402
0.425000000000000266,-0.226534899406439033
0.426000000000000267,-0.260167133299492481
0.427000000000000268,-0.292854046990844608
0.428000000000000269,-0.324608975408573031
0.429000000000000270,-0.355445287420612877
0.430000000000000271,-0.385376377396221881
0.431000000000000272,-0.414415657017730532
0.432000000000000273,-0.442576547341884563
0.433000000000000274,-0.469872471109962053
0.434000000000000274,-0.496316845305373178
0.435000000000000275,-0.521923073957171191
0.436000000000000276,-0.546704541187701398
0.437000000000000277,-0.570674604502213301
0.438000000000000278,-0.593846588318127311
0.439000000000000279,-0.616233777731394872
0.440000000000000280,-0.637849412517126124
0.441000000000000281,-0.658706681361510116
0.442000000000000282,-0.678818716321969884
0.443000000000000282,-0.698198587512065538
0.444000000000000283,-0.716859298007880064
0.445000000000000284,-0.734813778972144283
0.446000000000000285,-0.752074884992479986
0.447000000000000286,-0.768655389629959940
0.448000000000000287,-0.784567981173982743
0.449000000000000288,-0.799825258599625166
0.450000000000000289,-0.814439727723270557
0.451000000000000290,-0.828423797552485852
0.452000000000000290,-0.841789776825997982
0.453000000000000291,-0.854549870739467865
0.454000000000000292,-0.866716177852922320
0.455000000000000293,-0.878300687175539330
0.456000000000000294,-0.889315275423493645
0.457000000000000295,-0.899771704446634457
0.458000000000000296,-0.909681618819621285
0.459000000000000297,-0.919056543593340214
0.460000000000000298,-0.927907882202207546
0.461000000000000298,-0.936246914523227836
0.462000000000000299,-0.944084795082484995
0.463000000000000300,-0.951432551404861826
0.464000000000000301,-0.958301082502894253
0.465000000000000302,-0.964701157500504669
0.466000000000000303,-0.970643414387582837
0.467000000000000304,-0.976138358901360581
0.468000000000000305,-0.981196363530506210
0.469000000000000306,-0.985827666638015465
0.470000000000000306,-0.990042371699035306
0.471000000000000307,-0.993850446649616748
0.472000000000000308,-0.997261723342754536
0.473000000000000309,-1.000285897107882294
0.474000000000000310,-1.002932526410140746
0.475000000000000311,-1.005211032605834109
0.476000000000000312,-1.007130699790492523
0.477000000000000313,-1.008700674736065839
0.478000000000000314,-1.009929966913771793
0.479000000000000314,-1.010827448599340483
0.480000000000000315,-1.011401855057230792
0.481000000000000316,-1.011661784800724995
0.482000000000000317,-1.011615699924637513
0.483000000000000318,-1.011271926507632646
0.484000000000000319,-1.010638655081081083
0.485000000000000320,-1.009723941161529304
0.486000000000000321,-1.008535705843915053
0.487000000000000322,-1.007081736452714704
0.488000000000000322,-1.005369687248212296
0.489000000000000323,-1.003407080185373834
0.490000000000000324,-1.001201305722573043
0.491000000000000325,-0.998759623677715647
0.492000000000000326,-0.996089164129249527
0.493000000000000327,-0.993196928359739273
0.494000000000000328,-0.990089789839548984
0.495000000000000329,-0.986774495248509687
0.496000000000000330,-0.983257665533211145
0.497000000000000330,-0.979545796997977503
0.498000000000000331,-0.975645262427191851
0.499000000000000332,-0.971562312237241210
0.500000000000000333,-0.967303075655929767
0.501000000000000334,-0.962873561927516164
0.502000000000000335,-0.958279661541610928
0.503000000000000336,-0.953527147484084514
0.504000000000000337,-0.948621676508324518
0.505000000000000338,-0.943568790425141635
0.506000000000000338,-0.938373917409763836
0.507000000000000339,-0.933042373324364460
0.508000000000000340,-0.927579363054565009
0.509000000000000341,-0.921989981858639340
0.510000000000000342,-0.916279216727801549
0.511000000000000343,-0.910451947756466096
0.512000000000000344,-0.904512949521003584
0.513000000000000345,-0.898466892465872080
0.514000000000000346,-0.892318344295926158
0.515000000000000346,-0.886071771373663331
0.516000000000000347,-0.879731540120397115
0.517000000000000348,-0.873301918420295031
0.518000000000000349,-0.866787077026187291
0.519000000000000350,-0.860191090966295868
0.520000000000000351,-0.853517940950803244
0.521000000000000352,-0.846771514777540646
0.522000000000000353,-0.839955608735777681
0.523000000000000353,-0.833073929007398073
0.524000000000000354,-0.826130093064677995
0.525000000000000355,-0.819127631063868433
0.526000000000000356,-0.812069987233910440
0.527000000000000357,-0.804960521259629358
0.528000000000000358,-0.797802509658705916
0.529000000000000359,-0.790599147151888060
0.530000000000000360,-0.783353548025776503
0.531000000000000361,-0.776068747487724808
0.532000000000000361,-0.768747703012269801
0.533000000000000362,-0.761393295678629789
0.534000000000000363,-0.754008331498783546
0.535000000000000364,-0.746595542735734474
0.536000000000000365,-0.739157589211480337
0.537000000000000366,-0.731697059604382138
0.538000000000000367,-0.724216472735460970
0.539000000000000368,-0.716718278843433643
0.540000000000000369,-0.709204860847982621
0.541000000000000369,-0.701678535601158782
0.542000000000000370,-0.694141555126450926
0.543000000000000371,-0.686596107845426462
0.544000000000000372,-0.679044319791604289
0.545000000000000373,-0.671488255811400592
0.546000000000000374,-0.663929920751905378
0.547000000000000375,-0.656371260635323694
0.548000000000000376,-0.648814163819951828
0.549000000000000377,-0.641260462147473342
0.550000000000000377,-0.633711932076505891
0.551000000000000378,-0.626170295802208399
0.552000000000000379,-0.618637222361946959
0.553000000000000380,-0.611114328726818479
0.554000000000000381,-0.603603180879005885
0.555000000000000382,-0.596105294874965885
0.556000000000000383,-0.588622137894226349
0.557000000000000384,-0.581155129273966287
0.558000000000000385,-0.573705641529154042
0.559000000000000385,-0.566275001358363061
0.560000000000000386,-0.558864490635195943
0.561000000000000387,-0.551475347385324888
0.562000000000000388,-0.544108766749140660
0.563000000000000389,-0.536765901930111644
0.564000000000000390,-0.529447865128753525
0.565000000000000391,-0.522155728462363689
0.566000000000000392,-0.514890524870477817
0.567000000000000393,-0.507653249006192131
0.568000000000000393,-0.500444858113281654
0.569000000000000394,-0.493266272889307023
0.570000000000000395,-0.486118378334726653
0.571000000000000396,-0.479002024588037312
0.572000000000000397,-0.471918027747165181
0.573000000000000398,-0.464867170677025487
0.574000000000000399,-0.457850203803505551
0.575000000000000400,-0.450867845893827113
0.576000000000000401,-0.443920784823486181
0.577000000000000401,-0.437009678329874363
0.578000000000000402,-0.430135154752612103
0.579000000000000403,-0.423297813760771802
0.580000000000000404,-0.416498227067147730
0.581000000000000405,-0.409736939129564770
0.582000000000000406,-0.403014467839493462
0.583000000000000407,-0.396331305197982042
0.584000000000000408,-0.389687917979117837
0.585000000000000409,-0.383084748381106677
0.586000000000000409,-0.376522214665079236
0.587000000000000410,-0.370000711781862279
0.588000000000000411,-0.363520611986692388
0.589000000000000412,-0.357082265442190905
0.590000000000000413,-0.350686000809575682
0.591000000000000414,-0.344332125828354041
0.592000000000000415,-0.338020927884633449
0.593000000000000416,-0.331752674568121519
0.594000000000000417,-0.325527614218020622
0.595000000000000417,-0.319345976458008884
0.596000000000000418,-0.313207972720272676
0.597000000000000419,-0.307113796758994861
0.598000000000000420,-0.301063625153181469
0.599000000000000421,-0.295057617799194982
0.600000000000000422,-0.289095918392987095
0.601000000000000423,-0.283178654902244087
0.602000000000000424,-0.277305940028602427
0.603000000000000425,-0.271477871660049108
0.604000000000000425,-0.265694533313644232
0.605000000000000426,-0.259955994568748072
0.606000000000000427,-0.254262311490919990
0.607000000000000428,-0.248613527046470079
0.608000000000000429,-0.243009671508114977
0.609000000000000430,-0.237450762851505626
0.610000000000000431,-0.231936807143116763
0.611000000000000432,-0.226467798919398083
0.612000000000000433,-0.221043721557424966
0.613000000000000433,-0.215664547637215515
0.614000000000000434,-0.210330239295789978
