# mos2-001_CYMSCA-AC
# h[nm],U(h)[kJ/mol]
0.149999999999999994,108.031091768053741475
0.150999999999999995,106.169771982141099897
0.151999999999999996,104.532447364008248769
0.152999999999999997,102.945024099158288777
0.153999999999999998,101.356600615251622344
0.154999999999999999,99.767105931560593035
0.156000000000000000,98.191254589642014139
0.157000000000000001,96.642745050895257464
0.158000000000000002,95.129069000839407977
0.159000000000000002,93.651353775296598769
0.160000000000000003,92.206159652596085152
0.161000000000000004,90.787653301500512271
0.162000000000000005,89.389446001695077371
0.163000000000000006,88.005861249898359233
0.164000000000000007,86.632636713654051164
0.165000000000000008,85.267169171606283840
0.166000000000000009,83.908439713767535295
0.167000000000000010,82.556747418155325136
0.168000000000000010,81.213354782087421313
0.169000000000000011,79.880119428587363473
0.170000000000000012,78.559160131313817033
0.171000000000000013,77.252583588376467105
0.172000000000000014,75.962282238726288597
0.173000000000000015,74.689802351614119402
0.174000000000000016,73.436274783082765794
0.175000000000000017,72.202397218705598902
0.176000000000000018,70.988455498181878056
0.177000000000000018,69.794371967817411928
0.178000000000000019,68.619770112717802135
0.179000000000000020,67.464046516967272282
0.180000000000000021,66.326443157414146867
0.181000000000000022,65.206114935843601188
0.182000000000000023,64.102189062313755130
0.183000000000000024,63.013814350168090073
0.184000000000000025,61.940199646742996720
0.185000000000000026,60.880641509156944835
0.186000000000000026,59.834541866368589069
0.187000000000000027,58.801416821418669656
0.188000000000000028,57.780897979775886597
0.189000000000000029,56.772727779135081505
0.190000000000000030,55.776750278236626457
0.191000000000000031,54.792898768463530246
0.192000000000000032,53.821181428467070873
0.193000000000000033,52.861666070290269204
0.194000000000000034,51.914464842167788561
0.195000000000000034,50.979719570948518026
0.196000000000000035,50.057588254868996103
0.197000000000000036,49.148233061131733734
0.198000000000000037,48.251810045899759416
0.199000000000000038,47.368460698491496430
0.200000000000000039,46.498305316894089856
0.201000000000000040,45.641438147320613439
0.202000000000000041,44.797924164833197835
0.203000000000000042,43.967797333025394835
0.204000000000000042,43.151060156167972082
0.205000000000000043,42.347684324785234367
0.206000000000000044,41.557612253105531863
0.207000000000000045,40.780759312131635852
0.208000000000000046,40.017016573296658066
0.209000000000000047,39.266253893129054120
0.210000000000000048,38.528323187593535692
0.211000000000000049,37.803061764586388449
0.212000000000000050,37.090295603438853789
0.213000000000000050,36.389842490433252920
0.214000000000000051,35.701514938644862696
0.215000000000000052,35.025122838443714102
0.216000000000000053,34.360475801414267494
0.217000000000000054,33.707385175083850015
0.218000000000000055,33.065665718600421030
0.219000000000000056,32.435136940349600820
0.220000000000000057,31.815624107492549655
0.221000000000000058,31.206958944635470488
0.222000000000000058,30.608980044424953348
0.223000000000000059,30.021533016954844442
0.224000000000000060,29.444470407621775365
0.225000000000000061,28.877651414646795303
0.226000000000000062,28.320941438051782768
0.227000000000000063,27.774211491602024182
0.228000000000000064,27.237337508250853091
0.229000000000000065,26.710199568089866062
0.230000000000000066,26.192681075847410455
0.231000000000000066,25.684667912703680770
0.232000000000000067,25.186047584705743674
0.233000000000000068,24.696708387458397027
0.234000000000000069,24.216538604112542998
0.235000000000000070,23.745425751036464135
0.236000000000000071,23.283255882988022734
0.237000000000000072,22.829912967149784464
0.238000000000000073,22.385278333076492174
0.239000000000000073,21.949230203460292188
0.240000000000000074,21.521643308656919658
0.241000000000000075,21.102388586150567562
0.242000000000000076,20.691332964566431230
0.243000000000000077,20.288339230471112984
0.244000000000000078,19.893265975026842796
0.245000000000000079,19.505967616579511059
0.246000000000000080,19.126294494454462836
0.247000000000000081,18.754093028594514436
0.248000000000000081,18.389205939192923012
0.249000000000000082,18.031472520133856818
0.250000000000000111,17.680728959842625159
0.251000000000000112,17.336808703053211644
0.252000000000000113,16.999542847007436563
0.253000000000000114,16.668760565697134268
0.254000000000000115,16.344289555932210334
0.255000000000000115,16.025956499254370158
0.256000000000000116,15.713587534005617030
0.257000000000000117,15.407008732191798117
0.258000000000000118,15.106046576146280103
0.259000000000000119,14.810528430386671772
0.260000000000000120,14.520283004461379761
0.261000000000000121,14.235140802996202325
0.262000000000000122,13.954934559566364527
0.263000000000000123,13.679499651432488250
0.264000000000000123,13.408674492584310656
0.265000000000000124,13.142300902930051265
0.266000000000000125,12.880224451848684808
0.267000000000000126,12.622294774684416296
0.268000000000000127,12.368365861105118597
0.269000000000000128,12.118296314568087979
0.270000000000000129,11.871949582435721737
0.271000000000000130,11.629194156559767848
0.272000000000000131,11.389903744406080222
0.273000000000000131,11.153957411020865464
0.274000000000000132,10.921239692346073724
0.275000000000000133,10.691640680574600708
0.276000000000000134,10.465056082397456549
0.277000000000000135,10.241387251134934644
0.278000000000000136,10.020541193863031992
0.279000000000000137,9.802430554746287328
0.280000000000000138,9.586973575869949471
0.281000000000000139,9.374094036928417140
0.282000000000000139,9.163721175175457034
0.283000000000000140,8.955789587074940883
0.284000000000000141,8.750239113110909628
0.285000000000000142,8.547014707222995611
0.286000000000000143,8.346066292329487268
0.287000000000000144,8.147348603386525667
0.288000000000000145,7.950821019408562229
0.289000000000000146,7.756447385844950304
0.290000000000000147,7.564195828669083355
0.291000000000000147,7.374038561493273747
0.292000000000000148,7.185951686973258923
0.293000000000000149,6.999914993713581168
0.294000000000000150,6.815911749828307720
0.295000000000000151,6.633928494252548269
0.296000000000000152,6.453954826838938175
0.297000000000000153,6.275983198210789205
0.298000000000000154,6.100008700280064922
0.299000000000000155,5.926028858274625222
0.300000000000000155,5.754043425055564320
0.301000000000000156,5.584054178442486638
0.302000000000000157,5.416064722202104775
0.303000000000000158,5.250080291294933588
0.304000000000000159,5.086107561915111930
0.305000000000000160,4.924154466800803931
0.306000000000000161,4.764230016236824738
0.307000000000000162,4.606344125117287192
0.308000000000000163,4.450507446384816213
0.309000000000000163,4.296731211113639759
0.310000000000000164,4.145027075457133670
0.311000000000000165,3.995406974636243724
0.312000000000000166,3.847882984103486059
0.313000000000000167,3.702467187977970919
0.314000000000000168,3.559171554810364402
0.315000000000000169,3.418007820702416488
0.316000000000000170,3.278987379774054745
0.317000000000000171,3.142121181941801122
0.318000000000000171,3.007419637945448088
0.319000000000000172,2.874892531535155005
0.320000000000000173,2.744548938709078900
0.321000000000000174,2.616397153871332648
0.322000000000000175,2.490444622761965210
0.323000000000000176,2.366697881994704211
0.324000000000000177,2.245162505023879707
0.325000000000000178,2.125843054349761729
0.326000000000000179,2.008743039760667148
0.327000000000000179,1.893864882401479433
0.328000000000000180,1.781209884450492442
0.329000000000000181,1.670778204180589865
0.330000000000000182,1.562568836176138065
0.331000000000000183,1.456579596473381866
0.332000000000000184,1.352807112390061794
0.333000000000000185,1.251246816808758044
0.334000000000000186,1.151892946678235496
0.335000000000000187,1.054738545497958757
0.336000000000000187,0.959775469552361926
0.337000000000000188,0.866994397664136995
0.338000000000000189,0.776384844238497962
0.339000000000000190,0.687935175374318142
0.340000000000000191,0.601632627822288990
0.341000000000000192,0.517463330574841396
0.342000000000000193,0.435412328877906929
0.343000000000000194,0.355463610460004853
0.344000000000000195,0.277600133780363634
0.345000000000000195,0.201803858103400124
0.346000000000000196,0.128055775213941209
0.347000000000000197,0.056335942593625309
0.348000000000000198,-0.013376482114000022
0.349000000000000199,-0.081103205515448945
0.350000000000000200,-0.146866761915162208
0.351000000000000201,-0.210690475951088807
0.352000000000000202,-0.272598424562784936
0.353000000000000203,-0.332615398429932430
0.354000000000000203,-0.390766863012223797
0.355000000000000204,-0.447078919314534751
0.356000000000000205,-0.501578264494701331
0.357000000000000206,-0.554292152424494589
0.358000000000000207,-0.605248354307529213
0.359000000000000208,-0.654475119451756626
0.360000000000000209,-0.702001136287659699
0.361000000000000210,-0.747855493717034303
0.362000000000000210,-0.792067642871465694
0.363000000000000211,-0.834667359353522542
0.364000000000000212,-0.875684706028236781
0.365000000000000213,-0.915149996426793733
0.366000000000000214,-0.953093758819189674
0.367000000000000215,-0.989546701007399276
0.368000000000000216,-1.024539675885863144
0.369000000000000217,-1.058103647811108106
0.370000000000000218,-1.090269659818149606
0.371000000000000218,-1.121068801716622376
0.372000000000000219,-1.150532179095784535
0.373000000000000220,-1.178690883263410649
0.374000000000000221,-1.205575962139884272
0.375000000000000222,-1.231218392125186911
0.376000000000000223,-1.255649050953314028
0.377000000000000224,-1.278898691545154787
0.378000000000000225,-1.300997916868084747
0.379000000000000226,-1.321977155807549043
0.380000000000000226,-1.341866640053408277
0.381000000000000227,-1.360696382001028715
0.382000000000000228,-1.378496153665107027
0.383000000000000229,-1.395295466601744305
0.384000000000000230,-1.411123552832362460
0.385000000000000231,-1.426009346761262897
0.386000000000000232,-1.439981468076625859
0.387000000000000233,-1.453068205623465392
0.388000000000000234,-1.465297502235216154
0.389000000000000234,-1.476696940509625966
0.390000000000000235,-1.487293729513106788
0.391000000000000236,-1.497114692396754876
0.392000000000000237,-1.506186254906154431
0.393000000000000238,-1.514534434766240834
0.394000000000000239,-1.522184831921601589
0.395000000000000240,-1.529162619612017382
0.396000000000000241,-1.535492536262316632
0.397000000000000242,-1.541198878165109143
0.398000000000000242,-1.546305492934624937
0.399000000000000243,-1.550835773709305032
0.400000000000000244,-1.554812654080707901
0.401000000000000245,-1.558258603725957814
0.402000000000000246,-1.561195624720744801
0.403000000000000247,-1.563645248509938579
0.404000000000000248,-1.565628533512669618
0.405000000000000249,-1.567166063338861104
0.406000000000000250,-1.568277945594135137
0.407000000000000250,-1.568983811250234783
0.408000000000000251,-1.569302814558152237
0.409000000000000252,-1.569253633481387578
0.410000000000000253,-1.568854470626965814
0.411000000000000254,-1.568123054652094339
0.412000000000000255,-1.567076642124596075
0.413000000000000256,-1.565732019815675669
0.414000000000000257,-1.564105507403691586
0.415000000000000258,-1.562212960568265974
0.416000000000000258,-1.560069774454140523
0.417000000000000259,-1.557690887484819875
0.418000000000000260,-1.555090785506310080
0.419000000000000261,-1.552283506241783906
0.420000000000000262,-1.549282644038360024
0.421000000000000263,-1.546101354887740698
0.422000000000000264,-1.542752361702776742
0.423000000000000265,-1.539247959832618751
0.424000000000000266,-1.535600022799582298
0.425000000000000266,-1.531820008241173481
0.426000000000000267,-1.527918964041451222
0.427000000000000268,-1.523907534636180117
0.428000000000000269,-1.519795967476797349
0.429000000000000270,-1.515594119638751236
0.430000000000000271,-1.511311464560102680
0.431000000000000272,-1.506957098896956282
0.432000000000000273,-1.502539749482578735
0.433000000000000274,-1.498067780377692060
0.434000000000000274,-1.493549199999786747
0.435000000000000275,-1.488991668319823880
0.436000000000000276,-1.484402504115168275
0.437000000000000277,-1.479788692267962835
0.438000000000000278,-1.475156891098709622
0.439000000000000279,-1.470513439725209537
0.440000000000000280,-1.465864365437410832
0.441000000000000281,-1.461215391079193626
0.442000000000000282,-1.456571942428567912
0.443000000000000282,-1.451939155568003015
0.444000000000000283,-1.447321884237256828
0.445000000000000284,-1.442724707161217257
0.446000000000000285,-1.438151935345787225
0.447000000000000286,-1.433607619335255379
0.448000000000000287,-1.429095556424742286
0.449000000000000288,-1.424619297821969610
0.450000000000000289,-1.420182155752643949
0.451000000000000290,-1.415787210504291016
0.452000000000000290,-1.411437317403623215
0.453000000000000291,-1.407135113722781883
0.454000000000000292,-1.402883025510224924
0.455000000000000293,-1.398683274342201077
0.456000000000000294,-1.394537883991112226
0.457000000000000295,-1.390448687007333817
0.458000000000000296,-1.386417331211270199
0.459000000000000297,-1.382445286092779391
0.460000000000000298,-1.378533849115233911
0.461000000000000298,-1.374684151921837572
0.462000000000000299,-1.370897166441952697
0.463000000000000300,-1.367173710895453365
0.464000000000000301,-1.363514455693363825
0.465000000000000302,-1.359919929233188052
0.466000000000000303,-1.356390523587534869
0.467000000000000304,-1.352926500084919770
0.468000000000000305,-1.349527994781654305
0.469000000000000306,-1.346195023824041215
0.470000000000000306,-1.342927488700216054
0.471000000000000307,-1.339725181381043129
0.472000000000000308,-1.336587789349790167
0.473000000000000309,-1.333514900520315738
0.474000000000000310,-1.330506008043661259
0.475000000000000311,-1.327560515003133101
0.476000000000000312,-1.324677738998009557
0.477000000000000313,-1.321856916616157784
0.478000000000000314,-1.319097207795929760
0.479000000000000314,-1.316397700077879929
0.480000000000000315,-1.313757412746814568
0.481000000000000316,-1.311175300864936277
0.482000000000000317,-1.308650259196779686
0.483000000000000318,-1.306181126026842332
0.484000000000000319,-1.303766686870790892
0.485000000000000320,-1.301405678081268613
0.486000000000000321,-1.299096790349357988
0.487000000000000322,-1.296838672102828216
0.488000000000000322,-1.294629932802299876
0.489000000000000323,-1.292469146136663749
0.490000000000000324,-1.290354853118936607
0.491000000000000325,-1.288285565083935991
0.492000000000000326,-1.286259766589128217
0.493000000000000327,-1.284275918220065149
0.494000000000000328,-1.282332459301843031
0.495000000000000329,-1.280427810518074860
0.496000000000000330,-1.278560376438829582
0.497000000000000330,-1.276728547959157911
0.498000000000000331,-1.274930704649607005
0.499000000000000332,-1.273165217020446160
0.500000000000000333,-1.271430448701089455
0.501000000000000334,-1.269724758536294740
0.502000000000000335,-1.268046502600843395
0.503000000000000336,-1.266394036134203649
0.504000000000000337,-1.264765715396880541
0.505000000000000338,-1.263159899450027490
0.506000000000000338,-1.261574951859974814
0.507000000000000339,-1.260009242329300561
0.508000000000000340,-1.258461148256028839
0.509000000000000341,-1.256929056222680252
0.510000000000000342,-1.255411363416651049
0.511000000000000343,-1.253906478983676465
0.512000000000000344,-1.252412825315871059
0.513000000000000345,-1.250928839275998961
0.514000000000000346,-1.249452973359578056
0.515000000000000346,-1.247983696796318487
0.516000000000000347,-1.246519496592519705
0.517000000000000348,-1.245058878515980627
0.518000000000000349,-1.243600368024885272
0.519000000000000350,-1.242142511142269257
0.520000000000000351,-1.240683875277493353
0.521000000000000352,-1.239223049996283743
0.522000000000000353,-1.237758647740717866
0.523000000000000353,-1.236289304500686859
0.524000000000000354,-1.234813680438212380
0.525000000000000355,-1.233330460466050438
0.526000000000000356,-1.231838354781938261
0.527000000000000357,-1.230336099359925717
0.528000000000000358,-1.228822456400035623
0.529000000000000359,-1.227296214737688684
0.530000000000000360,-1.225756190214092545
0.531000000000000361,-1.224201226008968080
0.532000000000000361,-1.222630192936815297
0.533000000000000362,-1.221041989707982056
0.534000000000000363,-1.219435543155734436
0.535000000000000364,-1.217809808430551533
0.536000000000000365,-1.216163769162767583
0.537000000000000366,-1.214496437594770217
0.538000000000000367,-1.212806854683797564
0.539000000000000368,-1.211094090176536797
0.540000000000000369,-1.209357242656496467
0.541000000000000369,-1.207595439565310125
0.542000000000000370,-1.205807837198900057
0.543000000000000371,-1.203993620679604692
0.544000000000000372,-1.202152003905197386
0.545000000000000373,-1.200282229475789109
0.546000000000000374,-1.198383568599539206
0.547000000000000375,-1.196455320978104142
0.548000000000000376,-1.194496814672731277
0.549000000000000377,-1.192507405951846566
0.550000000000000377,-1.190486479121030783
0.551000000000000378,-1.188433446336159882
0.552000000000000379,-1.186347747400592567
0.553000000000000380,-1.184228849547127371
0.554000000000000381,-1.182076247205531949
0.555000000000000382,-1.179889461756423730
0.556000000000000383,-1.177668041272136090
0.557000000000000384,-1.175411560245412712
0.558000000000000385,-1.173119619306475681
0.559000000000000385,-1.170791844929256031
0.560000000000000386,-1.168427889127373165
0.561000000000000387,-1.166027429140504612
0.562000000000000388,-1.163590167111760332
0.563000000000000389,-1.161115829756678597
0.564000000000000390,-1.158604168024378822
0.565000000000000391,-1.156054956751462637
0.566000000000000392,-1.153467994309181455
0.567000000000000393,-1.150843102244436977
0.568000000000000393,-1.148180124915048506
0.569000000000000394,-1.145478929119847722
0.570000000000000395,-1.142739403724053915
0.571000000000000396,-1.139961459280350864
0.572000000000000397,-1.137145027646185635
0.573000000000000398,-1.134290061597633015
0.574000000000000399,-1.131396534440308077
0.575000000000000400,-1.128464439617677950
0.576000000000000401,-1.125493790317168230
0.577000000000000401,-1.122484619074481493
0.578000000000000402,-1.119436977376397246
0.579000000000000403,-1.116350935262457211
0.580000000000000404,-1.113226580925885667
0.581000000000000405,-1.110064020313971334
0.582000000000000406,-1.106863376728331350
0.583000000000000407,-1.103624790425245639
0.584000000000000408,-1.100348418216427593
0.585000000000000409,-1.097034433070433135
0.586000000000000409,-1.093683023715005254
0.587000000000000410,-1.090294394240613141
0.588000000000000411,-1.086868763705350016
0.589000000000000412,-1.083406365741527377
0.590000000000000413,-1.079907448164066253
0.591000000000000414,-1.076372272580974343
0.592000000000000415,-1.072801114006075140
0.593000000000000416,-1.069194260474155111
0.594000000000000417,-1.065552012658739445
0.595000000000000417,-1.061874683492676885
0.596000000000000418,-1.058162597791607595
0.597000000000000419,-1.054416091880604700
0.598000000000000420,-1.050635513223981743
0.599000000000000421,-1.046821220058530955
0.600000000000000422,-1.042973581030236740
0.601000000000000423,-1.039092974834608274
0.602000000000000424,-1.035179789860767530
0.603000000000000425,-1.031234423839374026
0.604000000000000425,-1.027257283494469764
0.605000000000000426,-1.023248784199381589
0.606000000000000427,-1.019209349636758244
0.607000000000000428,-1.015139411462736119
0.608000000000000429,-1.011039408975491272
0.609000000000000430,-1.006909788788015403
0.610000000000000431,-1.002751004505394894
0.611000000000000432,-0.998563516406495211
0.612000000000000433,-0.994347791130170355
0.613000000000000433,-0.990104301366054429
0.614000000000000434,-0.985833525549942302
