# mos2-001_TYRSCA-AC
# h[nm],U(h)[kJ/mol]
0.200000000000000011,66.271397478603404352
0.201000000000000012,65.661610653196731846
0.202000000000000013,64.270670617973280514
0.203000000000000014,62.547421709543016277
0.204000000000000015,60.740104720602076327
0.205000000000000016,58.971356616872029122
0.206000000000000016,57.288819714118645265
0.207000000000000017,55.698474267643746316
0.208000000000000018,54.185902225761878981
0.209000000000000019,52.729261911081131586
0.210000000000000020,51.306689600485412939
0.211000000000000021,49.900056503328620749
0.212000000000000022,48.496430938644763842
0.213000000000000023,47.088173808593033698
0.214000000000000024,45.672291193603996362
0.215000000000000024,44.249450930563973827
0.216000000000000025,42.822917531724002060
0.217000000000000026,41.397554507255492240
0.218000000000000027,39.978972106865974467
0.219000000000000028,38.572852012412525369
0.220000000000000029,37.184451407004203816
0.221000000000000030,35.818271822631018608
0.222000000000000031,34.477869362724568703
0.223000000000000032,33.165779516020243989
0.224000000000000032,31.883529832269879023
0.225000000000000033,30.631715820985000676
0.226000000000000034,29.410118600171347936
0.227000000000000035,28.217846419470539843
0.228000000000000036,27.053485796546180353
0.229000000000000037,25.915251384561322823
0.230000000000000038,24.801126692929337025
0.231000000000000039,23.708990350903583533
0.232000000000000040,22.636724722446352587
0.233000000000000040,21.582305371500833502
0.234000000000000041,20.543871178149185397
0.235000000000000042,19.519775866373592521
0.236000000000000043,18.508622374545431910
0.237000000000000044,17.509281930725922649
0.238000000000000045,16.520899933326958831
0.239000000000000046,15.542890825836774837
0.240000000000000047,14.574924128932462253
0.241000000000000048,13.616903685654445866
0.242000000000000048,12.668942011378920398
0.243000000000000049,11.731331441191992226
0.244000000000000050,10.804513549687097651
0.245000000000000051,9.889048095101799163
0.246000000000000052,8.985582520783847116
0.247000000000000053,8.094822839194947051
0.248000000000000054,7.217506531775397249
0.249000000000000055,6.354377924950539658
0.250000000000000056,5.506166349893864442
0.251000000000000056,4.673567261811522044
0.252000000000000057,3.857226383103117939
0.253000000000000058,3.057726842819327384
0.254000000000000059,2.275579211006294233
0.255000000000000060,1.511214269180573666
0.256000000000000061,0.764978315554029398
0.257000000000000062,0.037130773923058545
0.258000000000000063,-0.672156143432710573
0.259000000000000064,-1.362795977639868594
0.260000000000000064,-2.034785030025880737
0.261000000000000065,-2.688198088905054739
0.262000000000000066,-3.323183121396090289
0.263000000000000067,-3.939955161431730968
0.264000000000000068,-4.538789608450395363
0.265000000000000069,-5.120015132694433646
0.266000000000000070,-5.684006363341387313
0.267000000000000071,-6.231176515505558733
0.268000000000000071,-6.761970091988173337
0.269000000000000072,-7.276855775950711980
0.270000000000000073,-7.776319611766493445
0.271000000000000074,-8.260858553421467576
0.272000000000000075,-8.730974443168598498
0.273000000000000076,-9.187168467811211769
0.274000000000000077,-9.629936126072927038
0.275000000000000078,-10.059762728034110424
0.276000000000000079,-10.477119436572696287
0.277000000000000079,-10.882459851111830673
0.278000000000000080,-11.276217125690878973
0.279000000000000081,-11.658801606376055560
0.280000000000000082,-12.030598967227330576
0.281000000000000083,-12.391968819353426312
0.282000000000000084,-12.743243763921480394
0.283000000000000085,-13.084728857247972300
0.284000000000000086,-13.416701454187421660
0.285000000000000087,-13.739411394859766702
0.286000000000000087,-14.053081499228573747
0.287000000000000088,-14.357908334071662892
0.288000000000000089,-14.654063217392831575
0.289000000000000090,-14.941693426233337405
0.290000000000000091,-15.220923575081746648
0.291000000000000092,-15.491857133590912099
0.292000000000000093,-15.754578054028041123
0.293000000000000094,-16.009152480760356241
0.294000000000000095,-16.255630516064606184
0.295000000000000095,-16.494048018605816708
0.296000000000000096,-16.724428413020085316
0.297000000000000097,-16.946784491129868400
0.298000000000000098,-17.161120187389855118
0.299000000000000099,-17.367432313185567239
0.300000000000000100,-17.565712236566945137
0.301000000000000101,-17.755947495880676001
0.302000000000000102,-17.938123337554880976
0.303000000000000103,-18.112224169981836042
0.304000000000000103,-18.278234927028314871
0.305000000000000104,-18.436142336178480861
0.306000000000000105,-18.585936087676316220
0.307000000000000106,-18.727609902282971177
0.308000000000000107,-18.861162496401064459
0.309000000000000108,-18.986598444343208314
0.310000000000000109,-19.103928938440052576
0.311000000000000110,-19.213172448496248279
0.312000000000000111,-19.314355282817519566
0.313000000000000111,-19.407512053650144424
0.314000000000000112,-19.492686050404266496
0.315000000000000113,-19.569929524476968652
0.316000000000000114,-19.639303889858240382
0.317000000000000115,-19.700879843995959817
0.318000000000000116,-19.754737413623143283
0.319000000000000117,-19.800965930415138416
0.320000000000000118,-19.839663941453682838
0.321000000000000119,-19.870939059532915394
0.322000000000000119,-19.894907758355223848
0.323000000000000120,-19.911695117636917018
0.324000000000000121,-19.921434523080527867
0.325000000000000122,-19.924267326075323581
0.326000000000000123,-19.920342467865925329
0.327000000000000124,-19.909816072783364405
0.328000000000000125,-19.892851014968641721
0.329000000000000126,-19.869616462837733195
0.330000000000000127,-19.840287405343044469
0.331000000000000127,-19.805044163882559616
0.332000000000000128,-19.764071893496257815
0.333000000000000129,-19.717560076772599587
0.334000000000000130,-19.665702013668163062
0.335000000000000131,-19.608694310222890778
0.336000000000000132,-19.546736368932634775
0.337000000000000133,-19.480029883322988127
0.338000000000000134,-19.408778339053199602
0.339000000000000135,-19.333186523668889123
0.340000000000000135,-19.253460046917414417
0.341000000000000136,-19.169804873341298901
0.342000000000000137,-19.082426868673820763
0.343000000000000138,-18.991531361376651432
0.344000000000000139,-18.897322720484172720
0.345000000000000140,-18.800003950751086990
0.346000000000000141,-18.699776305941590238
0.347000000000000142,-18.596838920947558194
0.348000000000000143,-18.491388463282994792
0.349000000000000143,-18.383618804368460076
0.350000000000000144,-18.273720710896533603
0.351000000000000145,-18.161881556453799647
0.352000000000000146,-18.048285053469061978
0.353000000000000147,-17.933111005458965082
0.354000000000000148,-17.816535079453032608
0.355000000000000149,-17.698728598397533318
0.356000000000000150,-17.579858353263848159
0.357000000000000151,-17.460086434519737963
0.358000000000000151,-17.339570082562090647
0.359000000000000152,-17.218461556656464495
0.360000000000000153,-17.096908021881866091
0.361000000000000154,-16.975051453538675617
0.362000000000000155,-16.853028558442055385
0.363000000000000156,-16.730970712494123376
0.364000000000000157,-16.609003913902924410
0.365000000000000158,-16.487248751397078905
0.366000000000000159,-16.365820386768728412
0.367000000000000159,-16.244828551066738953
0.368000000000000160,-16.124377553754204229
0.369000000000000161,-16.004566304140265487
0.370000000000000162,-15.885488344395531257
0.371000000000000163,-15.767231893462561487
0.372000000000000164,-15.649879901177342845
0.373000000000000165,-15.533510111925471264
0.374000000000000166,-15.418195137165593422
0.375000000000000167,-15.304002536164455606
0.376000000000000167,-15.190994904300850976
0.377000000000000168,-15.079229968310489340
0.378000000000000169,-14.968760687859704817
0.379000000000000170,-14.859635362853362395
0.380000000000000171,-14.751897745900075520
0.381000000000000172,-14.645587159377374320
0.382000000000000173,-14.540738616558495977
0.383000000000000174,-14.437382946283486618
0.384000000000000175,-14.335546920677163740
0.385000000000000175,-14.235253385438010554
0.386000000000000176,-14.136521392243045270
0.387000000000000177,-14.039366332834664064
0.388000000000000178,-13.943800074377241671
0.389000000000000179,-13.849831095691939709
0.390000000000000180,-13.757464623999291931
0.391000000000000181,-13.666702771820116169
0.392000000000000182,-13.577544673705471467
0.393000000000000183,-13.489986622486672019
0.394000000000000183,-13.404022204756106618
0.395000000000000184,-13.319642435308967521
0.396000000000000185,-13.236835890294596396
0.397000000000000186,-13.155588838844920474
0.398000000000000187,-13.075885372964801689
0.399000000000000188,-12.997707535486762609
0.400000000000000189,-12.921035445908994888
0.401000000000000190,-12.845847423951818556
0.402000000000000191,-12.772120110683271577
0.403000000000000191,-12.699828587079267095
0.404000000000000192,-12.628946489898375205
0.405000000000000193,-12.559446124764580333
0.406000000000000194,-12.491298576364915363
0.407000000000000195,-12.424473815681022160
0.408000000000000196,-12.358940804185680307
0.409000000000000197,-12.294667594946721678
0.410000000000000198,-12.231621430591449240
0.411000000000000199,-12.169768838094606522
0.412000000000000199,-12.109075720362801221
0.413000000000000200,-12.049507444597193029
0.414000000000000201,-11.991028927424652650
0.415000000000000202,-11.933604716795580103
0.416000000000000203,-11.877199070654167912
0.417000000000000204,-11.821776032393600531
0.418000000000000205,-11.767299503115246750
0.419000000000000206,-11.713733310716975211
0.420000000000000207,-11.661041275841046883
0.421000000000000207,-11.609187274717466920
0.422000000000000208,-11.558135298942909586
0.423000000000000209,-11.507849512240195367
0.424000000000000210,-11.458294304246674500
0.425000000000000211,-11.409434341383711597
0.426000000000000212,-11.361234614862631531
0.427000000000000213,-11.313660485885119300
0.428000000000000214,-11.266677728098978051
0.429000000000000214,-11.220252567371968411
0.430000000000000215,-11.174351718948665635
0.431000000000000216,-11.128942422056852024
0.432000000000000217,-11.083992472031365395
0.433000000000000218,-11.039470250024425724
0.434000000000000219,-10.995344750372566978
0.435000000000000220,-10.951585605690814518
0.436000000000000221,-10.908163109765395049
0.437000000000000222,-10.865048238316514784
0.438000000000000222,-10.822212667702922673
0.439000000000000223,-10.779628791639975560
0.440000000000000224,-10.737269736002625464
0.441000000000000225,-10.695109371784550234
0.442000000000000226,-10.653122326284185206
0.443000000000000227,-10.611283992587662084
0.444000000000000228,-10.569570537418270462
0.445000000000000229,-10.527958907420948975
0.446000000000000230,-10.486426833949561654
0.447000000000000230,-10.444952836423832210
0.448000000000000231,-10.403516224321533556
0.449000000000000232,-10.362097097870561768
0.450000000000000233,-10.320676347504242898
0.451000000000000234,-10.279235652142075352
0.452000000000000235,-10.237757476356687647
0.453000000000000236,-10.196225066486450217
0.454000000000000237,-10.154622445752039539
0.455000000000000238,-10.112934408433408962
0.456000000000000238,-10.071146513162625880
0.457000000000000239,-10.029245075386238994
0.458000000000000240,-9.987217159049603055
0.459000000000000241,-9.945050567553865406
0.460000000000000242,-9.902733834035053917
0.461000000000000243,-9.860256211013016525
0.462000000000000244,-9.817607659456626834
0.463000000000000245,-9.774778837309824553
0.464000000000000246,-9.731761087522178499
0.465000000000000246,-9.688546425625437664
0.466000000000000247,-9.645127526896615677
0.467000000000000248,-9.601497713146397217
0.468000000000000249,-9.557650939170329707
0.469000000000000250,-9.513581778898744901
0.470000000000000251,-9.469285411279983578
0.471000000000000252,-9.424757605930050630
0.472000000000000253,-9.379994708580628782
0.473000000000000254,-9.334993626355680973
0.474000000000000254,-9.289751812905944206
0.475000000000000255,-9.244267253428997577
0.476000000000000256,-9.198538449601509015
0.477000000000000257,-9.152564404448938262
0.478000000000000258,-9.106344607176707129
0.479000000000000259,-9.059879017985828398
0.480000000000000260,-9.013168052894604543
0.481000000000000261,-8.966212568587012655
0.482000000000000262,-8.919013847307271092
0.483000000000000262,-8.871573581819026444
0.484000000000000263,-8.823893860446439419
0.485000000000000264,-8.775977152213595645
0.486000000000000265,-8.727826292097647709
0.487000000000000266,-8.679444466409981018
0.488000000000000267,-8.630835198319035229
0.489000000000000268,-8.582002333527356086
0.490000000000000269,-8.532950026114560771
0.491000000000000270,-8.483682724557255028
0.492000000000000270,-8.434205157935858566
0.493000000000000271,-8.384522322337833344
0.494000000000000272,-8.334639467465823515
0.495000000000000273,-8.284562083458533621
0.496000000000000274,-8.234295887931676106
0.497000000000000275,-8.183846813245342133
0.498000000000000276,-8.133220994003773185
0.499000000000000277,-8.082424754792819854
0.500000000000000222,-8.031464598159651302
0.501000000000000334,-7.980347192839003512
0.502000000000000224,-7.929079362229444428
0.503000000000000336,-7.877668073122691794
0.504000000000000226,-7.826120424688779664
0.505000000000000338,-7.774443637718872147
0.506000000000000227,-7.722645044127742331
0.507000000000000339,-7.670732076716864967
0.508000000000000229,-7.618712259199226011
0.509000000000000341,-7.566593196486065764
0.510000000000000231,-7.514382565235976585
0.511000000000000343,-7.462088104665771660
0.512000000000000233,-7.409717607622885893
0.513000000000000345,-7.357278911918124997
0.514000000000000234,-7.304779891918032675
0.515000000000000346,-7.252228450394918369
0.516000000000000236,-7.199632510633411364
0.517000000000000348,-7.147000008791171588
0.518000000000000238,-7.094338886511967424
0.519000000000000350,-7.041657083788493310
0.520000000000000240,-6.988962532072588552
0.521000000000000352,-6.936263147630010728
0.522000000000000242,-6.883566825136957945
0.523000000000000353,-6.830881431515169133
0.524000000000000243,-6.778214800002570151
0.525000000000000355,-6.725574724455992914
0.526000000000000245,-6.672968953882673304
0.527000000000000357,-6.620405187196780616
0.528000000000000247,-6.567891068197589277
0.529000000000000359,-6.515434180765270256
0.530000000000000249,-6.463042044270729036
0.531000000000000361,-6.410722109195388541
0.532000000000000250,-6.358481752957198196
0.533000000000000362,-6.306328275938591688
0.534000000000000252,-6.254268897712591979
0.535000000000000364,-6.202310753462774606
0.536000000000000254,-6.150460890593192786
0.537000000000000366,-6.098726265523756851
0.538000000000000256,-6.047113740667414028
0.539000000000000368,-5.995630081584363502
0.540000000000000258,-5.944281954309734495
0.541000000000000369,-5.893075922849922321
0.542000000000000259,-5.842018446844014612
0.543000000000000371,-5.791115879385578147
0.544000000000000261,-5.740374465001108817
0.545000000000000373,-5.689800337780654083
0.546000000000000263,-5.639399519656803861
0.547000000000000375,-5.589177918827560987
0.548000000000000265,-5.539141328319587387
0.549000000000000377,-5.489295424687126612
0.550000000000000266,-5.439645766843277386
0.551000000000000378,-5.390197795019085802
0.552000000000000268,-5.340956829847008258
0.553000000000000380,-5.291928071564504954
0.554000000000000270,-5.243116599334260997
0.555000000000000382,-5.194527370676949474
0.556000000000000272,-5.146165221013153435
0.557000000000000384,-5.098034863310378917
0.558000000000000274,-5.050140887831995329
0.559000000000000385,-5.002487761984053982
0.560000000000000275,-4.955079830256947204
0.561000000000000387,-4.907921314258064882
0.562000000000000277,-4.861016312832346031
0.563000000000000389,-4.814368802267191327
0.564000000000000279,-4.767982636578634192
0.565000000000000391,-4.721861547875406906
0.566000000000000281,-4.676009146797892591
0.567000000000000393,-4.630428923028732768
0.568000000000000282,-4.585124245872270521
0.569000000000000394,-4.540098364899581185
0.570000000000000284,-4.495354410656526412
0.571000000000000396,-4.450895395431674118
0.572000000000000286,-4.406724214081632063
0.573000000000000398,-4.362843644910723739
0.574000000000000288,-4.319256350602748817
0.575000000000000400,-4.275964879201902491
0.576000000000000290,-4.232971665140608408
0.577000000000000401,-4.190279030311567787
0.578000000000000291,-4.147889185181839800
0.579000000000000403,-4.105804229946427242
0.580000000000000293,-4.064026155719301592
0.581000000000000405,-4.022556845759364563
0.582000000000000295,-3.981398076729571134
0.583000000000000407,-3.940551519986699613
0.584000000000000297,-3.900018742900106528
0.585000000000000409,-3.859801210197178811
0.586000000000000298,-3.819900285333846401
0.587000000000000410,-3.780317231887978302
0.588000000000000300,-3.741053214974185970
0.589000000000000412,-3.702109302677940583
0.590000000000000302,-3.663486467507597322
0.591000000000000414,-3.625185587862468140
0.592000000000000304,-3.587207449515500635
0.593000000000000416,-3.549552747108834616
0.594000000000000306,-3.512222085660987148
0.595000000000000417,-3.475215982083964317
0.596000000000000307,-3.438534866709114901
0.597000000000000419,-3.402179084820223576
0.598000000000000309,-3.366148898192675265
0.599000000000000421,-3.330444486637294865
0.600000000000000311,-3.295065949547826278
0.601000000000000423,-3.260013307450666531
0.602000000000000313,-3.225286503556016982
0.603000000000000425,-3.190885405309020761
0.604000000000000314,-3.156809805940270941
0.605000000000000426,-3.123059426014235029
0.606000000000000316,-3.089633914975085105
0.607000000000000428,-3.056532852688623958
0.608000000000000318,-3.023755750979781443
0.609000000000000430,-2.991302055164499762
0.610000000000000320,-2.959171145575543171
0.611000000000000432,-2.927362339081125420
0.612000000000000322,-2.895874890595954376
0.613000000000000433,-2.864707994583678197
0.614000000000000323,-2.833860786550328470
0.615000000000000435,-2.803332344527937892
0.616000000000000325,-2.773121690547850182
0.617000000000000437,-2.743227792103059670
0.618000000000000327,-2.713649563599123127
0.619000000000000439,-2.684385867793015912
0.620000000000000329,-2.655435517219582042
0.621000000000000441,-2.626797275604990212
0.622000000000000330,-2.598469859266871573
0.623000000000000442,-2.570451938500598388
0.624000000000000332,-2.542742138951502362
0.625000000000000444,-2.515339042972468242
0.626000000000000334,-2.488241190966758332
0.627000000000000446,-2.461447082715593648
0.628000000000000336,-2.434955178690331401
0.629000000000000448,-2.408763901348849323
0.630000000000000338,-2.382871636416044048
0.631000000000000449,-2.357276734147998098
0.632000000000000339,-2.331977510579848811
0.633000000000000451,-2.306972248756952837
0.634000000000000341,-2.282259199949344897
0.635000000000000453,-2.257836584849199468
0.636000000000000343,-2.233702594751264314
0.637000000000000455,-2.209855392716054912
0.638000000000000345,-2.186293114715814223
0.639000000000000457,-2.163013870762973578
0.640000000000000346,-2.140015746021267429
0.641000000000000458,-2.117296801899203107
0.642000000000000348,-2.094855077126047238
0.643000000000000460,-2.072688588810097432
0.644000000000000350,-2.050795333479427107
0.645000000000000462,-2.029173288104860085
0.646000000000000352,-2.007820411105412539
0.647000000000000464,-1.986734643335971828
0.648000000000000353,-1.965913909057504627
0.649000000000000465,-1.945356116889512821
0.650000000000000355,-1.925059160745124398
0.651000000000000467,-1.905020920748530910
0.652000000000000357,-1.885239264135127213
0.653000000000000469,-1.865712046134185398
0.654000000000000359,-1.846437110834340034
0.655000000000000471,-1.827412292031776575
0.656000000000000361,-1.808635414061414703
0.657000000000000473,-1.790104292610984915
0.658000000000000362,-1.771816735518288555
0.659000000000000474,-1.753770543551600669
