# mos2-001_ETHENE-AC
# h[nm],U(h)[kJ/mol]
0.149999999999999994,77.706646259911707375
0.150999999999999995,75.608612488455719358
0.151999999999999996,74.018885075332576662
0.152999999999999997,72.519479310498454083
0.153999999999999998,70.985934429293124026
0.154999999999999999,69.416034753853494976
0.156000000000000000,67.844341122274826716
0.157000000000000001,66.304495705766640867
0.158000000000000002,64.816553792538755374
0.159000000000000002,63.386200696395761156
0.160000000000000003,62.008617808210736655
0.161000000000000004,60.673295017175050248
0.162000000000000005,59.368123776219604792
0.163000000000000006,58.082218778531341741
0.164000000000000007,56.807475812677765248
0.165000000000000008,55.539112952606956242
0.166000000000000009,54.275507084281706227
0.167000000000000010,53.017615554798808830
0.168000000000000010,51.768214392707633920
0.169000000000000011,50.531118061875780256
0.170000000000000012,49.310485068556189958
0.171000000000000013,48.110264733948554294
0.172000000000000014,46.933804306105962212
0.173000000000000015,45.783611231314331746
0.174000000000000016,44.661250765413385011
0.175000000000000017,43.567351875517829285
0.176000000000000018,42.501692416773742877
0.177000000000000018,41.463336056260082785
0.178000000000000019,40.450796930939404206
0.179000000000000020,39.462212510536694765
0.180000000000000021,38.495509850048691192
0.181000000000000022,37.548554879606470536
0.182000000000000023,36.619278310097890028
0.183000000000000024,35.705774995698099872
0.184000000000000025,34.806376155138039508
0.185000000000000026,33.919695744225961676
0.186000000000000026,33.044653564174453209
0.187000000000000027,32.180478474684115042
0.188000000000000028,31.326695454469501101
0.189000000000000029,30.483100308904635511
0.190000000000000030,29.649725650096293350
0.191000000000000031,28.826801442918405627
0.192000000000000032,28.014712982805821895
0.193000000000000033,27.213958696491651779
0.194000000000000034,26.425109672997287191
0.195000000000000034,25.648772366516588761
0.196000000000000035,24.885555484222049216
0.197000000000000036,24.136041692201953168
0.198000000000000037,23.400764447819099701
0.199000000000000038,22.680189998542747531
0.200000000000000039,21.974704374345950697
0.201000000000000040,21.284605039465382958
0.202000000000000041,20.610096754651827666
0.203000000000000042,19.951291127161926653
0.204000000000000042,19.308209286504371960
0.205000000000000043,18.680787113256524634
0.206000000000000044,18.068882460303477444
0.207000000000000045,17.472283835291225529
0.208000000000000046,16.890720055164010205
0.209000000000000047,16.323870434233466398
0.210000000000000048,15.771375122790070478
0.211000000000000049,15.232845270916957503
0.212000000000000050,14.707872749568497994
0.213000000000000050,14.196039216327267951
0.214000000000000051,13.696924365200251472
0.215000000000000052,13.210113247416405358
0.216000000000000053,12.735202592835964452
0.217000000000000054,12.271806098954529674
0.218000000000000055,11.819558686490235999
0.219000000000000056,11.378119747268524264
0.220000000000000057,10.947175431790331146
0.221000000000000058,10.526440040817751864
0.222000000000000058,10.115656597926253824
0.223000000000000059,9.714596688699442595
0.224000000000000060,9.323059657535369027
0.225000000000000061,8.940871255357601299
0.226000000000000062,8.567881831331055409
0.227000000000000063,8.203964159402996614
0.228000000000000064,7.849010986528139888
0.229000000000000065,7.502932384162077639
0.230000000000000066,7.165652978356421343
0.231000000000000066,6.837109126856473651
0.232000000000000067,6.517246104250546068
0.233000000000000068,6.206015348670249843
0.234000000000000069,5.903371815984018056
0.235000000000000070,5.609271480016174927
0.236000000000000071,5.323669010188605277
0.237000000000000072,5.046515651219015908
0.238000000000000073,4.777757323194484762
0.239000000000000073,4.517332954524476030
0.240000000000000074,4.265173054996186153
0.241000000000000075,4.021198531428121115
0.242000000000000076,3.785319744247002571
0.243000000000000077,3.557435799693292378
0.244000000000000078,3.337434069275642123
0.245000000000000079,3.125189925521136836
0.246000000000000080,2.920566680978271545
0.247000000000000081,2.723415715789480274
0.248000000000000081,2.533576777925684809
0.249000000000000082,2.350878439328756286
0.250000000000000111,2.175138690701229116
0.251000000000000112,2.006165657479372477
0.252000000000000113,1.843758419587205877
0.253000000000000114,1.687707917861944740
0.254000000000000115,1.537797930528785439
0.255000000000000115,1.393806103755475423
0.256000000000000116,1.255505021102851781
0.257000000000000117,1.122663297579773456
0.258000000000000118,0.995046684984412066
0.259000000000000119,0.872419176245158967
0.260000000000000120,0.754544097543265124
0.261000000000000121,0.641185178088135688
0.262000000000000122,0.532107588507720441
0.263000000000000123,0.427078939898176468
0.264000000000000123,0.325870236636038813
0.265000000000000124,0.228256777083345019
0.266000000000000125,0.134018997302629728
0.267000000000000126,0.042943253838539919
0.268000000000000127,-0.045177457490060080
0.269000000000000128,-0.130542849012031309
0.270000000000000129,-0.213344756292113413
0.271000000000000130,-0.293766621625311253
0.272000000000000131,-0.371983046026565956
0.273000000000000131,-0.448159409214976989
0.274000000000000132,-0.522451556562413932
0.275000000000000133,-0.595005551506081254
0.276000000000000134,-0.665957491511556809
0.277000000000000135,-0.735433385314840593
0.278000000000000136,-0.803549088866838845
0.279000000000000137,-0.870410297148120904
0.280000000000000138,-0.936112588813384106
0.281000000000000139,-1.000741520460450840
0.282000000000000139,-1.064372767194860403
0.283000000000000140,-1.127072306074843988
0.284000000000000141,-1.188896638969767494
0.285000000000000142,-1.249893051344819872
0.286000000000000143,-1.310099903492627060
0.287000000000000144,-1.369546950765708759
0.288000000000000145,-1.428255689419863916
0.289000000000000146,-1.486239724753779745
0.290000000000000147,-1.543505158323504656
0.291000000000000147,-1.600050991117665689
0.292000000000000148,-1.655869539699815318
0.293000000000000149,-1.710946862454443274
0.294000000000000150,-1.765263193212092574
0.295000000000000151,-1.818793379674326305
0.296000000000000152,-1.871507324209226608
0.297000000000000153,-1.923370424741454254
0.298000000000000154,-1.974344013616030624
0.299000000000000155,-2.024385792470618561
0.300000000000000155,-2.073450261306260423
0.301000000000000156,-2.121489140099978243
0.302000000000000157,-2.168451781453803129
0.303000000000000158,-2.214285572922454204
0.304000000000000159,-2.258936327805965760
0.305000000000000160,-2.302348663332721479
0.306000000000000161,-2.344466365292954269
0.307000000000000162,-2.385232738311750644
0.308000000000000163,-2.424590941073875516
0.309000000000000163,-2.462484305930275674
0.310000000000000164,-2.498856642427393915
0.311000000000000165,-2.533652524405394679
0.312000000000000166,-2.566817560410397103
0.313000000000000167,-2.598298647258094007
0.314000000000000168,-2.628044206672369487
0.315000000000000169,-2.656004405002509561
0.316000000000000170,-2.682131356096417285
0.317000000000000171,-2.706379307475006435
0.318000000000000171,-2.728704810014932036
0.319000000000000172,-2.749066871403152312
0.320000000000000173,-2.767427093677512051
0.321000000000000174,-2.783749795213041445
0.322000000000000175,-2.798002117554154289
0.323000000000000176,-2.810154117528409046
0.324000000000000177,-2.820178845108497256
0.325000000000000178,-2.828052407515562194
0.326000000000000179,-2.833754020079643166
0.327000000000000179,-2.837266044391149933
0.328000000000000180,-2.838574014292385428
0.329000000000000181,-2.837666650269527135
0.330000000000000182,-2.834535862813374330
0.331000000000000183,-2.829176745322787845
0.332000000000000184,-2.821587557126834067
0.333000000000000185,-2.811769697201785156
0.334000000000000186,-2.799727669156603760
0.335000000000000187,-2.785469038055992996
0.336000000000000187,-2.769004379643692282
0.337000000000000188,-2.750347222520271195
0.338000000000000189,-2.729513983820107903
0.339000000000000190,-2.706523898920873528
0.340000000000000191,-2.681398945706328529
0.341000000000000192,-2.654163763889988203
0.342000000000000193,-2.624845569892312547
0.343000000000000194,-2.593474067749236056
0.344000000000000195,-2.560081356513425721
0.345000000000000195,-2.524701834593559902
0.346000000000000196,-2.487372101459592422
0.347000000000000197,-2.448130857124785287
0.348000000000000198,-2.407018799797779884
0.349000000000000199,-2.364078522080029110
0.350000000000000200,-2.319354406066353125
0.351000000000000201,-2.272892517688286596
0.352000000000000202,-2.224740500622339745
0.353000000000000203,-2.174947470067565725
0.354000000000000203,-2.123563906679361679
0.355000000000000204,-2.070641550929233965
0.356000000000000205,-2.016233298143350172
0.357000000000000206,-1.960393094456081897
0.358000000000000207,-1.903175833898342217
0.359000000000000208,-1.844637256824908977
0.360000000000000209,-1.784833849869224220
0.361000000000000210,-1.723822747599275118
0.362000000000000210,-1.661661636033535006
0.363000000000000211,-1.598408658161897922
0.364000000000000212,-1.534122321602940486
0.365000000000000213,-1.468861408515665934
0.366000000000000214,-1.402684887871400221
0.367000000000000215,-1.335651830179305222
0.368000000000000216,-1.267821324747506750
0.369000000000000217,-1.199252399550650328
0.370000000000000218,-1.130003943764286589
0.371000000000000218,-1.060134633016242223
0.372000000000000219,-0.989702857395827751
0.373000000000000220,-0.918766652252447580
0.374000000000000221,-0.847383631806853943
0.375000000000000222,-0.775610925589952704
0.376000000000000223,-0.703505117716703543
0.377000000000000224,-0.631122188995356437
0.378000000000000225,-0.558517461865619014
0.379000000000000226,-0.485745548153083628
0.380000000000000226,-0.412860299621471138
0.381000000000000227,-0.339914761298662438
0.382000000000000228,-0.266961127547687638
0.383000000000000229,-0.194050700849062036
0.384000000000000230,-0.121233853256552976
0.385000000000000231,-0.048559990484788207
0.386000000000000232,0.023922481416740627
0.387000000000000233,0.096166186851707136
0.388000000000000234,0.168124808978547258
0.389000000000000234,0.239753115579566828
0.390000000000000235,0.311006982554034306
0.391000000000000236,0.381843415093574612
0.392000000000000237,0.452220566600156471
0.393000000000000238,0.522097755408297504
0.394000000000000239,0.591435479374590400
0.395000000000000240,0.660195428398595685
0.396000000000000241,0.728340494940036165
0.397000000000000242,0.795834782597983015
0.398000000000000242,0.862643612817995509
0.399000000000000243,0.928733529793663637
0.400000000000000244,0.994072303629123355
0.401000000000000245,1.058628931828844433
0.402000000000000246,1.122373639181171834
0.403000000000000247,1.185277876101586303
0.404000000000000248,1.247314315501207860
0.405000000000000249,1.308456848245647786
0.406000000000000250,1.368680577268569509
0.407000000000000250,1.427961810403583165
0.408000000000000251,1.486278051997328209
0.409000000000000252,1.543607993365541997
0.410000000000000253,1.599931502153100427
0.411000000000000254,1.655229610657758643
0.412000000000000255,1.709484503176373238
0.413000000000000256,1.762679502431067080
0.414000000000000257,1.814799055131711025
0.415000000000000258,1.865828716729668102
0.416000000000000258,1.915755135416623123
0.417000000000000259,1.964566035420825418
0.418000000000000260,2.012250199651807847
0.419000000000000261,2.058797451743263007
0.420000000000000262,2.104198637542268990
0.421000000000000263,2.148445606091774263
0.422000000000000264,2.191531190151687625
0.423000000000000265,2.233449186302674860
0.424000000000000266,2.274194334675067708
0.425000000000000266,2.313762298344170354
0.426000000000000267,2.352149642431565546
0.427000000000000268,2.389353812950761657
0.428000000000000269,2.425373115434031668
0.429000000000000270,2.460206693375913911
0.430000000000000271,2.493854506527509951
0.431000000000000272,2.526317309074245010
0.432000000000000273,2.557596627728503602
0.433000000000000274,2.587694739767143481
0.434000000000000274,2.616614651042647122
0.435000000000000275,2.644360073995299043
0.436000000000000276,2.670935405692569820
0.437000000000000277,2.696345705920634828
0.438000000000000278,2.720596675351699467
0.439000000000000279,2.743694633809639960
0.440000000000000280,2.765646498655295993
0.441000000000000281,2.786459763311620375
0.442000000000000282,2.806142475947715820
0.443000000000000282,2.824703218339828847
0.444000000000000283,2.842151084926156202
0.445000000000000284,2.858495662071407484
0.446000000000000285,2.873747007556082256
0.447000000000000286,2.887915630304277226
0.448000000000000287,2.901012470363145024
0.449000000000000288,2.913048879145996750
0.450000000000000289,2.924036599950294857
0.451000000000000290,2.933987748760846337
0.452000000000000290,2.942914795347744139
0.453000000000000291,2.950830544667740973
0.454000000000000292,2.957748118577007368
0.455000000000000293,2.963680937862495757
0.456000000000000294,2.968642704598364102
0.457000000000000295,2.972647384833290385
0.458000000000000296,2.975709191613768567
0.459000000000000297,2.977842568347941477
0.460000000000000298,2.979062172513800899
0.461000000000000298,2.979382859715108189
0.462000000000000299,2.978819668087740347
0.463000000000000300,2.977387803058694438
0.464000000000000301,2.975102622459439239
0.465000000000000302,2.971979621994806031
0.466000000000000303,2.968034421068188156
0.467000000000000304,2.963282748963338431
0.468000000000000305,2.957740431382601010
0.469000000000000306,2.951423377341119370
0.470000000000000306,2.944347566416061657
0.471000000000000307,2.936529036349614152
0.472000000000000308,2.927983871004139704
0.473000000000000309,2.918728188667568002
0.474000000000000310,2.908778130706786147
0.475000000000000311,2.898149850566494656
0.476000000000000312,2.886859503110767555
0.477000000000000313,2.874923234304253672
0.478000000000000314,2.862357171229761299
0.479000000000000314,2.849177412438702373
0.480000000000000315,2.835400018630730656
0.481000000000000316,2.821041003658641522
0.482000000000000317,2.806116325854503657
0.483000000000000318,2.790641879672751458
0.484000000000000319,2.774633487645887353
0.485000000000000320,2.758106892648253261
0.486000000000000321,2.741077750463230878
0.487000000000000322,2.723561622649112834
0.488000000000000322,2.705573969698776615
0.489000000000000323,2.687130144488218964
0.490000000000000324,2.668245386008889053
0.491000000000000325,2.648934813378741371
0.492000000000000326,2.629213420126800038
0.493000000000000327,2.609096068746060482
0.494000000000000328,2.588597485509384288
0.495000000000000329,2.567732255543166087
0.496000000000000330,2.546514818153348347
0.497000000000000330,2.524959462398494114
0.498000000000000331,2.503080322904488675
0.499000000000000332,2.480891375915550423
0.500000000000000333,2.458406435576087290
0.501000000000000334,2.435639150438093647
0.502000000000000335,2.412603000188663138
0.503000000000000336,2.389311292592299907
0.504000000000000337,2.365777160642680066
0.505000000000000338,2.342013559918540100
0.506000000000000338,2.318033266138441295
0.507000000000000339,2.293848872909148628
0.508000000000000340,2.269472789662409618
0.509000000000000341,2.244917239775008788
0.510000000000000342,2.220194258866917014
0.511000000000000343,2.195315693272523738
0.512000000000000344,2.170293198679893898
0.513000000000000345,2.145138238933114838
0.514000000000000346,2.119862084992795381
0.515000000000000346,2.094475814049902684
0.516000000000000347,2.068990308788134502
0.517000000000000348,2.043416256790102636
0.518000000000000349,2.017764150082668184
0.519000000000000350,1.992044284816893107
0.520000000000000351,1.966266761077983372
0.521000000000000352,1.940441482820898900
0.522000000000000353,1.914578157927162350
0.523000000000000353,1.888686298378590367
0.524000000000000354,1.862775220543757992
0.525000000000000355,1.836854045572958949
0.526000000000000356,1.810931699897661229
0.527000000000000357,1.785016915830412554
0.528000000000000358,1.759118232261254189
0.529000000000000359,1.733243995446847707
0.530000000000000360,1.707402359888474219
0.531000000000000361,1.681601289295256763
0.532000000000000361,1.655848557628959439
0.533000000000000362,1.630151750226827234
0.534000000000000363,1.604518264999007515
0.535000000000000364,1.578955313697149032
0.536000000000000365,1.553469923250875073
0.537000000000000366,1.528068937168900465
0.538000000000000367,1.502759017001605191
0.539000000000000368,1.477546643862015063
0.540000000000000369,1.452438120002144784
0.541000000000000369,1.427439570441797478
0.542000000000000370,1.402556944646927484
0.543000000000000371,1.377796018254808796
0.544000000000000372,1.353162394843254512
0.545000000000000373,1.328661507741295988
0.546000000000000374,1.304298621878672737
0.547000000000000375,1.280078835671705217
0.548000000000000376,1.256007082943055408
0.549000000000000377,1.232088134873058127
0.550000000000000377,1.208326601980266979
0.551000000000000378,1.184726936129033126
0.552000000000000379,1.161293432561937289
0.553000000000000380,1.138030231954937577
0.554000000000000381,1.114941322493241405
0.555000000000000382,1.092030541965907542
0.556000000000000383,1.069301579877239172
0.557000000000000384,1.046757979573157860
0.558000000000000385,1.024403140380734767
0.559000000000000385,1.002240319759132969
0.560000000000000386,0.980272635460332276
0.561000000000000387,0.958503067697950462
0.562000000000000388,0.936934461322647905
0.563000000000000389,0.915569528002560196
0.564000000000000390,0.894410848407343750
0.565000000000000391,0.873460874394382136
0.566000000000000392,0.852721931195836502
0.567000000000000393,0.832196219605211285
0.568000000000000393,0.811885818162190076
0.569000000000000394,0.791792685334512747
0.570000000000000395,0.771918661695781383
0.571000000000000396,0.752265472098012422
0.572000000000000397,0.732834727837916700
0.573000000000000398,0.713627928815861567
0.574000000000000399,0.694646465686531878
0.575000000000000400,0.675891622000339143
0.576000000000000401,0.657364576334704243
0.577000000000000401,0.639066404414322831
0.578000000000000402,0.620998081219595433
0.579000000000000403,0.603160483082466170
0.580000000000000404,0.585554389768885963
0.581000000000000405,0.568180486547205543
0.582000000000000406,0.551039366241825701
0.583000000000000407,0.534131531271442750
0.584000000000000408,0.517457395671309439
0.585000000000000409,0.501017287098915021
0.586000000000000409,0.484811448822525470
0.587000000000000410,0.468840041692103859
0.588000000000000411,0.453103146092101006
0.589000000000000412,0.437600763875656384
0.590000000000000413,0.422332820279801679
0.591000000000000414,0.407299165821244202
0.592000000000000415,0.392499578172372521
0.593000000000000416,0.377933764017119700
0.594000000000000417,0.363601360886360747
0.595000000000000417,0.349501938972574422
0.596000000000000418,0.335635002923427128
0.597000000000000419,0.321999993614104640
0.598000000000000420,0.308596289898084852
0.599000000000000421,0.295423210336199227
0.600000000000000422,0.282480014903736976
0.601000000000000423,0.269765906675483058
0.602000000000000424,0.257280033488476945
0.603000000000000425,0.245021489582383067
0.604000000000000425,0.232989317217381142
0.605000000000000426,0.221182508269435335
0.606000000000000427,0.209600005802880573
0.607000000000000428,0.198240705620273128
0.608000000000000429,0.187103457789408234
0.609000000000000430,0.176187068147543202
0.610000000000000431,0.165490299782718869
0.611000000000000432,0.155011874492238549
0.612000000000000433,0.144750474218284270
0.613000000000000433,0.134704742460664356
0.614000000000000434,0.124873285666777398
0.615000000000000435,0.115254674598787216
0.616000000000000436,0.105847445678070251
0.617000000000000437,0.096650102307023214
0.618000000000000438,0.087661116168281872
0.619000000000000439,0.078878928501431828
