# mos2-001_ASNSCA-AC
# h[nm],U(h)[kJ/mol]
0.149999999999999994,88.117822319003977327
0.150999999999999995,85.487160772147291254
0.151999999999999996,83.632366188252234451
0.152999999999999997,81.955821806223241310
0.153999999999999998,80.245394619924923063
0.154999999999999999,78.466230658213518723
0.156000000000000000,76.650094570495113544
0.157000000000000001,74.841433121223204239
0.158000000000000002,73.074961396001867797
0.159000000000000002,71.369622907806132162
0.160000000000000003,69.730135977112439605
0.161000000000000004,68.151279841845322949
0.162000000000000005,66.622449676043018485
0.163000000000000006,65.131389614964916746
0.164000000000000007,63.666772439589351507
0.165000000000000008,62.219678047708747215
0.166000000000000009,60.784186653940949441
0.167000000000000010,59.357344979603759327
0.168000000000000010,57.938744519212228568
0.169000000000000011,56.529905687448547269
0.170000000000000012,55.133610057227748769
0.171000000000000013,53.753275167893136199
0.172000000000000014,52.392426934679782846
0.173000000000000015,51.054294676510643569
0.174000000000000016,49.741532625828114078
0.175000000000000017,48.456058134109483149
0.176000000000000018,47.198989043463321025
0.177000000000000018,45.970659318699709672
0.178000000000000019,44.770691685441413199
0.179000000000000020,43.598107609060818390
0.180000000000000021,42.451457638694179764
0.181000000000000022,41.328958318162520413
0.182000000000000023,40.228625108343649686
0.183000000000000024,39.148393800981246216
0.184000000000000025,38.086225574302218888
0.185000000000000026,37.040193071900567645
0.186000000000000026,36.008546661900936670
0.187000000000000027,34.989761375097067742
0.188000000000000028,33.982565972862829540
0.189000000000000029,32.985956213925909708
0.190000000000000030,31.999194733007112035
0.191000000000000031,31.021800071748906191
0.192000000000000032,30.053527366414833466
0.193000000000000033,29.094343044153426092
0.194000000000000034,28.144395649573901608
0.195000000000000034,27.203984648110690614
0.196000000000000035,26.273528757484722718
0.197000000000000036,25.353535062701631375
0.198000000000000037,24.444569887360483307
0.199000000000000038,23.547232134035986917
0.200000000000000039,22.662129574976042079
0.201000000000000040,21.789858374296454002
0.202000000000000041,20.930985955040846136
0.203000000000000042,20.086037188086329763
0.204000000000000042,19.255483772964087308
0.205000000000000043,18.439736600558866542
0.206000000000000044,17.639140831257073216
0.207000000000000045,16.853973386171464455
0.208000000000000046,16.084442530321009457
0.209000000000000047,15.330689221971391945
0.210000000000000048,14.592789908847672464
0.211000000000000049,13.870760467004023653
0.212000000000000050,13.164560999462693758
0.213000000000000050,12.474101237329758618
0.214000000000000051,11.799246314268899027
0.215000000000000052,11.139822714582901853
0.216000000000000053,10.495624224594040541
0.217000000000000054,9.866417745655290616
0.218000000000000055,9.251948854305087622
0.219000000000000056,8.651947020326833382
0.220000000000000057,8.066130416472134357
0.221000000000000058,7.494210274177366848
0.222000000000000058,6.935894757661762000
0.223000000000000059,6.390892344360918464
0.224000000000000060,5.858914712791206014
0.225000000000000061,5.339679149787428081
0.226000000000000062,4.832910497767459290
0.227000000000000063,4.338342669436870302
0.228000000000000064,3.855719762351361712
0.229000000000000065,3.384796809204862367
0.230000000000000066,2.925340201809885521
0.231000000000000066,2.477127827674645566
0.232000000000000067,2.039948958046510441
0.233000000000000068,1.613603925452434806
0.234000000000000069,1.197903627284298222
0.235000000000000070,0.792668889991711256
0.236000000000000071,0.397729726085878699
0.237000000000000072,0.012924513535454808
0.238000000000000073,-0.361900875651443243
0.239000000000000073,-0.726893973733429344
0.240000000000000074,-1.082196621386982693
0.241000000000000075,-1.427945859493934488
0.242000000000000076,-1.764274793100568228
0.243000000000000077,-2.091313414698675821
0.244000000000000078,-2.409189376437150809
0.245000000000000079,-2.718028703155224601
0.246000000000000080,-3.017956440220811665
0.247000000000000081,-3.309097232054122539
0.248000000000000081,-3.591575828912966895
0.249000000000000082,-3.865517521015017000
0.250000000000000111,-4.131048500378460275
0.251000000000000112,-4.388296151882156160
0.252000000000000113,-4.637389275991180781
0.253000000000000114,-4.878458246370935392
0.254000000000000115,-5.111635106239373449
0.255000000000000115,-5.337053607789993492
0.256000000000000116,-5.554849199375009761
0.257000000000000117,-5.765158965378962996
0.258000000000000118,-5.968121523851296573
0.259000000000000119,-6.163876887015203643
0.260000000000000120,-6.352566289740507521
0.261000000000000121,-6.534331990971263160
0.262000000000000122,-6.709317052946230042
0.263000000000000123,-6.877665102850239798
0.264000000000000123,-7.039520081297695242
0.265000000000000124,-7.195025981782461777
0.266000000000000125,-7.344326584940209734
0.267000000000000126,-7.487565191165261425
0.268000000000000127,-7.624884354811257481
0.269000000000000128,-7.756425622887467952
0.270000000000000129,-7.882329280845908670
0.271000000000000130,-8.002734107742067948
0.272000000000000131,-8.117777142746879449
0.273000000000000131,-8.227593464693091718
0.274000000000000132,-8.332315986056938684
0.275000000000000133,-8.432075262508304192
0.276000000000000134,-8.526999318910331027
0.277000000000000135,-8.617213492413629439
0.278000000000000136,-8.702840293072394928
0.279000000000000137,-8.783999282208634796
0.280000000000000138,-8.860806968567990438
0.281000000000000139,-8.933376722145469628
0.282000000000000139,-9.001818705411285038
0.283000000000000140,-9.066239821536218102
0.284000000000000141,-9.126743679101117834
0.285000000000000142,-9.183430572676284598
0.286000000000000143,-9.236397478572360598
0.287000000000000144,-9.285738064994205843
0.288000000000000145,-9.331542715772823016
0.289000000000000146,-9.373898566805397792
0.290000000000000147,-9.412889554301036910
0.291000000000000147,-9.448596473906633264
0.292000000000000148,-9.481097049774959373
0.293000000000000149,-9.510466012632241117
0.294000000000000150,-9.536775185906401830
0.295000000000000151,-9.560093578987642005
0.296000000000000152,-9.580487486709698075
0.297000000000000153,-9.598020594162409935
0.298000000000000154,-9.612754085972985862
0.299000000000000155,-9.624746759224366954
0.300000000000000155,-9.634055139213097974
0.301000000000000156,-9.640733597286342160
0.302000000000000157,-9.644834470036675711
0.303000000000000158,-9.646408179174184028
0.304000000000000159,-9.645503351437687556
0.305000000000000160,-9.642166937949347982
0.306000000000000161,-9.636444332460659012
0.307000000000000162,-9.628379487980858187
0.308000000000000163,-9.618015031321853314
0.309000000000000163,-9.605392375136396765
0.310000000000000164,-9.590551827067889334
0.311000000000000165,-9.573532695670909476
0.312000000000000166,-9.554373392801199572
0.313000000000000167,-9.533111532212013017
0.314000000000000168,-9.509784024130491176
0.315000000000000169,-9.484427165622943079
0.316000000000000170,-9.457076726591594706
0.317000000000000171,-9.427768031276958283
0.318000000000000171,-9.396536035170344192
0.319000000000000172,-9.363415397269211127
0.320000000000000173,-9.328440547634608393
0.321000000000000174,-9.291645750234669876
0.322000000000000175,-9.253065161081119427
0.323000000000000176,-9.212732881686907405
0.324000000000000177,-9.170683007892549199
0.325000000000000178,-9.126949674126425549
0.326000000000000179,-9.081567093180700212
0.327000000000000179,-9.034569591598653915
0.328000000000000180,-8.985991640782451384
0.329000000000000181,-8.935867883942062662
0.330000000000000182,-8.884233159015542114
0.331000000000000183,-8.831122517700478625
0.332000000000000184,-8.776571240743063385
0.333000000000000185,-8.720614849638135269
0.334000000000000186,-8.663289114898317322
0.335000000000000187,-8.604630061054480805
0.336000000000000187,-8.544673968552928045
0.337000000000000188,-8.483457372716554090
0.338000000000000189,-8.421017059938757043
0.339000000000000190,-8.357390061279030391
0.340000000000000191,-8.292613643628916620
0.341000000000000192,-8.226725298616162974
0.342000000000000193,-8.159762729412936011
0.343000000000000194,-8.091763835612159284
0.344000000000000195,-8.022766696332904957
0.345000000000000195,-7.952809551712997305
0.346000000000000196,-7.881930782943110891
0.347000000000000197,-7.810168890992779112
0.348000000000000198,-7.737562474174650262
0.349000000000000199,-7.664150204688449541
0.350000000000000200,-7.589970804281756855
0.351000000000000201,-7.515063019159360813
0.352000000000000202,-7.439465594268139803
0.353000000000000203,-7.363217247079012040
0.354000000000000203,-7.286356640982248223
0.355000000000000204,-7.208922358406951503
0.356000000000000205,-7.130952873770188383
0.357000000000000206,-7.052486526355761676
0.358000000000000207,-6.973561493217059315
0.359000000000000208,-6.894215762193214303
0.360000000000000209,-6.814487105122282173
0.361000000000000210,-6.734413051329869226
0.362000000000000210,-6.654030861466468494
0.363000000000000211,-6.573377501761605401
0.364000000000000212,-6.492489618757858238
0.365000000000000213,-6.411403514582929120
0.366000000000000214,-6.330155122813165391
0.367000000000000215,-6.248779984977215207
0.368000000000000216,-6.167313227744135595
0.369000000000000217,-6.085789540835734535
0.370000000000000218,-6.004243155698863355
0.371000000000000218,-5.922707824969186241
0.372000000000000219,-5.841216802754195747
0.373000000000000220,-5.759802825759344991
0.374000000000000221,-5.678498095277774382
0.375000000000000222,-5.597334260060447875
0.376000000000000223,-5.516342400080497477
0.377000000000000224,-5.435553011202332030
0.378000000000000225,-5.354995990763143254
0.379000000000000226,-5.274700624071681609
0.380000000000000226,-5.194695571826607683
0.381000000000000227,-5.115008858454049623
0.382000000000000228,-5.035667861361970310
0.383000000000000229,-4.956699301106503697
0.384000000000000230,-4.878129232463461307
0.385000000000000231,-4.799983036396507252
0.386000000000000232,-4.722285412911377378
0.387000000000000233,-4.645060374784243606
0.388000000000000234,-4.568331242150564186
0.389000000000000234,-4.492120637939618355
0.390000000000000235,-4.416450484138390919
0.391000000000000236,-4.341341998867664032
0.392000000000000237,-4.266815694251768321
0.393000000000000238,-4.192891375062915316
0.394000000000000239,-4.119588138119830489
0.395000000000000240,-4.046924372419988813
0.396000000000000241,-3.974917759983957577
0.397000000000000242,-3.903585277389763242
0.398000000000000242,-3.832943197974978400
0.399000000000000243,-3.763007094683545883
0.400000000000000244,-3.693791843534163455
0.401000000000000245,-3.625311627687052951
0.402000000000000246,-3.557579942085308033
0.403000000000000247,-3.490609598647294920
0.404000000000000248,-3.424412731986414826
0.405000000000000249,-3.359000805634496434
0.406000000000000250,-3.294384618745212379
0.407000000000000250,-3.230574313254029217
0.408000000000000251,-3.167579381471296252
0.409000000000000252,-3.105408674085411214
0.410000000000000253,-3.044070408553051443
0.411000000000000254,-2.983572177853936136
0.412000000000000255,-2.923920959587746893
0.413000000000000256,-2.865123125391258796
0.414000000000000257,-2.807184450654024666
0.415000000000000258,-2.750110124511481402
0.416000000000000258,-2.693904760094576467
0.417000000000000259,-2.638572405015621847
0.418000000000000260,-2.584116552070445216
0.419000000000000261,-2.530540150137357891
0.420000000000000262,-2.477845615254040901
0.421000000000000263,-2.426034841853847546
0.422000000000000264,-2.375109214143569680
0.423000000000000265,-2.325069617605184380
0.424000000000000266,-2.275916450604773100
0.425000000000000266,-2.227649636092051466
0.426000000000000267,-2.180268633374760956
0.427000000000000268,-2.133772449952523687
0.428000000000000269,-2.088159653395365023
0.429000000000000270,-2.043428383252647862
0.430000000000000271,-1.999576362978624289
0.431000000000000272,-1.956600911861447356
0.432000000000000273,-1.914498956942897623
0.433000000000000274,-1.873267044916717250
0.434000000000000274,-1.832901353993817706
0.435000000000000275,-1.793397705723297930
0.436000000000000276,-1.754751576758605491
0.437000000000000277,-1.716958110558670869
0.438000000000000278,-1.680012129014412992
0.439000000000000279,-1.643908143991441362
0.440000000000000280,-1.608640368780227092
0.441000000000000281,-1.574202729445536075
0.442000000000000282,-1.540588876067395363
0.443000000000000282,-1.507792193866146047
0.444000000000000283,-1.475805814204838473
0.445000000000000284,-1.444622625462405718
0.446000000000000285,-1.414235283771542395
0.447000000000000286,-1.384636223615774764
0.448000000000000287,-1.355817668280295152
0.449000000000000288,-1.327771640151846677
0.450000000000000289,-1.300489970863044409
0.451000000000000290,-1.273964311277063333
0.452000000000000290,-1.248186141308885944
0.453000000000000291,-1.223146779579649124
0.454000000000000292,-1.198837392901006771
0.455000000000000293,-1.175249005586656681
0.456000000000000294,-1.152372508588587863
0.457000000000000295,-1.130198668455806077
0.458000000000000296,-1.108718136113657993
0.459000000000000297,-1.087921455462078635
0.460000000000000298,-1.067799071791423193
0.461000000000000298,-1.048341340014720346
0.462000000000000299,-1.029538532715517762
0.463000000000000300,-1.011380848010607236
0.464000000000000301,-0.993858417227270863
0.465000000000000302,-0.976961312394812098
0.466000000000000303,-0.960679553550358833
0.467000000000000304,-0.945003115859121445
0.468000000000000305,-0.929921936549535588
0.469000000000000306,-0.915425921663764464
0.470000000000000306,-0.901504952624351041
0.471000000000000307,-0.888148892617842356
0.472000000000000308,-0.875347592796471785
0.473000000000000309,-0.863090898299021525
0.474000000000000310,-0.851368654092210853
0.475000000000000311,-0.840170710634024709
0.476000000000000312,-0.829486929360577330
0.477000000000000313,-0.819307187998112085
0.478000000000000314,-0.809621385701968066
0.479000000000000314,-0.800419448024387803
0.480000000000000315,-0.791691331713078816
0.481000000000000316,-0.783427029342651293
0.482000000000000317,-0.775616573780996688
0.483000000000000318,-0.768250042492859664
0.484000000000000319,-0.761317561682834154
0.485000000000000320,-0.754809310280167178
0.486000000000000321,-0.748715523767708335
0.487000000000000322,-0.743026497857478652
0.488000000000000322,-0.737732592015324151
0.489000000000000323,-0.732824232837219869
0.490000000000000324,-0.728291917279739853
0.491000000000000325,-0.724126215747347146
0.492000000000000326,-0.720317775039071129
0.493000000000000327,-0.716857321157271521
0.494000000000000328,-0.713735661981148350
0.495000000000000329,-0.710943689807658319
0.496000000000000330,-0.708472383762577929
0.497000000000000330,-0.706312812084396890
0.498000000000000331,-0.704456134283760416
0.499000000000000332,-0.702893603181186655
0.500000000000000333,-0.701616566825781662
0.501000000000000334,-0.700616470297651839
0.502000000000000335,-0.699884857396737003
0.503000000000000336,-0.699413372220767271
0.504000000000000337,-0.699193760635033357
0.505000000000000338,-0.699217871636641397
0.506000000000000338,-0.699477658615940801
0.507000000000000339,-0.699965180517745589
0.508000000000000340,-0.700672602904995667
0.509000000000000341,-0.701592198927470601
0.510000000000000342,-0.702716350198128059
0.511000000000000343,-0.704037547579637435
0.512000000000000344,-0.705548391883651593
0.513000000000000345,-0.707241594485315650
0.514000000000000346,-0.709109977855523210
0.515000000000000346,-0.711146476013332252
0.516000000000000347,-0.713344134900993798
0.517000000000000348,-0.715696112684004682
0.518000000000000349,-0.718195679978489876
0.519000000000000350,-0.720836220008288397
0.520000000000000351,-0.723611228694035491
0.521000000000000352,-0.726514314676474093
0.522000000000000353,-0.729539199276242445
0.523000000000000353,-0.732679716392323988
0.524000000000000354,-0.735929812341308276
0.525000000000000355,-0.739283545639590867
0.526000000000000356,-0.742735086730569316
0.527000000000000357,-0.746278717658913626
0.528000000000000358,-0.749908831693888445
0.529000000000000359,-0.753619932903702439
0.530000000000000360,-0.757406635682822182
0.531000000000000361,-0.761263664234142268
0.532000000000000361,-0.765185852007851386
0.533000000000000362,-0.769168141098841351
0.534000000000000363,-0.773205581604402781
0.535000000000000364,-0.777293330943975902
0.536000000000000365,-0.781426653142643368
0.537000000000000366,-0.785600918080042510
0.538000000000000367,-0.789811600706307737
0.539000000000000368,-0.794054280226663800
0.540000000000000369,-0.798324639256181801
0.541000000000000369,-0.802618462946256606
0.542000000000000370,-0.806931638084259162
0.543000000000000371,-0.811260152167804227
0.544000000000000372,-0.815600092455076586
0.545000000000000373,-0.819947644992535252
0.546000000000000374,-0.824299093621377876
0.547000000000000375,-0.828650818964037250
0.548000000000000376,-0.832999297392003513
0.549000000000000377,-0.837341099976174563
0.550000000000000377,-0.841672891420950697
0.551000000000000378,-0.845991428983254301
0.552000000000000379,-0.850293561377563512
0.553000000000000380,-0.854576227668114030
0.554000000000000381,-0.858836456149289718
0.555000000000000382,-0.863071363215278331
0.556000000000000383,-0.867278152219960186
0.557000000000000384,-0.871454112328042263
0.558000000000000385,-0.875596617358350593
0.559000000000000385,-0.879703124620229149
0.560000000000000386,-0.883771173743886251
0.561000000000000387,-0.887798385505602972
0.562000000000000388,-0.891782460648576802
0.563000000000000389,-0.895721178700259246
0.564000000000000390,-0.899612396786898971
0.565000000000000391,-0.903454048446101887
0.566000000000000392,-0.907244142438087486
0.567000000000000393,-0.910980761556356655
0.568000000000000393,-0.914662061438429985
0.569000000000000394,-0.918286269377335040
0.570000000000000395,-0.921851683134415012
0.571000000000000396,-0.925356669754106798
0.572000000000000397,-0.928799664381246393
0.573000000000000398,-0.932179169081440051
0.574000000000000399,-0.935493751665069206
0.575000000000000400,-0.938742044515403551
0.576000000000000401,-0.941922743421332975
0.577000000000000401,-0.945034606415189216
0.578000000000000402,-0.948076452616099408
0.579000000000000403,-0.951047161079288217
0.580000000000000404,-0.953945669651772299
0.581000000000000405,-0.956770973834808913
0.582000000000000406,-0.959522125653485602
0.583000000000000407,-0.962198232533807207
0.584000000000000408,-0.964798456187615061
0.585000000000000409,-0.967322011505654111
0.586000000000000409,-0.969768165459119258
0.587000000000000410,-0.972136236009936816
0.588000000000000411,-0.974425591030074534
0.589000000000000412,-0.976635647230148840
0.590000000000000413,-0.978765869097538044
0.591000000000000414,-0.980815767844273489
0.592000000000000415,-0.982784900364900516
0.593000000000000416,-0.984672868204510054
0.594000000000000417,-0.986479316537150042
0.595000000000000417,-0.988203933154774283
0.596000000000000418,-0.989846447466899315
0.597000000000000419,-0.991406629511132342
0.598000000000000420,-0.992884288974694607
0.599000000000000421,-0.994279274227078402
0.600000000000000422,-0.995591471363967195
0.601000000000000423,-0.996820803262500776
0.602000000000000424,-0.997967228648011129
0.603000000000000425,-0.999030741172311720
0.604000000000000425,-1.000011368503600062
0.605000000000000426,-1.000909171428057798
0.606000000000000427,-1.001724242963236922
0.607000000000000428,-1.002456707483201814
0.608000000000000429,-1.003106719855596962
0.609000000000000430,-1.003674464590524007
0.610000000000000431,-1.004160155001413202
0.611000000000000432,-1.004564032377784466
0.612000000000000433,-1.004886365169967544
0.613000000000000433,-1.005127448185808348
