# mos2-001_CS-234-AC
# h[nm],U(h)[kJ/mol]
0.149999999999999994,103.696602155719162397
0.150999999999999995,100.687497687654627043
0.151999999999999996,98.367494784484136972
0.152999999999999997,96.228799714394114062
0.153999999999999998,94.086964388315124097
0.154999999999999999,91.907403854876150717
0.156000000000000000,89.712778953919809055
0.157000000000000001,87.537572882748264647
0.158000000000000002,85.409005895523776530
0.159000000000000002,83.341705617291452768
0.160000000000000003,81.338803258038140598
0.161000000000000004,79.395392395138372876
0.162000000000000005,77.502264254643449704
0.163000000000000006,75.648987610095375089
0.164000000000000007,73.826040743061739136
0.165000000000000008,72.026028625628626401
0.166000000000000009,70.244159969967896018
0.167000000000000010,68.478197600308618576
0.168000000000000010,66.728081854513675353
0.169000000000000011,64.995390162475800366
0.170000000000000012,63.282753365813775304
0.171000000000000013,61.593309478288652770
0.172000000000000014,59.930242337803633745
0.173000000000000015,58.296427086390998795
0.174000000000000016,56.694186265931492130
0.175000000000000017,55.125148471517732673
0.176000000000000018,53.590194667607896406
0.177000000000000018,52.089474175510872556
0.178000000000000019,50.622471866506671745
0.179000000000000020,49.188109325139379280
0.180000000000000021,47.784864968677858599
0.181000000000000022,46.410900794519292845
0.182000000000000023,45.064186208505603304
0.183000000000000024,43.742612021897208763
0.184000000000000025,42.444090049041875545
0.185000000000000026,41.166635719630981782
0.186000000000000026,39.908432717676177504
0.187000000000000027,38.667879886598399253
0.188000000000000028,37.443621529519461433
0.189000000000000029,36.234562830562964564
0.190000000000000030,35.039872475589319833
0.191000000000000031,33.858974707851466235
0.192000000000000032,32.691533060816965417
0.193000000000000033,31.537427907117184134
0.194000000000000034,30.396729783749929510
0.195000000000000034,29.269670227824910569
0.196000000000000035,28.156611607174671263
0.197000000000000036,27.058017173731968796
0.198000000000000037,25.974422317822508433
0.199000000000000038,24.906407767683123922
0.200000000000000039,23.854575266631545816
0.201000000000000040,22.819526073847846703
0.202000000000000041,21.801842475140428945
0.203000000000000042,20.802072357307142880
0.204000000000000042,19.820716792618583213
0.205000000000000043,18.858220496659551912
0.206000000000000044,17.914964960907735048
0.207000000000000045,16.991264018414618420
0.208000000000000046,16.087361574106246564
0.209000000000000047,15.203431217922183549
0.210000000000000048,14.339577436773353725
0.211000000000000049,13.495838147838885135
0.212000000000000050,12.672188288976352410
0.213000000000000050,11.868544220186503679
0.214000000000000051,11.084768711585557099
0.215000000000000052,10.320676316884854984
0.216000000000000053,9.576038955868069635
0.217000000000000054,8.850591553913428555
0.218000000000000055,8.144037610543493955
0.219000000000000056,7.456054591777052210
0.220000000000000057,6.786299062323861264
0.221000000000000058,6.134411493156202155
0.222000000000000058,5.500020697547469695
0.223000000000000059,4.882747864228955237
0.224000000000000060,4.282210169871667915
0.225000000000000061,3.698023964704653110
0.226000000000000062,3.129807534824357695
0.227000000000000063,2.577183452748404324
0.228000000000000064,2.039780534161732994
0.229000000000000065,1.517235423739529354
0.230000000000000066,1.009193836568828218
0.231000000000000066,0.515311484179254431
0.232000000000000067,0.035254715689034197
0.233000000000000068,-0.431299094783534898
0.234000000000000069,-0.884661383361824982
0.235000000000000070,-1.325132423881576482
0.236000000000000071,-1.753001518294921457
0.237000000000000072,-2.168547322210858219
0.238000000000000073,-2.572038279549099915
0.239000000000000073,-2.963733142252947150
0.240000000000000074,-3.343881553102380444
0.241000000000000075,-3.712724671826430178
0.242000000000000076,-4.070495826887212232
0.243000000000000077,-4.417421177453517700
0.244000000000000078,-4.753720372165069818
0.245000000000000079,-5.079607193283601774
0.246000000000000080,-5.395290176712152608
0.247000000000000081,-5.700973200126164819
0.248000000000000081,-5.996856033086560345
0.249000000000000082,-6.283134844491664595
0.250000000000000111,-6.560002664068784739
0.251000000000000112,-6.827649795806527422
0.252000000000000113,-7.086264182290818781
0.253000000000000114,-7.336031719831479059
0.254000000000000115,-7.577136525063657757
0.255000000000000115,-7.809761154381105186
0.256000000000000116,-8.034086778118577854
0.257000000000000117,-8.250293311854573375
0.258000000000000118,-8.458559507562357638
0.259000000000000119,-8.659063007606885520
0.260000000000000120,-8.851980364775645427
0.261000000000000121,-9.037487031650705660
0.262000000000000122,-9.215757322687885278
0.263000000000000123,-9.386964352372253018
0.264000000000000123,-9.551279952777079529
0.265000000000000124,-9.708874573771065997
0.266000000000000125,-9.859917169004281945
0.267000000000000126,-10.004575070661296365
0.268000000000000127,-10.143013855807698320
0.269000000000000128,-10.275397206976618847
0.270000000000000129,-10.401886769451168746
0.271000000000000130,-10.522642007500007111
0.272000000000000131,-10.637820061620073986
0.273000000000000131,-10.747575608636124045
0.274000000000000132,-10.852060726303751181
0.275000000000000133,-10.951424763863244038
0.276000000000000134,-11.045814219797918554
0.277000000000000135,-11.135372627863265649
0.278000000000000136,-11.220240452275586307
0.279000000000000137,-11.300554992779117569
0.280000000000000138,-11.376450300151843109
0.281000000000000139,-11.448057102561813636
0.282000000000000139,-11.515502743048198653
0.283000000000000140,-11.578911128275132469
0.284000000000000141,-11.638402688590904432
0.285000000000000142,-11.694094349321151327
0.286000000000000143,-11.746099513131150971
0.287000000000000144,-11.794528053209395679
0.288000000000000145,-11.839486316952211098
0.289000000000000146,-11.881077139765805484
0.290000000000000147,-11.919399868548728350
0.291000000000000147,-11.954550394372446931
0.292000000000000148,-11.986621193841218158
0.293000000000000149,-12.015701378582933856
0.294000000000000150,-12.041876752300835207
0.295000000000000151,-12.065229874800376564
0.296000000000000152,-12.085840132395807345
0.297000000000000153,-12.103783814097246463
0.298000000000000154,-12.119134192979526432
0.299000000000000155,-12.131961612139448903
0.300000000000000155,-12.142333574657246942
0.301000000000000156,-12.150314836990396827
0.302000000000000157,-12.155967505243749471
0.303000000000000158,-12.159351133777892784
0.304000000000000159,-12.160522825638105715
0.305000000000000160,-12.159537334308206269
0.306000000000000161,-12.156447166317493114
0.307000000000000162,-12.151302684253547426
0.308000000000000163,-12.144152209759287331
0.309000000000000163,-12.135042126119074624
0.310000000000000164,-12.124016980065176696
0.311000000000000165,-12.111119582462537281
0.312000000000000166,-12.096391107556840439
0.313000000000000167,-12.079871190496929145
0.314000000000000168,-12.061598022869029379
0.315000000000000169,-12.041608446005639621
0.316000000000000170,-12.019938041857114897
0.317000000000000171,-11.996621221237905530
0.318000000000000171,-11.971691309283020388
0.319000000000000172,-11.945180627972842302
0.320000000000000173,-11.917120575605748556
0.321000000000000174,-11.887541703118831293
0.322000000000000175,-11.856473787176414092
0.323000000000000176,-11.823945899964659390
0.324000000000000177,-11.789986475647939557
0.325000000000000178,-11.754623373458962021
0.326000000000000179,-11.717883937410231709
0.327000000000000179,-11.679795052628270113
0.328000000000000180,-11.640383198325450209
0.329000000000000181,-11.599674497436618381
0.330000000000000182,-11.557694762958300672
0.331000000000000183,-11.514469541039215272
0.332000000000000184,-11.470024150879337910
0.333000000000000185,-11.424383721503534872
0.334000000000000186,-11.377573225483050834
0.335000000000000187,-11.329617509684666743
0.336000000000000187,-11.280541323133270737
0.337000000000000188,-11.230369342078356354
0.338000000000000189,-11.179126192359490233
0.339000000000000190,-11.126836469169209209
0.340000000000000191,-11.073524754314616914
0.341000000000000192,-11.019215631081676676
0.342000000000000193,-10.963933696807341533
0.343000000000000194,-10.907703573266504193
0.344000000000000195,-10.850549914980760491
0.345000000000000195,-10.792497415556933760
0.346000000000000196,-10.733570812162515296
0.347000000000000197,-10.673794888244916734
0.348000000000000198,-10.613194474600508244
0.349000000000000199,-10.551794448897899414
0.350000000000000200,-10.489619733758688724
0.351000000000000201,-10.426695293496830885
0.352000000000000202,-10.363046129615780089
0.353000000000000203,-10.298697275160401787
0.354000000000000203,-10.233673788018069928
0.355000000000000204,-10.168000743260677154
0.356000000000000205,-10.101703224616764842
0.357000000000000206,-10.034806315160002654
0.358000000000000207,-9.967335087296998353
0.359000000000000208,-9.899314592134937030
0.360000000000000209,-9.830769848305887848
0.361000000000000210,-9.761725830321841713
0.362000000000000210,-9.692207456531102494
0.363000000000000211,-9.622239576743632838
0.364000000000000212,-9.551846959589717301
0.365000000000000213,-9.481054279673006846
0.366000000000000214,-9.409886104575983623
0.367000000000000215,-9.338366881772627082
0.368000000000000216,-9.266520925500103090
0.369000000000000217,-9.194372403637991908
0.370000000000000218,-9.121945324640899244
0.371000000000000218,-9.049263524567031425
0.372000000000000219,-8.976350654242645888
0.373000000000000220,-8.903230166599428230
0.374000000000000221,-8.829925304219058191
0.375000000000000222,-8.756459087116656548
0.376000000000000223,-8.682854300792115509
0.377000000000000224,-8.609133484576039663
0.378000000000000225,-8.535318920294310274
0.379000000000000226,-8.461432621273210941
0.380000000000000226,-8.387496321704865920
0.381000000000000227,-8.313531466390191582
0.382000000000000228,-8.239559200875135048
0.383000000000000229,-8.165600361993481826
0.384000000000000230,-8.091675468827791207
0.385000000000000231,-8.017804714098513585
0.386000000000000232,-7.944007955989169645
0.387000000000000233,-7.870304710414248284
0.388000000000000234,-7.796714143734689628
0.389000000000000234,-7.723255065924665708
0.390000000000000235,-7.649945924191615454
0.391000000000000236,-7.576804797050655793
0.392000000000000237,-7.503849388852851909
0.393000000000000238,-7.431097024766105896
0.394000000000000239,-7.358564646206010806
0.395000000000000240,-7.286268806713311008
0.396000000000000241,-7.214225668273570591
0.397000000000000242,-7.142450998073762491
0.398000000000000242,-7.070960165689871069
0.399000000000000243,-6.999768140698745533
0.400000000000000244,-6.928889490706760412
0.401000000000000245,-6.858338379787490169
0.402000000000000246,-6.788128567319716922
0.403000000000000247,-6.718273407216822868
0.404000000000000248,-6.648785847538173144
0.405000000000000249,-6.579678430472644557
0.406000000000000250,-6.510963292684084358
0.407000000000000250,-6.442652166008325132
0.408000000000000251,-6.374756378490937792
0.409000000000000252,-6.307286855754894006
0.410000000000000253,-6.240254122686941685
0.411000000000000254,-6.173668305431488257
0.412000000000000255,-6.107539133680615961
0.413000000000000256,-6.041875943248848024
0.414000000000000257,-5.976687678921041247
0.415000000000000258,-5.911982897562117145
0.416000000000000258,-5.847769771476959200
0.417000000000000259,-5.784056092009118188
0.418000000000000260,-5.720849273366910737
0.419000000000000261,-5.658156356665560160
0.420000000000000262,-5.595984014174191223
0.421000000000000263,-5.534338553756562362
0.422000000000000264,-5.473225923494547729
0.423000000000000265,-5.412651716483503961
0.424000000000000266,-5.352621175788980779
0.425000000000000266,-5.293139199554120822
0.426000000000000267,-5.234210346247555101
0.427000000000000268,-5.175838840041660838
0.428000000000000269,-5.118028576311226985
0.429000000000000270,-5.060783127242944879
0.430000000000000271,-5.004105747546137017
0.431000000000000272,-4.947999380255579283
0.432000000000000273,-4.892466662617360740
0.433000000000000274,-4.837509932049063544
0.434000000000000274,-4.783131232165667157
0.435000000000000275,-4.729332318862971007
0.436000000000000276,-4.676114666450517099
0.437000000000000277,-4.623479473826108688
0.438000000000000278,-4.571427670684561129
0.439000000000000279,-4.519959923753333442
0.440000000000000280,-4.469076643047965369
0.441000000000000281,-4.418777988140639046
0.442000000000000282,-4.369063874435321182
0.443000000000000282,-4.319933979443125516
0.444000000000000283,-4.271387749052009575
0.445000000000000284,-4.223424403784930448
0.446000000000000285,-4.176042945040860488
0.447000000000000286,-4.129242161313595005
0.448000000000000287,-4.083020634382956260
0.449000000000000288,-4.037376745473890693
0.450000000000000289,-3.992308681378601509
0.451000000000000290,-3.947814440537474212
0.452000000000000290,-3.903891839074623782
0.453000000000000291,-3.860538516784066676
0.454000000000000292,-3.817751943062866360
0.455000000000000293,-3.775529422787665457
0.456000000000000294,-3.733868102131334243
0.457000000000000295,-3.692764974316605109
0.458000000000000296,-3.652216885303746885
0.459000000000000297,-3.612220539409597198
0.460000000000000298,-3.572772504855337594
0.461000000000000298,-3.533869219240686643
0.462000000000000299,-3.495506994942311429
0.463000000000000300,-3.457682024434367118
0.464000000000000301,-3.420390385529398003
0.465000000000000302,-3.383628046537823675
0.466000000000000303,-3.347390871344470664
0.467000000000000304,-3.311674624400729350
0.468000000000000305,-3.276474975631150421
0.469000000000000306,-3.241787505253231672
0.470000000000000306,-3.207607708509561117
0.471000000000000307,-3.173931000311287942
0.472000000000000308,-3.140752719792352821
0.473000000000000309,-3.108068134773724456
0.474000000000000310,-3.075872446137235539
0.475000000000000311,-3.044160792108552727
0.476000000000000312,-3.012928252449108335
0.477000000000000313,-2.982169852556644685
0.478000000000000314,-2.951880567474437722
0.479000000000000314,-2.922055325809139070
0.480000000000000315,-2.892689013557301347
0.481000000000000316,-2.863776477840850987
0.482000000000000317,-2.835312530551677312
0.483000000000000318,-2.807291951905730443
0.484000000000000319,-2.779709493907004170
0.485000000000000320,-2.752559883721930500
0.486000000000000321,-2.725837826964653043
0.487000000000000322,-2.699538010893852480
0.488000000000000322,-2.673655107521725860
0.489000000000000323,-2.648183776635902653
0.490000000000000324,-2.623118668735008541
0.491000000000000325,-2.598454427878739370
0.492000000000000326,-2.574185694453245521
0.493000000000000327,-2.550307107852817001
0.494000000000000328,-2.526813309078741021
0.495000000000000329,-2.503698943256357889
0.496000000000000330,-2.480958662071298004
0.497000000000000330,-2.458587126125990618
0.498000000000000331,-2.436579007217452908
0.499000000000000332,-2.414928990537547726
0.500000000000000333,-2.393631776796778521
0.501000000000000334,-2.372682084272758729
0.502000000000000335,-2.352074650784591103
0.503000000000000336,-2.331804235594281405
0.504000000000000337,-2.311865621236417923
0.505000000000000338,-2.292253615277326517
0.506000000000000338,-2.272963052004930873
0.507000000000000339,-2.253988794050559186
0.508000000000000340,-2.235325733943924753
0.509000000000000341,-2.216968795602590969
0.510000000000000342,-2.198912935757098897
0.511000000000000343,-2.181153145313091457
0.512000000000000344,-2.163684450651659041
0.513000000000000345,-2.146501914869184624
0.514000000000000346,-2.129600638957982905
0.515000000000000346,-2.112975762928946732
0.516000000000000347,-2.096622466877488211
0.517000000000000348,-2.080535971994087241
0.518000000000000349,-2.064711541520583005
0.519000000000000350,-2.049144481653580652
0.520000000000000351,-2.033830142396144680
0.521000000000000352,-2.018763918359031795
0.522000000000000353,-2.003941249512700029
0.523000000000000353,-1.989357621891283401
0.524000000000000354,-1.975008568249795093
0.525000000000000355,-1.960889668675691366
0.526000000000000356,-1.946996551156019439
0.527000000000000357,-1.933324892101343950
0.528000000000000358,-1.919870416827548443
0.529000000000000359,-1.906628899996739790
0.530000000000000360,-1.893596166018328919
0.531000000000000361,-1.880768089411454458
0.532000000000000361,-1.868140595129818893
0.533000000000000362,-1.855709658850078325
0.534000000000000363,-1.843471307224819000
0.535000000000000364,-1.831421618101207738
0.536000000000000365,-1.819556720706366537
0.537000000000000366,-1.807872795800499643
0.538000000000000367,-1.796366075798768946
0.539000000000000368,-1.785032844862984858
0.540000000000000369,-1.773869438963985967
0.541000000000000369,-1.762872245915801939
0.542000000000000370,-1.752037705382453181
0.543000000000000371,-1.741362308858358743
0.544000000000000372,-1.730842599623290123
0.545000000000000373,-1.720475172672737640
0.546000000000000374,-1.710256674624582418
0.547000000000000375,-1.700183803602945520
0.548000000000000376,-1.690253309100089307
0.549000000000000377,-1.680461991817158163
0.550000000000000377,-1.670806703484587263
0.551000000000000378,-1.661284346663019607
0.552000000000000379,-1.651891874525458714
0.553000000000000380,-1.642626290621466367
0.554000000000000381,-1.633484648624112356
0.555000000000000382,-1.624464052060472952
0.556000000000000383,-1.615561654026308247
0.557000000000000384,-1.606774656885710639
0.558000000000000385,-1.598100311956332842
0.559000000000000385,-1.589535919180917078
0.560000000000000386,-1.581078826785734304
0.561000000000000387,-1.572726430926614682
0.562000000000000388,-1.564476175323149310
0.563000000000000389,-1.556325550881694220
0.564000000000000390,-1.548272095307755780
0.565000000000000391,-1.540313392708341667
0.566000000000000392,-1.532447073184818986
0.567000000000000393,-1.524670812416857091
0.568000000000000393,-1.516982331237940684
0.569000000000000394,-1.509379395203023444
0.570000000000000395,-1.501859814148776007
0.571000000000000396,-1.494421441746939694
0.572000000000000397,-1.487062175051278023
0.573000000000000398,-1.479779954038535239
0.574000000000000399,-1.472572761143918108
0.575000000000000400,-1.465438620791468693
0.576000000000000401,-1.458375598919795069
0.577000000000000401,-1.451381802503565410
0.578000000000000402,-1.444455379071136525
0.579000000000000403,-1.437594516218712926
0.580000000000000404,-1.430797441121440139
0.581000000000000405,-1.424062420041739108
0.582000000000000406,-1.417387757835268713
0.583000000000000407,-1.410771797454850374
0.584000000000000408,-1.404212919452657804
0.585000000000000409,-1.397709541481019002
0.586000000000000409,-1.391260117792114670
0.587000000000000410,-1.384863138736877941
0.588000000000000411,-1.378517130263366974
0.589000000000000412,-1.372220653414910396
0.590000000000000413,-1.365972303828249634
0.591000000000000414,-1.359770711231976126
0.592000000000000415,-1.353614538945482337
0.593000000000000416,-1.347502483378663296
0.594000000000000417,-1.341433273532604442
0.595000000000000417,-1.335405670501488284
0.596000000000000418,-1.329418466975871516
0.597000000000000419,-1.323470486747629904
0.598000000000000420,-1.317560584216653341
0.599000000000000421,-1.311687643899574596
0.600000000000000422,-1.305850579940642131
0.601000000000000423,-1.300048335624937046
0.602000000000000424,-1.294279882894086242
0.603000000000000425,-1.288544221864643680
0.604000000000000425,-1.282840380349253406
0.605000000000000426,-1.277167413380762895
0.606000000000000427,-1.271524402739440784
0.607000000000000428,-1.265910456483331448
0.608000000000000429,-1.260324708482031486
0.609000000000000430,-1.254766317953806443
0.610000000000000431,-1.249234469006346604
0.611000000000000432,-1.243728370181119924
