# mos2-001_CS-5993-AC
# h[nm],U(h)[kJ/mol]
0.149999999999999994,99.878156160139354824
0.150999999999999995,97.213762225840198994
0.151999999999999996,94.952727444313339333
0.152999999999999997,92.804384175341311902
0.153999999999999998,90.659723747227516810
0.154999999999999999,88.497195917396609843
0.156000000000000000,86.330621772853078255
0.157000000000000001,84.182456455042824928
0.158000000000000002,82.071734056162114257
0.159000000000000002,80.010056464836708301
0.160000000000000003,78.001614400108309155
0.161000000000000004,76.044911567671391595
0.162000000000000005,74.134917607902480086
0.163000000000000006,72.265017899701291526
0.164000000000000007,70.428504302331106146
0.165000000000000008,68.619558375169901865
0.166000000000000009,66.833782265245844201
0.167000000000000010,65.068374519495563391
0.168000000000000010,63.322055579461903108
0.169000000000000011,61.594837513828807118
0.170000000000000012,59.887714814887246462
0.171000000000000013,58.202333675139342972
0.172000000000000014,56.540679173773774835
0.173000000000000015,54.904804657180875438
0.174000000000000016,53.296615715994015261
0.175000000000000017,51.717712416661342445
0.176000000000000018,50.169287440772443176
0.177000000000000018,48.652074020823022238
0.178000000000000019,47.166335532378894868
0.179000000000000020,45.711887851524089399
0.180000000000000021,44.288145723909600804
0.181000000000000022,42.894185103357116873
0.182000000000000023,41.528814460742829340
0.183000000000000024,40.190649257559798002
0.184000000000000025,38.878184995568780380
0.185000000000000026,37.589865409087309445
0.186000000000000026,36.324143407396647376
0.187000000000000027,35.079533273745163058
0.188000000000000028,33.854653374523088871
0.189000000000000029,32.648259229638931345
0.190000000000000030,31.459267253113466722
0.191000000000000031,30.286769806252323178
0.192000000000000032,29.130042431545895454
0.193000000000000033,27.988544271317699952
0.194000000000000034,26.861912738168335579
0.195000000000000034,25.749953510191801342
0.196000000000000035,24.652626886821458640
0.197000000000000036,23.570031473137927236
0.198000000000000037,22.502386071765041464
0.199000000000000038,21.450010560482187572
0.200000000000000039,20.413306427088794948
0.201000000000000040,19.392737526061281983
0.202000000000000041,18.388811518028663983
0.203000000000000042,17.402062355838161523
0.204000000000000042,16.433034091839612501
0.205000000000000043,15.482266201103058734
0.206000000000000044,14.550280545112553199
0.207000000000000045,13.637570040121477888
0.208000000000000046,12.744589043531512118
0.209000000000000047,11.871745429853309162
0.210000000000000048,11.019394294338219709
0.211000000000000049,10.187833196457200202
0.212000000000000050,9.377298836210123056
0.213000000000000050,8.587965042939876170
0.214000000000000051,7.819941948070085580
0.215000000000000052,7.073276209204408360
0.216000000000000053,6.347952152584516838
0.217000000000000054,5.643893703335629120
0.218000000000000055,4.960966977630499208
0.219000000000000056,4.298983417343777091
0.220000000000000057,3.657703355478053364
0.221000000000000058,3.036839909228497003
0.222000000000000058,2.436063106663818978
0.223000000000000059,1.855004162364259246
0.224000000000000060,1.293259826732220841
0.225000000000000061,0.750396742894267943
0.226000000000000062,0.225955753997523517
0.227000000000000063,-0.280543887843381412
0.228000000000000064,-0.769600451750097725
0.229000000000000065,-1.241725830862326019
0.230000000000000066,-1.697441844348616113
0.231000000000000066,-2.137276759139283833
0.232000000000000067,-2.561762046330821274
0.233000000000000068,-2.971429382274825226
0.234000000000000069,-3.366807900012685373
0.235000000000000070,-3.748421692924891691
0.236000000000000071,-4.116787569197313701
0.237000000000000072,-4.472413052933279509
0.238000000000000073,-4.815794625419513864
0.239000000000000073,-5.147416198148956568
0.240000000000000074,-5.467747807677286076
0.241000000000000075,-5.777244521201279959
0.242000000000000076,-6.076345540862274852
0.243000000000000077,-6.365473494161142831
0.244000000000000078,-6.645033897488358932
0.245000000000000079,-6.915414779594018846
0.246000000000000080,-7.176986451818240020
0.247000000000000081,-7.430101412047190657
0.248000000000000081,-7.675094369627915469
0.249000000000000082,-7.912282378845725717
0.250000000000000111,-8.141965069021054546
0.251000000000000112,-8.364424959800071946
0.252000000000000113,-8.579927850781055909
0.253000000000000114,-8.788723275219625819
0.254000000000000115,-8.991045008182959819
0.255000000000000115,-9.187111620160781200
0.256000000000000116,-9.377127067784446268
0.257000000000000117,-9.561281313944707705
0.258000000000000118,-9.739750970228040927
0.259000000000000119,-9.912699955206303315
0.260000000000000120,-10.080280162710144154
0.261000000000000121,-10.242632134788692611
0.262000000000000122,-10.399885734606458598
0.263000000000000123,-10.552160815048107878
0.264000000000000123,-10.699567879294505701
0.265000000000000124,-10.842208730095705960
0.266000000000000125,-10.980177104900175067
0.267000000000000126,-11.113559294402676869
0.268000000000000127,-11.242434742447944274
0.269000000000000128,-11.366876625572190918
0.270000000000000129,-11.486952410782345524
0.271000000000000130,-11.602724390462970661
0.272000000000000131,-11.714250193565339586
0.273000000000000131,-11.821583272472551585
0.274000000000000132,-11.924773365150334925
0.275000000000000133,-12.023866932386948037
0.276000000000000134,-12.118907570097970705
0.277000000000000135,-12.209936396824499383
0.278000000000000136,-12.296992416687794858
0.279000000000000137,-12.380112858180744695
0.280000000000000138,-12.459333489277739204
0.281000000000000139,-12.534688909431556780
0.282000000000000139,-12.606212819099114952
0.283000000000000140,-12.673938267499067933
0.284000000000000141,-12.737897879353900166
0.285000000000000142,-12.798124061408922003
0.286000000000000143,-12.854649189550929833
0.287000000000000144,-12.907505777371019562
0.288000000000000145,-12.956726627031367016
0.289000000000000146,-13.002344963302656211
0.290000000000000147,-13.044394551641937952
0.291000000000000147,-13.082909801176521469
0.292000000000000148,-13.117925853452543805
0.293000000000000149,-13.149478657794400505
0.294000000000000150,-13.177605034106463222
0.295000000000000151,-13.202342723930120982
0.296000000000000152,-13.223730430548609860
0.297000000000000153,-13.241807848909408207
0.298000000000000154,-13.256615686109480379
0.299000000000000155,-13.268195673162992421
0.300000000000000155,-13.276590568744248699
0.301000000000000156,-13.281844155571004507
0.302000000000000157,-13.284001230065328514
0.303000000000000158,-13.283107585900532754
0.304000000000000159,-13.279209992014580521
0.305000000000000160,-13.272356165641374659
0.306000000000000161,-13.262594740883596245
0.307000000000000162,-13.249975233322521362
0.308000000000000163,-13.234548001132869999
0.309000000000000163,-13.216364203143886158
0.310000000000000164,-13.195475754261440926
0.311000000000000165,-13.171935278640438227
0.312000000000000166,-13.145796060971898456
0.313000000000000167,-13.117111996225157000
0.314000000000000168,-13.085937538162159655
0.315000000000000169,-13.052327646918689297
0.316000000000000170,-13.016337735925812780
0.317000000000000171,-12.978023618424126440
0.318000000000000171,-12.937441453803703695
0.319000000000000172,-12.894647693983930736
0.320000000000000173,-12.849699030029281488
0.321000000000000174,-12.802652339180133012
0.322000000000000175,-12.753564632461397821
0.323000000000000176,-12.702493003016646966
0.324000000000000177,-12.649494575300460397
0.325000000000000178,-12.594626455248313590
0.326000000000000179,-12.537945681530407782
0.327000000000000179,-12.479509177983322488
0.328000000000000180,-12.419373707302296950
0.329000000000000181,-12.357595826066143374
0.330000000000000182,-12.294231841156463503
0.331000000000000183,-12.229337767623999156
0.332000000000000184,-12.162969288045585969
0.333000000000000185,-12.095181713407567869
0.334000000000000186,-12.026029945543687205
0.335000000000000187,-11.955568441148416881
0.336000000000000187,-11.883851177380588382
0.337000000000000188,-11.810931619065597076
0.338000000000000189,-11.736862687499639790
0.339000000000000190,-11.661696730853888582
0.340000000000000191,-11.585485496172047704
0.341000000000000192,-11.508280102950720902
0.342000000000000193,-11.430131018287827516
0.343000000000000194,-11.351088033581246961
0.344000000000000195,-11.271200242756279408
0.345000000000000195,-11.190516021998261564
0.346000000000000196,-11.109083010963670901
0.347000000000000197,-11.026948095441102993
0.348000000000000198,-10.944157391431534876
0.349000000000000199,-10.860756230615447038
0.350000000000000200,-10.776789147173081673
0.351000000000000201,-10.692299865922688440
0.352000000000000202,-10.607331291740585755
0.353000000000000203,-10.521925500226121386
0.354000000000000203,-10.436123729573733243
0.355000000000000204,-10.349966373613785464
0.356000000000000205,-10.263492975983620425
0.357000000000000206,-10.176742225389869390
0.358000000000000207,-10.089751951922842466
0.359000000000000208,-10.002559124384063693
0.360000000000000209,-9.915199848587864295
0.361000000000000210,-9.827709366598206486
0.362000000000000210,-9.740122056862190902
0.363000000000000211,-9.652471435202029326
0.364000000000000212,-9.564790156627747564
0.365000000000000213,-9.477110017933174646
0.366000000000000214,-9.389461961038609417
0.367000000000000215,-9.301876077043838009
0.368000000000000216,-9.214381610956088764
0.369000000000000217,-9.127006967057951670
0.370000000000000218,-9.039779714881245098
0.371000000000000218,-8.952726595753276229
0.372000000000000219,-8.865873529882968285
0.373000000000000220,-8.779245623954992084
0.374000000000000221,-8.692867179200877814
0.375000000000000222,-8.606761699916836150
0.376000000000000223,-8.520951902399016120
0.377000000000000224,-8.435459724267635906
0.378000000000000225,-8.350306334152282517
0.379000000000000226,-8.265512141711564453
0.380000000000000226,-8.181096807961278472
0.381000000000000227,-8.097079255885706317
0.382000000000000228,-8.013477681308065925
0.383000000000000229,-7.930309563996549294
0.384000000000000230,-7.847591678983283359
0.385000000000000231,-7.765340108074698655
0.386000000000000232,-7.683570251532105821
0.387000000000000233,-7.602296839902547454
0.388000000000000234,-7.521533945980431568
0.389000000000000234,-7.441294996881586243
0.390000000000000235,-7.361592786211746287
0.391000000000000236,-7.282439486312635601
0.392000000000000237,-7.203846660569212190
0.393000000000000238,-7.125825275762655231
0.394000000000000239,-7.048385714454124873
0.395000000000000240,-6.971537787385199358
0.396000000000000241,-6.895290745881572647
0.397000000000000242,-6.819653294247006059
0.398000000000000242,-6.744633602135595929
0.399000000000000243,-6.670239316890655523
0.400000000000000244,-6.596477575839219121
0.401000000000000245,-6.523355018532036809
0.402000000000000246,-6.450877798919054662
0.403000000000000247,-6.379051597451244504
0.404000000000000248,-6.307881633100125285
0.405000000000000249,-6.237372675286780854
0.406000000000000250,-6.167529055712712704
0.407000000000000250,-6.098354680085366297
0.408000000000000251,-6.029853039731621678
0.409000000000000252,-5.962027223093039119
0.410000000000000253,-5.894879927096985384
0.411000000000000254,-5.828413468398347064
0.412000000000000255,-5.762629794486747947
0.413000000000000256,-5.697530494654833078
0.414000000000000257,-5.633116810823223908
0.415000000000000258,-5.569389648218501243
0.416000000000000258,-5.506349585900550458
0.417000000000000259,-5.443996887136216323
0.418000000000000260,-5.382331509616395060
0.419000000000000261,-5.321353115513974608
0.420000000000000262,-5.261061081380465687
0.421000000000000263,-5.201454507879322620
0.422000000000000264,-5.142532229354242368
0.423000000000000265,-5.084292823230988745
0.424000000000000266,-5.026734619251666203
0.425000000000000266,-4.969855708540309003
0.426000000000000267,-4.913653952499172028
0.427000000000000268,-4.858126991535152150
0.428000000000000269,-4.803272253615991971
0.429000000000000270,-4.749086962656189570
0.430000000000000271,-4.695568146732563619
0.431000000000000272,-4.642712646129790066
0.432000000000000273,-4.590517121216173280
0.433000000000000274,-4.538978060150311578
0.434000000000000274,-4.488091786419178497
0.435000000000000275,-4.437854466208550619
0.436000000000000276,-4.388262115606666569
0.437000000000000277,-4.339310607642138606
0.438000000000000278,-4.290995679157349585
0.439000000000000279,-4.243312937518574302
0.440000000000000280,-4.196257867164185917
0.441000000000000281,-4.149825835992420053
0.442000000000000282,-4.104012101590273964
0.443000000000000282,-4.058811817305113756
0.444000000000000283,-4.014220038160733139
0.445000000000000284,-3.970231726619641854
0.446000000000000285,-3.926841758193319265
0.447000000000000286,-3.884044926902515016
0.448000000000000287,-3.841835950589281623
0.449000000000000288,-3.800209476082996307
0.450000000000000289,-3.759160084222170184
0.451000000000000290,-3.718682294734269256
0.452000000000000290,-3.678770570975591792
0.453000000000000291,-3.639419324533327060
0.454000000000000292,-3.600622919691998103
0.455000000000000293,-3.562375677766423276
0.456000000000000294,-3.524671881303450327
0.457000000000000295,-3.487505778154633251
0.458000000000000296,-3.450871585422135901
0.459000000000000297,-3.414763493280061901
0.460000000000000298,-3.379175668673494837
0.461000000000000298,-3.344102258897470481
0.462000000000000299,-3.309537395058195219
0.463000000000000300,-3.275475195418687147
0.464000000000000301,-3.241909768631168642
0.465000000000000302,-3.208835216858441530
0.466000000000000303,-3.176245638786455494
0.467000000000000304,-3.144135132530329724
0.468000000000000305,-3.112497798436093088
0.469000000000000306,-3.081327741780255813
0.470000000000000306,-3.050619075369546351
0.471000000000000307,-3.020365922042845597
0.472000000000000308,-2.990562417077649915
0.473000000000000309,-2.961202710503068491
0.474000000000000310,-2.932280969321580777
0.475000000000000311,-2.903791379641611492
0.476000000000000312,-2.875728148723093902
0.477000000000000313,-2.848085506937968248
0.478000000000000314,-2.820857709647755396
0.479000000000000314,-2.794039039000232982
0.480000000000000315,-2.767623805647117852
0.481000000000000316,-2.741606350384862445
0.482000000000000317,-2.715981045720384568
0.483000000000000318,-2.690742297363749369
0.484000000000000319,-2.665884545649621185
0.485000000000000320,-2.641402266889436135
0.486000000000000321,-2.617289974656055396
0.487000000000000322,-2.593542221002764769
0.488000000000000322,-2.570153597618359154
0.489000000000000323,-2.547118736920133131
0.490000000000000324,-2.524432313086436341
0.491000000000000325,-2.502089043030546467
0.492000000000000326,-2.480083687317465646
0.493000000000000327,-2.458411051025360283
0.494000000000000328,-2.437065984553189679
0.495000000000000329,-2.416043384376139080
0.496000000000000330,-2.395338193750398581
0.497000000000000330,-2.374945403368818653
0.498000000000000331,-2.354860051968915791
0.499000000000000332,-2.335077226894738178
0.500000000000000333,-2.315592064613984036
0.501000000000000334,-2.296399751191796401
0.502000000000000335,-2.277495522722619459
0.503000000000000336,-2.258874665721477104
0.504000000000000337,-2.240532517475960272
0.505000000000000338,-2.222464466360266844
0.506000000000000338,-2.204665952112518479
0.507000000000000339,-2.187132466076624482
0.508000000000000340,-2.169859551409878851
0.509000000000000341,-2.152842803257522419
0.510000000000000342,-2.136077868895364329
0.511000000000000343,-2.119560447841650763
0.512000000000000344,-2.103286291939248986
0.513000000000000345,-2.087251205409260457
0.514000000000000346,-2.071451044877101300
0.515000000000000346,-2.055881719372067984
0.516000000000000347,-2.040539190301401185
0.517000000000000348,-2.025419471399879434
0.518000000000000349,-2.010518628655785456
0.519000000000000350,-1.995832780214294333
0.520000000000000351,-1.981358096259124846
0.521000000000000352,-1.967090798873369240
0.522000000000000353,-1.953027161880342089
0.523000000000000353,-1.939163510665300905
0.524000000000000354,-1.925496221978879374
0.525000000000000355,-1.912021723722984845
0.526000000000000356,-1.898736494719961199
0.527000000000000357,-1.885637064465801371
0.528000000000000358,-1.872720012868068551
0.529000000000000359,-1.859981969969323412
0.530000000000000360,-1.847419615656689995
0.531000000000000361,-1.835029679358275434
0.532000000000000361,-1.822808939727065036
0.533000000000000362,-1.810754224312968841
0.534000000000000363,-1.798862409223603409
0.535000000000000364,-1.787130418774419693
0.536000000000000365,-1.775555225128782499
0.537000000000000366,-1.764133847928534227
0.538000000000000367,-1.752863353915594002
0.539000000000000368,-1.741740856545182181
0.540000000000000369,-1.730763515591081214
0.541000000000000369,-1.719928536743540182
0.542000000000000370,-1.709233171200239099
0.543000000000000371,-1.698674715250797052
0.544000000000000372,-1.688250509855308223
0.545000000000000373,-1.677957940217298827
0.546000000000000374,-1.667794435351565241
0.547000000000000375,-1.657757467647282157
0.548000000000000376,-1.647844552426817710
0.549000000000000377,-1.638053247500588228
0.550000000000000377,-1.628381152718346270
0.551000000000000378,-1.618825909517288775
0.552000000000000379,-1.609385200467283950
0.553000000000000380,-1.600056748813592389
0.554000000000000381,-1.590838318017371966
0.555000000000000382,-1.581727711294317107
0.556000000000000383,-1.572722771151678245
0.557000000000000384,-1.563821378924021399
0.558000000000000385,-1.555021454307925932
0.559000000000000385,-1.546320954895975763
0.560000000000000386,-1.537717875710211901
0.561000000000000387,-1.529210248735376254
0.562000000000000388,-1.520796142452124577
0.563000000000000389,-1.512473661370485001
0.564000000000000390,-1.504240945563732890
0.565000000000000391,-1.496096170202947162
0.566000000000000392,-1.488037545092403713
0.567000000000000393,-1.480063314206036873
0.568000000000000393,-1.472171755225125001
0.569000000000000394,-1.464361179077403152
0.570000000000000395,-1.456629929477760710
0.571000000000000396,-1.448976382470678725
0.572000000000000397,-1.441398945974595502
0.573000000000000398,-1.433896059328302774
0.574000000000000399,-1.426466192839558556
0.575000000000000400,-1.419107847336017914
0.576000000000000401,-1.411819553718623776
0.577000000000000401,-1.404599872517600545
0.578000000000000402,-1.397447393451122233
0.579000000000000403,-1.390360734986800351
0.580000000000000404,-1.383338543906088569
0.581000000000000405,-1.376379494871700526
0.582000000000000406,-1.369482289998126712
0.583000000000000407,-1.362645658425354345
0.584000000000000408,-1.355868355895866850
0.585000000000000409,-1.349149164334987328
0.586000000000000409,-1.342486891434667040
0.587000000000000410,-1.335880370240770887
0.588000000000000411,-1.329328458743914698
0.589000000000000412,-1.322830039473950503
0.590000000000000413,-1.316384019098102431
0.591000000000000414,-1.309989328022858945
0.592000000000000415,-1.303644919999637830
0.593000000000000416,-1.297349771734273016
0.594000000000000417,-1.291102882500362758
0.595000000000000417,-1.284903273756544673
0.596000000000000418,-1.278749988767666546
0.597000000000000419,-1.272642092229971711
0.598000000000000420,-1.266578669900237264
0.599000000000000421,-1.260558828228956152
0.600000000000000422,-1.254581693997551151
0.601000000000000423,-1.248646413959648482
0.602000000000000424,-1.242752154486421512
0.603000000000000425,-1.236898101216036050
0.604000000000000425,-1.231083458707175726
0.605000000000000426,-1.225307450096680517
0.606000000000000427,-1.219569316761319522
0.607000000000000428,-1.213868317983622935
0.608000000000000429,-1.208203730621916439
0.609000000000000430,-1.202574848784374595
0.610000000000000431,-1.196980983507276886
0.611000000000000432,-1.191421462437320944
