# mos2-001_CS-10955-AC
# h[nm],U(h)[kJ/mol]
0.149999999999999994,112.564779559380014007
0.150999999999999995,109.360267299829388321
0.151999999999999996,106.690064620337281553
0.152999999999999997,104.187509847617917558
0.153999999999999998,101.707012199707406808
0.154999999999999999,99.212107147899260440
0.156000000000000000,96.712776481304572940
0.157000000000000001,94.232629718898024862
0.158000000000000002,91.793547935646728320
0.159000000000000002,89.410033225815908509
0.160000000000000003,87.088542622040762353
0.161000000000000004,84.829037929038349830
0.162000000000000005,82.627213216012179942
0.163000000000000006,80.476616241576806488
0.164000000000000007,78.370326114785271443
0.165000000000000008,76.302099363247137376
0.166000000000000009,74.267024855349774271
0.167000000000000010,72.261783502320525940
0.168000000000000010,70.284622704119755099
0.169000000000000011,68.335147787417739096
0.170000000000000012,66.414015191084217804
0.171000000000000013,64.522591850519603440
0.172000000000000014,62.662625892463530874
0.173000000000000015,60.835957176787545109
0.174000000000000016,59.044283034438890923
0.175000000000000017,57.288984713131057447
0.176000000000000018,55.571013180388966646
0.177000000000000018,53.890828535282153666
0.178000000000000019,52.248384811591144228
0.179000000000000020,50.643150922349349230
0.180000000000000021,49.074158474079730752
0.181000000000000022,47.540067822340731141
0.182000000000000023,46.039244778326931851
0.183000000000000024,44.569841607228809721
0.184000000000000025,43.129877238430474051
0.185000000000000026,41.717312837679905613
0.186000000000000026,40.330120010836111533
0.187000000000000027,38.966339883926323751
0.188000000000000028,37.624132121265034812
0.189000000000000029,36.301813602434421568
0.190000000000000030,34.997886989268614855
0.191000000000000031,33.711059790380701884
0.192000000000000032,32.440254790788557671
0.193000000000000033,31.184612876289822481
0.194000000000000034,29.943489364461420621
0.195000000000000034,28.716444973309744881
0.196000000000000035,27.503232529746981072
0.197000000000000036,26.303780456317884529
0.198000000000000037,25.118173987037394568
0.199000000000000038,23.946634960964779282
0.200000000000000039,22.789500932574160430
0.201000000000000040,21.647204226808078431
0.202000000000000041,20.520251458240263531
0.203000000000000042,19.409203931145853517
0.204000000000000042,18.314659242604182765
0.205000000000000043,17.237234325355018427
0.206000000000000044,16.177550091655788833
0.207000000000000045,15.136217774014287585
0.208000000000000046,14.113827003185344111
0.209000000000000047,13.110935617739817971
0.210000000000000048,12.128061162172157239
0.211000000000000049,11.165674001127026571
0.212000000000000050,10.224191955047242431
0.213000000000000050,9.303976346518361140
0.214000000000000051,8.405329335953227954
0.215000000000000052,7.528492419215022657
0.216000000000000053,6.673645957556712638
0.217000000000000054,5.840909611161298365
0.218000000000000055,5.030343550970826527
0.219000000000000056,4.241950328835100592
0.220000000000000057,3.475677292798238227
0.221000000000000058,2.731419442159291222
0.222000000000000058,2.009022625419587538
0.223000000000000059,1.308286993075635340
0.224000000000000060,0.628970626174478964
0.225000000000000061,-0.029206729577557995
0.226000000000000062,-0.666559885731556556
0.227000000000000063,-1.283434442352804128
0.228000000000000064,-1.880203074122547280
0.229000000000000065,-2.457261909500254138
0.230000000000000066,-3.015027034428237052
0.231000000000000066,-3.553931145909198452
0.232000000000000067,-4.074420375219007795
0.233000000000000068,-4.576951295529204877
0.234000000000000069,-5.061988124287220892
0.235000000000000070,-5.530000126815313166
0.236000000000000071,-5.981459224210835757
0.237000000000000072,-6.416837805730556177
0.238000000000000073,-6.836606743382143137
0.239000000000000073,-7.241233604391544176
0.240000000000000074,-7.631181055531191859
0.241000000000000075,-8.006905451940330209
0.242000000000000076,-8.368855602013807626
0.243000000000000077,-8.717471699144487829
0.244000000000000078,-9.053184410544577787
0.245000000000000079,-9.376414113013643359
0.246000000000000080,-9.687570265337212660
0.247000000000000081,-9.987050906965819763
0.248000000000000081,-10.275242272714406155
0.249000000000000082,-10.552518513416815793
0.250000000000000111,-10.819241512750483736
0.251000000000000112,-11.075760790794062061
0.252000000000000113,-11.322413485283387757
0.253000000000000114,-11.559524401970813656
0.254000000000000115,-11.787406125964542625
0.255000000000000115,-12.006359186411454942
0.256000000000000116,-12.216672267385698447
0.257000000000000117,-12.418622458345819126
0.258000000000000118,-12.612475538019776167
0.259000000000000119,-12.798486286065992701
0.260000000000000120,-12.976898817334241443
0.261000000000000121,-13.147946934009359765
0.262000000000000122,-13.311854491362334230
0.263000000000000123,-13.468835773253085009
0.264000000000000123,-13.619095873928509732
0.265000000000000124,-13.762831083034422264
0.266000000000000125,-13.900229271113044405
0.267000000000000126,-14.031470273186220865
0.268000000000000127,-14.156726268330682927
0.269000000000000128,-14.276162153434171387
0.270000000000000129,-14.389935909581785367
0.271000000000000130,-14.498198959760918214
0.272000000000000131,-14.601096516791077562
0.273000000000000131,-14.698767920583255986
0.274000000000000132,-14.791346964012763721
0.275000000000000133,-14.878962206851486627
0.276000000000000134,-14.961737277350053432
0.277000000000000135,-15.039791161189787871
0.278000000000000136,-15.113238477639303170
0.279000000000000137,-15.182189742851230463
0.280000000000000138,-15.246751620323744092
0.281000000000000139,-15.307027158628226715
0.282000000000000139,-15.363116016571316536
0.283000000000000140,-15.415114676016168360
0.284000000000000141,-15.463116642636043352
0.285000000000000142,-15.507212634913363658
0.286000000000000143,-15.547490761730301756
0.287000000000000144,-15.584036688923244895
0.288000000000000145,-15.616933795194444912
0.289000000000000146,-15.646263317789006919
0.290000000000000147,-15.672104488356868757
0.291000000000000147,-15.694534659425391609
0.292000000000000148,-15.713629421912283846
0.293000000000000149,-15.729462714107771859
0.294000000000000150,-15.742106922552746795
0.295000000000000151,-15.751632975234807432
0.296000000000000152,-15.758110427516637486
0.297000000000000153,-15.761607541203099814
0.298000000000000154,-15.762191357143056081
0.299000000000000155,-15.759927761750915920
0.300000000000000155,-15.754881547820934529
0.301000000000000156,-15.747116469994264065
0.302000000000000157,-15.736695295225663571
0.303000000000000158,-15.723679848583042684
0.304000000000000159,-15.708131054699027374
0.305000000000000160,-15.690108975179615669
0.306000000000000161,-15.669672842261096690
0.307000000000000162,-15.646881088992293130
0.308000000000000163,-15.621791376205361956
0.309000000000000163,-15.594460616524722596
0.310000000000000164,-15.564944995650435544
0.311000000000000165,-15.533299991139253748
0.312000000000000166,-15.499580388893869909
0.313000000000000167,-15.463840297558750336
0.314000000000000168,-15.426133161008824146
0.315000000000000169,-15.386511769106075320
0.316000000000000170,-15.345028266888059321
0.317000000000000171,-15.301734162341684709
0.318000000000000171,-15.256680332905540709
0.319000000000000172,-15.209917030834608553
0.320000000000000173,-15.161493887551724669
0.321000000000000174,-15.111459917101473849
0.322000000000000175,-15.059863518814074368
0.323000000000000176,-15.006752479278713253
0.324000000000000177,-14.952173973718412725
0.325000000000000178,-14.896174566851403398
0.326000000000000179,-14.838800213317488996
0.327000000000000179,-14.780096257741362820
0.328000000000000180,-14.720107434499007937
0.329000000000000181,-14.658877867247975146
0.330000000000000182,-14.596451068276635965
0.331000000000000183,-14.532869937723159381
0.332000000000000184,-14.468176762709944683
0.333000000000000185,-14.402413216435125065
0.334000000000000186,-14.335620357258823887
0.335000000000000187,-14.267838627817894803
0.336000000000000187,-14.199107854199606749
0.337000000000000188,-14.129467245201258407
0.338000000000000189,-14.058955391699948123
0.339000000000000190,-13.987610266153708949
0.340000000000000191,-13.915469222252582426
0.341000000000000192,-13.842568994736151211
0.342000000000000193,-13.768945699391249349
0.343000000000000194,-13.694634833242139038
0.344000000000000195,-13.619671274942870554
0.345000000000000195,-13.544089285380533028
0.346000000000000196,-13.467922508495750122
0.347000000000000197,-13.391203972325843807
0.348000000000000198,-13.313966090274524490
0.349000000000000199,-13.236240662610603280
0.350000000000000200,-13.158058878197419261
0.351000000000000201,-13.079451316453267751
0.352000000000000202,-13.000447949542451198
0.353000000000000203,-12.921078144795600906
0.354000000000000203,-12.841370667357214330
0.355000000000000204,-12.761353683057514274
0.356000000000000205,-12.681054761505349049
0.357000000000000206,-12.600500879398159881
0.358000000000000207,-12.519718424044418370
0.359000000000000208,-12.438733197093810645
0.360000000000000209,-12.357570418469817852
0.361000000000000210,-12.276254730499060130
0.362000000000000210,-12.194810202231519014
0.363000000000000211,-12.113260333945456537
0.364000000000000212,-12.031628061830740961
0.365000000000000213,-11.949935762843903575
0.366000000000000214,-11.868205259728361156
0.367000000000000215,-11.786457826192906495
0.368000000000000216,-11.704714192241670645
0.369000000000000217,-11.622994549648497653
0.370000000000000218,-11.541318557568905234
0.371000000000000218,-11.459705348282424708
0.372000000000000219,-11.378173533058490108
0.373000000000000220,-11.296741208138858070
0.374000000000000221,-11.215425960829584540
0.375000000000000222,-11.134244875695637589
0.376000000000000223,-11.053214540851488579
0.377000000000000224,-10.972351054340734322
0.378000000000000225,-10.891670030598216812
0.379000000000000226,-10.811186606988044900
0.380000000000000226,-10.730915450411117718
0.381000000000000227,-10.650870763975657241
0.382000000000000228,-10.571066293724749485
0.383000000000000229,-10.491515335414669963
0.384000000000000230,-10.412230741337969775
0.385000000000000231,-10.333224927185721498
0.386000000000000232,-10.254509878943016687
0.387000000000000233,-10.176097159812313109
0.388000000000000234,-10.097997917159130310
0.389000000000000234,-10.020222889475041583
0.390000000000000235,-9.942782413352578175
0.391000000000000236,-9.865686430467411228
0.392000000000000237,-9.788944494562759502
0.393000000000000238,-9.712565778431599739
0.394000000000000239,-9.636559080892011409
0.395000000000000240,-9.560932833751433435
0.396000000000000241,-9.485695108755692218
0.397000000000000242,-9.410853624518557226
0.398000000000000242,-9.336415753428250142
0.399000000000000243,-9.262388528526940945
0.400000000000000244,-9.188778650359683553
0.401000000000000245,-9.115592493789506534
0.402000000000000246,-9.042836114775219869
0.403000000000000247,-8.970515257108750973
0.404000000000000248,-8.898635359109183796
0.405000000000000249,-8.827201560270491854
0.406000000000000250,-8.756218707860233152
0.407000000000000250,-8.685691363466684578
0.408000000000000251,-8.615623809491850693
0.409000000000000252,-8.546020055588115838
0.410000000000000253,-8.476883845036182308
0.411000000000000254,-8.408218661062374366
0.412000000000000255,-8.340027733093142714
0.413000000000000256,-8.272314042945147605
0.414000000000000257,-8.205080330948913314
0.415000000000000258,-8.138329102004686177
0.416000000000000258,-8.072062631568815760
0.417000000000000259,-8.006282971569266493
0.418000000000000260,-7.940991956249078498
0.419000000000000261,-7.876191207936392047
0.420000000000000262,-7.811882142740048884
0.421000000000000263,-7.748065976169783653
0.422000000000000264,-7.684743728679967134
0.423000000000000265,-7.621916231136157016
0.424000000000000266,-7.559584130203745644
0.425000000000000266,-7.497747893657977336
0.426000000000000267,-7.436407815614768602
0.427000000000000268,-7.375564021681905835
0.428000000000000269,-7.315216474030114213
0.429000000000000270,-7.255364976383714470
0.430000000000000271,-7.196009178930557582
0.431000000000000272,-7.137148583151065040
0.432000000000000273,-7.078782546566182887
0.433000000000000274,-7.020910287404241501
0.434000000000000274,-6.963530889186651862
0.435000000000000275,-6.906643305232496921
0.436000000000000276,-6.850246363082159284
0.437000000000000277,-6.794338768840039400
0.438000000000000278,-6.738919111436672438
0.439000000000000279,-6.683985866810489895
0.440000000000000280,-6.629537402009420433
0.441000000000000281,-6.575571979212812224
0.442000000000000282,-6.522087759674012553
0.443000000000000282,-6.469082807583990125
0.444000000000000283,-6.416555093856564085
0.445000000000000284,-6.364502499835688276
0.446000000000000285,-6.312922820925274792
0.447000000000000286,-6.261813770142353519
0.448000000000000287,-6.211172981593841236
0.449000000000000288,-6.160998013877907908
0.450000000000000289,-6.111286353410320338
0.451000000000000290,-6.062035417676634452
0.452000000000000290,-6.013242558410890837
0.453000000000000291,-5.964905064701521376
0.454000000000000292,-5.917020166025329431
0.455000000000000293,-5.869585035210172386
0.456000000000000294,-5.822596791327325327
0.457000000000000295,-5.776052502514199993
0.458000000000000296,-5.729949188728314269
0.459000000000000297,-5.684283824433387977
0.460000000000000298,-5.639053341218351889
0.461000000000000298,-5.594254630350227409
0.462000000000000299,-5.549884545261697610
0.463000000000000300,-5.505939903974311989
0.464000000000000301,-5.462417491458186447
0.465000000000000302,-5.419314061929176418
0.466000000000000303,-5.376626341084359773
0.467000000000000304,-5.334351028276820728
0.468000000000000305,-5.292484798630635368
0.469000000000000306,-5.251024305096993139
0.470000000000000306,-5.209966180452433093
0.471000000000000307,-5.169307039240024437
0.472000000000000308,-5.129043479654606053
0.473000000000000309,-5.089172085372846155
0.474000000000000310,-5.049689427329193236
0.475000000000000311,-5.010592065438562059
0.476000000000000312,-4.971876550266844497
0.477000000000000313,-4.933539424649959315
0.478000000000000314,-4.895577225262572441
0.479000000000000314,-4.857986484137353678
0.480000000000000315,-4.820763730135630531
0.481000000000000316,-4.783905490370496061
0.482000000000000317,-4.747408291583150586
0.483000000000000318,-4.711268661473505759
0.484000000000000319,-4.675483129985858355
0.485000000000000320,-4.640048230550634756
0.486000000000000321,-4.604960501283025920
0.487000000000000322,-4.570216486139427658
0.488000000000000322,-4.535812736032550418
0.489000000000000323,-4.501745809906108065
0.490000000000000324,-4.468012275769920549
0.491000000000000325,-4.434608711696300887
0.492000000000000326,-4.401531706778529340
0.493000000000000327,-4.368777862052348304
0.494000000000000328,-4.336343791381196411
0.495000000000000329,-4.304226122306106461
0.496000000000000330,-4.272421496860977719
0.497000000000000330,-4.240926572354128510
0.498000000000000331,-4.209738022116809475
0.499000000000000332,-4.178852536219562985
0.500000000000000333,-4.148266822157138378
0.501000000000000334,-4.117977605502731286
0.502000000000000335,-4.087981630532301125
0.503000000000000336,-4.058275660819743891
0.504000000000000337,-4.028856479803570423
0.505000000000000338,-3.999720891325899252
0.506000000000000338,-3.970865720144406197
0.507000000000000339,-3.942287812417949677
0.508000000000000340,-3.913984036166561875
0.509000000000000341,-3.885951281706497618
0.510000000000000342,-3.858186462060964494
0.511000000000000343,-3.830686513347227873
0.512000000000000344,-3.803448395140700988
0.513000000000000345,-3.776469090816680030
0.514000000000000346,-3.749745607870345054
0.515000000000000346,-3.723274978215613373
0.516000000000000347,-3.697054258463440046
0.517000000000000348,-3.671080530180239609
0.518000000000000349,-3.645350900126856253
0.519000000000000350,-3.619862500478801870
0.520000000000000351,-3.594612489028209179
0.521000000000000352,-3.569598049368130521
0.522000000000000353,-3.544816391059640637
0.523000000000000353,-3.520264749782309188
0.524000000000000354,-3.495940387468593258
0.525000000000000355,-3.471840592422566374
0.526000000000000356,-3.447962679423548504
0.527000000000000357,-3.424303989815125071
0.528000000000000358,-3.400861891579962215
0.529000000000000359,-3.377633779400961433
0.530000000000000360,-3.354617074709152380
0.531000000000000361,-3.331809225718813217
0.532000000000000361,-3.309207707450203095
0.533000000000000362,-3.286810021740381949
0.534000000000000363,-3.264613697242515933
0.535000000000000364,-3.242616289414050446
0.536000000000000365,-3.220815380494190805
0.537000000000000366,-3.199208579471067626
0.538000000000000367,-3.177793522038920404
0.539000000000000368,-3.156567870545775811
0.540000000000000369,-3.135529313931843198
0.541000000000000369,-3.114675567659123345
0.542000000000000370,-3.094004373632468496
0.543000000000000371,-3.073513500112475150
0.544000000000000372,-3.053200741620555103
0.545000000000000373,-3.033063918836473416
0.546000000000000374,-3.013100878488674361
0.547000000000000375,-2.993309493237699126
0.548000000000000376,-2.973687661553032768
0.549000000000000377,-2.954233307583605583
0.550000000000000377,-2.934944381022259741
0.551000000000000378,-2.915818856964480510
0.552000000000000379,-2.896854735761624333
0.553000000000000380,-2.878050042868924852
0.554000000000000381,-2.859402828688506926
0.555000000000000382,-2.840911168407719956
0.556000000000000383,-2.822573161832913513
0.557000000000000384,-2.804386933219031430
0.558000000000000385,-2.786350631095126928
0.559000000000000385,-2.768462428086107874
0.560000000000000386,-2.750720520730866703
0.561000000000000387,-2.733123129297045928
0.562000000000000388,-2.715668497592618635
0.563000000000000389,-2.698354892774486480
0.564000000000000390,-2.681180605154284358
0.565000000000000391,-2.664143948001584494
0.566000000000000392,-2.647243257344664258
0.567000000000000393,-2.630476891769049086
0.568000000000000393,-2.613843232213928669
0.569000000000000394,-2.597340681766687087
0.570000000000000395,-2.580967665455680127
0.571000000000000396,-2.564722630041362805
0.572000000000000397,-2.548604043806011354
0.573000000000000398,-2.532610396342092507
0.574000000000000399,-2.516740198339491918
0.575000000000000400,-2.500991981371669226
0.576000000000000401,-2.485364297680926260
0.577000000000000401,-2.469855719962902985
0.578000000000000402,-2.454464841150389098
0.579000000000000403,-2.439190274196596508
0.580000000000000404,-2.424030651858030350
0.581000000000000405,-2.408984626477006508
0.582000000000000406,-2.394050869763976408
0.583000000000000407,-2.379228072579735898
0.584000000000000408,-2.364514944717618583
0.585000000000000409,-2.349910214685773546
0.586000000000000409,-2.335412629489615366
0.587000000000000410,-2.321020954414541038
0.588000000000000411,-2.306733972808976851
0.589000000000000412,-2.292550485867880461
0.590000000000000413,-2.278469312416709247
0.591000000000000414,-2.264489288695998415
0.592000000000000415,-2.250609268146589237
0.593000000000000416,-2.236828121195556740
0.594000000000000417,-2.223144735042935416
0.595000000000000417,-2.209558013449323788
0.596000000000000418,-2.196066876524326528
0.597000000000000419,-2.182670260516064609
0.598000000000000420,-2.169367117601612271
0.599000000000000421,-2.156156415678580629
0.600000000000000422,-2.143037138157792398
0.601000000000000423,-2.130008283757147680
0.602000000000000424,-2.117068866296700769
0.603000000000000425,-2.104217914495015052
0.604000000000000425,-2.091454471766808432
0.605000000000000426,-2.078777596021949670
0.606000000000000427,-2.066186359465864264
0.607000000000000428,-2.053679848401288588
0.608000000000000429,-2.041257163031573008
0.609000000000000430,-2.028917417265361678
