# mos2-001_CS-19489-AC
# h[nm],U(h)[kJ/mol]
0.200000000000000011,66.068089838777154910
0.201000000000000012,65.137768039819349042
0.202000000000000013,63.815629679467704705
0.203000000000000014,62.335692868441888947
0.204000000000000015,60.822521820232807954
0.205000000000000016,59.334262546913336678
0.206000000000000016,57.890989992143033760
0.207000000000000017,56.492843460530551170
0.208000000000000018,55.131179633386544481
0.209000000000000019,53.795048926966174463
0.210000000000000020,52.474621785158639398
0.211000000000000021,51.162695809673969904
0.212000000000000022,49.855056012282254585
0.213000000000000023,48.550203682097915703
0.214000000000000024,47.248787730226155190
0.215000000000000024,45.952945813031398359
0.216000000000000025,44.665675977874677471
0.217000000000000026,43.390301784317585998
0.218000000000000027,42.130056499415324822
0.219000000000000028,40.887788916136500461
0.220000000000000029,39.665780122607401381
0.221000000000000030,38.465653920114007747
0.222000000000000031,37.288361236419532929
0.223000000000000032,36.134219178083185398
0.224000000000000032,35.002987182922517206
0.225000000000000033,33.893965308448954943
0.226000000000000034,32.806102523706599072
0.227000000000000035,31.738105646838114637
0.228000000000000036,30.688542105725240106
0.229000000000000037,29.655931900321967021
0.230000000000000038,28.638825978314933707
0.231000000000000039,27.635869703962534061
0.232000000000000040,26.645851229653288783
0.233000000000000040,25.667735409476001962
0.234000000000000041,24.700684467710221526
0.235000000000000042,23.744066997001681329
0.236000000000000043,22.797457053132088589
0.237000000000000044,21.860625173806852217
0.238000000000000045,20.933523111061891342
0.239000000000000046,20.016263959022694507
0.240000000000000047,19.109099204232482094
0.241000000000000048,18.212394043487190487
0.242000000000000048,17.326602118893688953
0.243000000000000049,16.452240623003056896
0.244000000000000050,15.589866536670314190
0.245000000000000051,14.740054584557501727
0.246000000000000052,13.903377331723358878
0.247000000000000053,13.080387701690412428
0.248000000000000054,12.271604072671733476
0.249000000000000055,11.477498004240199947
0.250000000000000056,10.698484560910737073
0.251000000000000056,9.934915130676930772
0.252000000000000057,9.187072583982011764
0.253000000000000058,8.455168580221808838
0.254000000000000059,7.739342802906189256
0.255000000000000060,7.039663889291929877
0.256000000000000061,6.356131813945834708
0.257000000000000062,5.688681486712094504
0.258000000000000063,5.037187332478437085
0.259000000000000064,4.401468631642000418
0.260000000000000064,3.781295415099506840
0.261000000000000065,3.176394724908894851
0.262000000000000066,2.586457070615628240
0.263000000000000067,2.011142930874998402
0.264000000000000068,1.450089169820607093
0.265000000000000069,0.902915257138568128
0.266000000000000070,0.369229199620361603
0.267000000000000071,-0.151366890213858740
0.268000000000000071,-0.659271646217962193
0.269000000000000072,-1.154879763990225294
0.270000000000000073,-1.638577808242680067
0.271000000000000074,-2.110740528576067199
0.272000000000000075,-2.571727689230034475
0.273000000000000076,-3.021881408996988760
0.274000000000000077,-3.461523999509380722
0.275000000000000078,-3.890956283458910203
0.276000000000000079,-4.310456368895478008
0.277000000000000079,-4.720278851488627581
0.278000000000000080,-5.120654413410232308
0.279000000000000081,-5.511789785214515014
0.280000000000000082,-5.893868035642675807
0.281000000000000083,-6.267049153566249586
0.282000000000000084,-6.631470886205870663
0.283000000000000085,-6.987249798229280273
0.284000000000000086,-7.334482517257427503
0.285000000000000087,-7.673247132607768251
0.286000000000000087,-8.003604715708801720
0.287000000000000088,-8.325600932459414238
0.288000000000000089,-8.639267719822155911
0.289000000000000090,-8.944625001077387338
0.290000000000000091,-9.241682416376651332
0.291000000000000092,-9.530441047480332273
0.292000000000000093,-9.810895117807879373
0.293000000000000094,-10.083033651141548148
0.294000000000000095,-10.346842074479491558
0.295000000000000095,-10.602303752612542098
0.296000000000000096,-10.849401443982603865
0.297000000000000097,-11.088118669258424376
0.298000000000000098,-11.318440985825738210
0.299000000000000099,-11.540357163027895382
0.300000000000000100,-11.753860254504839844
0.301000000000000101,-11.958948565362616634
0.302000000000000102,-12.155626513160173729
0.303000000000000103,-12.343905382829607476
0.304000000000000103,-12.523803976650000891
0.305000000000000104,-12.695349161280585548
0.306000000000000105,-12.858576314629113213
0.307000000000000106,-13.013529675992433710
0.308000000000000107,-13.160262603464554232
0.309000000000000108,-13.298837743068862238
0.310000000000000109,-13.429327114443371016
0.311000000000000110,-13.551812118195886825
0.312000000000000111,-13.666383470259480859
0.313000000000000111,-13.773141068720903490
0.314000000000000112,-13.872193798675514387
0.315000000000000113,-13.963659280685821074
0.316000000000000114,-14.047663568394829881
0.317000000000000115,-14.124340800774538351
0.318000000000000116,-14.193832814380868967
0.319000000000000117,-14.256288720843901530
0.320000000000000118,-14.311864454650873313
0.321000000000000119,-14.360722296085318916
0.322000000000000119,-14.403030373970789668
0.323000000000000120,-14.438962152638236347
0.324000000000000121,-14.468695907294272018
0.325000000000000122,-14.492414191717013949
0.326000000000000123,-14.510303301950207455
0.327000000000000124,-14.522552739406942024
0.328000000000000125,-14.529354676534859792
0.329000000000000126,-14.530903427935848882
0.330000000000000127,-14.527394929578537841
0.331000000000000127,-14.519026228491460628
0.332000000000000128,-14.505994985080894466
0.333000000000000129,-14.488498989980906018
0.334000000000000130,-14.466735697114813775
0.335000000000000131,-14.440901774428857252
0.336000000000000132,-14.411192673549109600
0.337000000000000133,-14.377802219414608231
0.338000000000000134,-14.340922220751167515
0.339000000000000135,-14.300742102073380480
0.340000000000000135,-14.257448557736125849
0.341000000000000136,-14.211225228401962895
0.342000000000000137,-14.162252400146542186
0.343000000000000138,-14.110706726291201818
0.344000000000000139,-14.056760971929270099
0.345000000000000140,-14.000583781000802475
0.346000000000000141,-13.942339465668279530
0.347000000000000142,-13.882187817653917961
0.348000000000000143,-13.820283941116684900
0.349000000000000143,-13.756778106573340992
0.350000000000000144,-13.691815625303146220
0.351000000000000145,-13.625536743619042213
0.352000000000000146,-13.558076556339377916
0.353000000000000147,-13.489564938752632628
0.354000000000000148,-13.420126496333153909
0.355000000000000149,-13.349880531437639419
0.356000000000000150,-13.278941026190258512
0.357000000000000151,-13.207416640747746683
0.358000000000000151,-13.135410726124657543
0.359000000000000152,-13.063021350752503480
0.360000000000000153,-12.990341339944649235
0.361000000000000154,-12.917458327440650478
0.362000000000000155,-12.844454818209541713
0.363000000000000156,-12.771408261700614162
0.364000000000000157,-12.698391134741893183
0.365000000000000158,-12.625471033301646884
0.366000000000000159,-12.552710772344635615
0.367000000000000159,-12.480168493034236477
0.368000000000000160,-12.407897776552292868
0.369000000000000161,-12.335947763830679591
0.370000000000000162,-12.264363280512508680
0.371000000000000163,-12.193184966485480558
0.372000000000000164,-12.122449409355303018
0.373000000000000165,-12.052189281253751219
0.374000000000000166,-11.982433478402338523
0.375000000000000167,-11.913207262879780046
0.376000000000000167,-11.844532406068889685
0.377000000000000168,-11.776427333285615973
0.378000000000000169,-11.708907269120341965
0.379000000000000170,-11.641984383048727736
0.380000000000000171,-11.575667934895900402
0.381000000000000172,-11.509964419764639132
0.382000000000000173,-11.444877712063602715
0.383000000000000174,-11.380409208297749046
0.384000000000000175,-11.316557968307305870
0.385000000000000175,-11.253320854666299056
0.386000000000000176,-11.190692669974971807
0.387000000000000177,-11.128666291803153143
0.388000000000000178,-11.067232805063941470
0.389000000000000179,-11.006381631617854211
0.390000000000000180,-10.946100656928493322
0.391000000000000181,-10.886376353610041079
0.392000000000000182,-10.827193901725888026
0.393000000000000183,-10.768537305715479846
0.394000000000000183,-10.710389507843688151
0.395000000000000184,-10.652732498083224755
0.396000000000000185,-10.595547420356041357
0.397000000000000186,-10.538814675074238636
0.398000000000000187,-10.482514017934926542
0.399000000000000188,-10.426624654936293979
0.400000000000000189,-10.371125333594509499
0.401000000000000190,-10.315994430352390054
0.402000000000000191,-10.261210034181649675
0.403000000000000191,-10.206750026390251307
0.404000000000000192,-10.152592156655924072
0.405000000000000193,-10.098714115315241102
0.406000000000000194,-10.045093601945689343
0.407000000000000195,-9.991708390285523933
0.408000000000000196,-9.938536389542569793
0.409000000000000197,-9.885555702149494195
0.410000000000000198,-9.832744678028486618
0.411000000000000199,-9.780081965433078395
0.412000000000000199,-9.727546558439499336
0.413000000000000200,-9.675117841163821453
0.414000000000000201,-9.622775628784580704
0.415000000000000202,-9.570500205453566167
0.416000000000000203,-9.518272359180258491
0.417000000000000204,-9.466073413777346346
0.418000000000000205,-9.413885257956749797
0.419000000000000206,-9.361690371667055643
0.420000000000000207,-9.309471849764179296
0.421000000000000207,-9.257213423108286321
0.422000000000000208,-9.204899477180076062
0.423000000000000209,-9.152515068310185242
0.424000000000000210,-9.100045937615202973
0.425000000000000211,-9.047478522733593209
0.426000000000000212,-8.994799967454579104
0.427000000000000213,-8.941998129331953038
0.428000000000000214,-8.889061585374410157
0.429000000000000214,-8.835979635902583951
0.430000000000000215,-8.782742306662029819
0.431000000000000216,-8.729340349280015232
0.432000000000000217,-8.675765240152456315
0.433000000000000218,-8.622009177845866290
0.434000000000000219,-8.568065079097497261
0.435000000000000220,-8.513926573495075090
0.436000000000000221,-8.459587996915690411
0.437000000000000222,-8.405044383801483221
0.438000000000000222,-8.350291458347879114
0.439000000000000223,-8.295325624677952092
0.440000000000000224,-8.240143956074602372
0.441000000000000225,-8.184744183339951462
0.442000000000000226,-8.129124682349457842
0.443000000000000227,-8.073284460865831846
0.444000000000000228,-8.017223144675952540
0.445000000000000229,-7.960940963111648117
0.446000000000000230,-7.904438734012980028
0.447000000000000230,-7.847717848190782775
0.448000000000000231,-7.790780253442768810
0.449000000000000232,-7.733628438175441211
0.450000000000000233,-7.676265414682132970
0.451000000000000234,-7.618694702125064389
0.452000000000000235,-7.560920309267546990
0.453000000000000236,-7.502946717000133603
0.454000000000000237,-7.444778860702847112
0.455000000000000238,-7.386422112483198354
0.456000000000000238,-7.327882263328220347
0.457000000000000239,-7.269165505206444777
0.458000000000000240,-7.210278413154243893
0.459000000000000241,-7.151227927378707605
0.460000000000000242,-7.092021335407983074
0.461000000000000243,-7.032666254317715193
0.462000000000000244,-6.973170613061017598
0.463000000000000245,-6.913542634927293484
0.464000000000000246,-6.853790820154176622
0.465000000000000246,-6.793923928714738381
0.466000000000000247,-6.733950963301049697
0.467000000000000248,-6.673881152523451377
0.468000000000000249,-6.613723934343676447
0.469000000000000250,-6.553488939758449483
0.470000000000000251,-6.493185976748987009
0.471000000000000252,-6.432825014510410888
0.472000000000000253,-6.372416167974189527
0.473000000000000254,-6.311969682635038659
0.474000000000000254,-6.251495919693137893
0.475000000000000255,-6.191005341520986249
0.476000000000000256,-6.130508497463482698
0.477000000000000257,-6.070016009978711935
0.478000000000000258,-6.009538561125860490
0.479000000000000259,-5.949086879406031869
0.480000000000000260,-5.888671726960645891
0.481000000000000261,-5.828303887131308869
0.482000000000000262,-5.767994152384406270
0.483000000000000262,-5.707753312602756424
0.484000000000000263,-5.647592143745990612
0.485000000000000264,-5.587521396880736901
0.486000000000000265,-5.527551787580958553
0.487000000000000266,-5.467693985698207193
0.488000000000000267,-5.407958605501008265
0.489000000000000268,-5.348356196182107780
0.490000000000000269,-5.288897232731645026
0.491000000000000270,-5.229592107174076965
0.492000000000000270,-5.170451120165969527
0.493000000000000271,-5.111484472951632441
0.494000000000000272,-5.052702259672980922
0.495000000000000273,-4.994114460029683400
0.496000000000000274,-4.935730932285506967
0.497000000000000275,-4.877561406616116813
0.498000000000000276,-4.819615478793674690
0.499000000000000277,-4.761902604203070766
0.500000000000000222,-4.704432092184422487
0.501000000000000334,-4.647213100696396815
0.502000000000000224,-4.590254631294564902
0.503000000000000336,-4.533565524418786019
0.504000000000000226,-4.477154454983753418
0.505000000000000338,-4.421029928266202447
0.506000000000000227,-4.365200276082762620
0.507000000000000339,-4.309673653251657299
0.508000000000000229,-4.254458034332052385
0.509000000000000341,-4.199561210634082720
0.510000000000000231,-4.144990787493298079
0.511000000000000343,-4.090754181802308764
0.512000000000000233,-4.036858619793319392
0.513000000000000345,-3.983311135064385500
0.514000000000000234,-3.930118566842934591
0.515000000000000346,-3.877287558479342700
0.516000000000000236,-3.824824556164190259
0.517000000000000348,-3.772735807862010571
0.518000000000000238,-3.721027362455136878
0.519000000000000350,-3.669705069090557714
0.520000000000000240,-3.618774576723417624
0.521000000000000352,-3.568241333850300290
0.522000000000000242,-3.518110588425849894
0.523000000000000353,-3.468387387956089807
0.524000000000000243,-3.419076579762120982
0.525000000000000355,-3.370182811407672396
0.526000000000000245,-3.321710531284405299
0.527000000000000357,-3.273663989348461367
0.528000000000000247,-3.226047238002482054
0.529000000000000359,-3.178864133116714896
0.530000000000000249,-3.132118335183553093
0.531000000000000361,-3.085813310599422099
0.532000000000000250,-3.039952333068510981
0.533000000000000362,-2.994538485122449245
0.534000000000000252,-2.949574659750643590
0.535000000000000364,-2.905063562135629329
0.536000000000000254,-2.861007711488357863
0.537000000000000366,-2.817409442977900191
0.538000000000000256,-2.774270909750870651
0.539000000000000368,-2.731594085035158770
0.540000000000000258,-2.689380764323551887
0.541000000000000369,-2.647632567632035805
0.542000000000000259,-2.606350941828603496
0.543000000000000371,-2.565537163027638456
0.544000000000000261,-2.525192339045786216
0.545000000000000373,-2.485317411914810481
0.546000000000000263,-2.445913160447449552
0.547000000000000375,-2.406980202851949358
0.548000000000000265,-2.368518999391732827
0.549000000000000377,-2.330529855085887281
0.550000000000000266,-2.293012922447215995
0.551000000000000378,-2.255968204253895770
0.552000000000000268,-2.219395556351487553
0.553000000000000380,-2.183294690481735412
0.554000000000000270,-2.147665177135065218
0.555000000000000382,-2.112506448423389749
0.556000000000000272,-2.077817800970428230
0.557000000000000384,-2.043598398816278916
0.558000000000000274,-2.009847276333718291
0.559000000000000385,-1.976563341153142472
0.560000000000000275,-1.943745377093819782
0.561000000000000387,-1.911392047098627867
0.562000000000000277,-1.879501896170014508
0.563000000000000389,-1.848073354304689442
0.564000000000000279,-1.817104739424897364
0.565000000000000391,-1.786594260303971726
0.566000000000000281,-1.756540019484204240
0.567000000000000393,-1.726940016184910887
0.568000000000000282,-1.697792149198944944
0.569000000000000394,-1.669094219775602683
0.570000000000000284,-1.640843934488443123
0.571000000000000396,-1.613038908086099621
0.572000000000000286,-1.585676666324753459
0.573000000000000398,-1.558754648780491969
0.574000000000000288,-1.532270211640368585
0.575000000000000400,-1.506220630470641142
0.576000000000000290,-1.480603102960982742
0.577000000000000401,-1.455414751643392623
0.578000000000000291,-1.430652626584729914
0.579000000000000403,-1.406313708051690536
0.580000000000000293,-1.382394909147327544
0.581000000000000405,-1.358893078418013545
0.582000000000000295,-1.335805002430116684
0.583000000000000407,-1.313127408315385214
0.584000000000000297,-1.290856966284403162
0.585000000000000409,-1.268990292107282203
0.586000000000000298,-1.247523949561023526
0.587000000000000410,-1.226454452842816956
0.588000000000000300,-1.205778268948838328
0.589000000000000412,-1.185491820017888553
0.590000000000000302,-1.165591485639524638
0.591000000000000414,-1.146073605126201489
0.592000000000000304,-1.126934479749033269
0.593000000000000416,-1.108170374936847669
0.594000000000000306,-1.089777522438279078
0.595000000000000417,-1.071752122446562483
0.596000000000000307,-1.054090345686871544
0.597000000000000419,-1.036788335465996580
0.598000000000000309,-1.019842209684236778
0.599000000000000421,-1.003248062809328989
0.600000000000000311,-0.987001967812448533
0.601000000000000423,-0.971099978066091829
0.602000000000000313,-0.955538129203992503
0.603000000000000425,-0.940312440942864036
0.604000000000000314,-0.925418918866278917
0.605000000000000426,-0.910853556170467593
0.606000000000000316,-0.896612335372379166
0.607000000000000428,-0.882691229979911673
0.608000000000000318,-0.869086206124630278
0.609000000000000430,-0.855793224156982113
0.610000000000000320,-0.842808240204310999
0.611000000000000432,-0.830127207691786495
0.612000000000000322,-0.817746078826532496
0.613000000000000433,-0.805660806045146116
0.614000000000000323,-0.793867343424911942
0.615000000000000435,-0.782361648058940262
0.616000000000000325,-0.771139681395553778
0.617000000000000437,-0.760197410542199359
0.618000000000000327,-0.749530809534238340
0.619000000000000439,-0.739135860568887693
0.620000000000000329,-0.729008555204725739
0.621000000000000441,-0.719144895527063732
0.622000000000000330,-0.709540895279575645
0.623000000000000442,-0.700192580962535893
0.624000000000000332,-0.691095992898084988
0.625000000000000444,-0.682247186262886607
0.626000000000000334,-0.673642232088584092
0.627000000000000446,-0.665277218230475809
0.628000000000000336,-0.657148250304811499
0.629000000000000448,-0.649251452595123513
0.630000000000000338,-0.641582968928061881
0.631000000000000449,-0.634138963519098042
0.632000000000000339,-0.626915621788597166
0.633000000000000451,-0.619909151148653526
0.634000000000000341,-0.613115781761163214
0.635000000000000453,-0.606531767267571298
0.636000000000000343,-0.600153385490714508
0.637000000000000455,-0.593976939109277735
0.638000000000000345,-0.587998756305250891
0.639000000000000457,-0.582215191384861663
0.640000000000000346,-0.576622625373472752
0.641000000000000458,-0.571217466584845956
0.642000000000000348,-0.565996151165274464
0.643000000000000460,-0.560955143613005025
0.644000000000000350,-0.556090937273446384
0.645000000000000462,-0.551400054810574636
0.646000000000000352,-0.546879048655024569
0.647000000000000464,-0.542524501429292427
0.648000000000000353,-0.538333026350542809
0.649000000000000465,-0.534301267611408726
0.650000000000000355,-0.530425900739301071
0.651000000000000467,-0.526703632934605537
0.652000000000000357,-0.523131203388273569
0.653000000000000469,-0.519705383579190050
0.654000000000000359,-0.516422977551810547
0.655000000000000471,-0.513280822174439599
0.656000000000000361,-0.510275787378645207
0.657000000000000473,-0.507404776380188549
0.658000000000000362,-0.504664725881922571
0.659000000000000474,-0.502052606259049461
0.660000000000000364,-0.499565421727200420
