# mos2-001_CS-66579-AC
# h[nm],U(h)[kJ/mol]
0.149999999999999994,100.280694787306714488
0.150999999999999995,97.028235437977727429
0.151999999999999996,94.932822830660654745
0.152999999999999997,93.130432227578879179
0.153999999999999998,91.289096712722027860
0.154999999999999999,89.334102204237666456
0.156000000000000000,87.296660179443392735
0.157000000000000001,85.236348473232709466
0.158000000000000002,83.205963761911263532
0.159000000000000002,81.239452132363553005
0.160000000000000003,79.351346503063439286
0.161000000000000004,77.541062400465804672
0.162000000000000005,75.798455386575597004
0.163000000000000006,74.108879612489587885
0.164000000000000007,72.457046850764356805
0.165000000000000008,70.829560251403293591
0.166000000000000009,69.216277621553118138
0.167000000000000010,67.610768004746205406
0.168000000000000010,66.010140159319476538
0.169000000000000011,64.414489736518106611
0.170000000000000012,62.826161638711496948
0.171000000000000013,61.248970912698041502
0.172000000000000014,59.687477613199369841
0.173000000000000015,58.146371734673074627
0.174000000000000016,56.629994279755621278
0.175000000000000017,55.141999130604844481
0.176000000000000018,53.685146297441200147
0.177000000000000018,52.261208830163567995
0.178000000000000019,50.870971746070644315
0.179000000000000020,49.514300481334473147
0.180000000000000021,48.190257573061401786
0.181000000000000022,46.897248706812192154
0.182000000000000023,45.633182311997380509
0.183000000000000024,44.395630120828656118
0.184000000000000025,43.181979233976690580
0.185000000000000026,41.989569076905056022
0.186000000000000026,40.815809086987989929
0.187000000000000027,39.658275004447190781
0.188000000000000028,38.514783252070294850
0.189000000000000029,37.383444107960897895
0.190000000000000030,36.262695245744936301
0.191000000000000031,35.151317788446924339
0.192000000000000032,34.048437348003844249
0.193000000000000033,32.953512652387907167
0.194000000000000034,31.866314342525225101
0.195000000000000034,30.786896392018139323
0.196000000000000035,29.715562398478493122
0.197000000000000036,28.652828744417213613
0.198000000000000037,27.599386350821362157
0.199000000000000038,26.556062465393324601
0.200000000000000039,25.523783653072932509
0.201000000000000040,24.503540898266553683
0.202000000000000041,23.496357492385897103
0.203000000000000042,22.503260170538332829
0.204000000000000042,21.525253779204383875
0.205000000000000043,20.563299602672699962
0.206000000000000044,19.618297348944572889
0.207000000000000045,18.691070694069274793
0.208000000000000046,17.782356205216643730
0.209000000000000047,16.892795404742450671
0.210000000000000048,16.022929697440954300
0.211000000000000049,15.173197858503957747
0.212000000000000050,14.343935767907051826
0.213000000000000050,13.535378075682649168
0.214000000000000051,12.747661489667917678
0.215000000000000052,11.980829390920595401
0.216000000000000053,11.234837500390998599
0.217000000000000054,10.509560342169896430
0.218000000000000055,9.804798272468199016
0.219000000000000056,9.120284868402576350
0.220000000000000057,8.455694495821864720
0.221000000000000058,7.810649900156649394
0.222000000000000058,7.184729688085766952
0.223000000000000059,6.577475590316159249
0.224000000000000060,5.988399416690333155
0.225000000000000061,5.416989633996856845
0.226000000000000062,4.862717514166610577
0.227000000000000063,4.325042815957814923
0.228000000000000064,3.803418976785466921
0.229000000000000065,3.297297803090665447
0.230000000000000066,2.806133657663468561
0.231000000000000066,2.329387150732935119
0.232000000000000067,1.866528348546774296
0.233000000000000068,1.417039518707722268
0.234000000000000069,0.980417435851293817
0.235000000000000070,0.556175274472473502
0.236000000000000071,0.143844117969901125
0.237000000000000072,-0.257025885601426030
0.238000000000000073,-0.646864689872706955
0.239000000000000073,-1.026081807305186056
0.240000000000000074,-1.395066026251412961
0.241000000000000075,-1.754185357871032469
0.242000000000000076,-2.103787183990318166
0.243000000000000077,-2.444198578402160482
0.244000000000000078,-2.775726775700105620
0.245000000000000079,-3.098659763470097861
0.246000000000000080,-3.413266975476155984
0.247000000000000081,-3.719800065331579475
0.248000000000000081,-4.018493742006854497
0.249000000000000082,-4.309566650362824269
0.250000000000000111,-4.593222281687628694
0.251000000000000112,-4.869649900939370113
0.252000000000000113,-5.139025479040545186
0.253000000000000114,-5.401512620120490382
0.254000000000000115,-5.657263475056135249
0.255000000000000115,-5.906419634008812203
0.256000000000000116,-6.149112991898125102
0.257000000000000117,-6.385466581889445159
0.258000000000000118,-6.615595373001818658
0.259000000000000119,-6.839607028870820393
0.260000000000000120,-7.057602625529623808
0.261000000000000121,-7.269677326804685258
0.262000000000000122,-7.475921016567149024
0.263000000000000123,-7.676418887640396704
0.264000000000000123,-7.871251987646208370
0.265000000000000124,-8.060497722480459259
0.266000000000000125,-8.244230318452043349
0.267000000000000126,-8.422521244399918672
0.268000000000000127,-8.595439595330297777
0.269000000000000128,-8.763052439292442486
0.270000000000000129,-8.925425129344898068
0.271000000000000130,-9.082621582557585782
0.272000000000000131,-9.234704528054377803
0.273000000000000131,-9.381735726130115083
0.274000000000000132,-9.523776160479307862
0.275000000000000133,-9.660886205555014428
0.276000000000000134,-9.793125771039040472
0.277000000000000135,-9.920554425351323147
0.278000000000000136,-10.043231500061168049
0.279000000000000137,-10.161216176987135640
0.280000000000000138,-10.274567559688907892
0.281000000000000139,-10.383344730965394120
0.282000000000000139,-10.487606797880236087
0.283000000000000140,-10.587412925740336433
0.284000000000000141,-10.682822362356601431
0.285000000000000142,-10.773894453819792716
0.286000000000000143,-10.860688652929313847
0.287000000000000144,-10.943264521319354898
0.288000000000000145,-11.021681726236785437
0.289000000000000146,-11.096000032837430638
0.290000000000000147,-11.166279292784306421
0.291000000000000147,-11.232579429851355712
0.292000000000000148,-11.294960423161482410
0.293000000000000149,-11.353482288616257634
0.294000000000000150,-11.408205059008668769
0.295000000000000151,-11.459188763248361553
0.296000000000000152,-11.506493405071513081
0.297000000000000153,-11.550178941554644751
0.298000000000000154,-11.590305261703230499
0.299000000000000155,-11.626932165341745673
0.300000000000000155,-11.660119342491608307
0.301000000000000156,-11.689926353387175340
0.302000000000000157,-11.716412609247559118
0.303000000000000158,-11.739637353892870664
0.304000000000000159,-11.759659646267952127
0.305000000000000160,-11.776538343913840023
0.306000000000000161,-11.790332087407836781
0.307000000000000162,-11.801099285775840997
0.308000000000000163,-11.808898102866033142
0.309000000000000163,-11.813786444661021235
0.310000000000000164,-11.815821947495198430
0.311000000000000165,-11.815061967135843446
0.312000000000000166,-11.811563568680089276
0.313000000000000167,-11.805383517214794509
0.314000000000000168,-11.796578269182763421
0.315000000000000169,-11.785203964396428589
0.316000000000000170,-11.771316418638914314
0.317000000000000171,-11.754971116791859131
0.318000000000000171,-11.736223206430063115
0.319000000000000172,-11.715127491824190997
0.320000000000000173,-11.691738428294536689
0.321000000000000174,-11.666110116861133861
0.322000000000000175,-11.638296299138337631
0.323000000000000176,-11.608350352424938734
0.324000000000000177,-11.576325284944292804
0.325000000000000178,-11.542273731192254971
0.326000000000000179,-11.506247947354637517
0.327000000000000179,-11.468299806759329584
0.328000000000000180,-11.428480795332033537
0.329000000000000181,-11.386842007028501911
0.330000000000000182,-11.343434139219397139
0.331000000000000183,-11.298307488008003219
0.332000000000000184,-11.251511943463999188
0.333000000000000185,-11.203096984760295030
0.334000000000000186,-11.153111675202863395
0.335000000000000187,-11.101604657146591393
0.336000000000000187,-11.048624146793263989
0.337000000000000188,-10.994217928870044787
0.338000000000000189,-10.938433351189852161
0.339000000000000190,-10.881317319096989849
0.340000000000000191,-10.822916289803455214
0.341000000000000192,-10.763276266623702071
0.342000000000000193,-10.702442793116794917
0.343000000000000194,-10.640460947146994641
0.344000000000000195,-10.577375334874595580
0.345000000000000195,-10.513230084690635024
0.346000000000000196,-10.448068841109565241
0.347000000000000197,-10.381934758635097182
0.348000000000000198,-10.314870495615112489
0.349000000000000199,-10.246918208101860159
0.350000000000000200,-10.178119543734343466
0.351000000000000201,-10.108515635659751197
0.352000000000000202,-10.038147096511115919
0.353000000000000203,-9.967054012458307355
0.354000000000000203,-9.895275937349415685
0.355000000000000204,-9.822851886959229617
0.356000000000000205,-9.749820333361451929
0.357000000000000206,-9.676219199440797780
0.358000000000000207,-9.602085853560524242
0.359000000000000208,-9.527457104400706811
0.360000000000000209,-9.452369195981818351
0.361000000000000210,-9.376857802887519355
0.362000000000000210,-9.300958025699966214
0.363000000000000211,-9.224704386660178557
0.364000000000000212,-9.148130825565342406
0.365000000000000213,-9.071270695913932869
0.366000000000000214,-8.994156761309060499
0.367000000000000215,-8.916821192129271267
0.368000000000000216,-8.839295562475591339
0.369000000000000217,-8.761610847402385716
0.370000000000000218,-8.683797420439104187
0.371000000000000218,-8.605885051408893816
0.372000000000000219,-8.527902904549435448
0.373000000000000220,-8.449879536940411384
0.374000000000000221,-8.371842897241277726
0.375000000000000222,-8.293820324742174677
0.376000000000000223,-8.215838548730083346
0.377000000000000224,-8.137923688171580849
0.378000000000000225,-8.060101251712787018
0.379000000000000226,-7.982396137996355279
0.380000000000000226,-7.904832636294875314
0.381000000000000227,-7.827434427459030175
0.382000000000000228,-7.750224585178645320
0.383000000000000229,-7.673225577553873578
0.384000000000000230,-7.596459268973204004
0.385000000000000231,-7.519946922294694858
0.386000000000000232,-7.443709201325940050
0.387000000000000233,-7.367766173598137236
0.388000000000000234,-7.292137313428865397
0.389000000000000234,-7.216841505268104306
0.390000000000000235,-7.141897047321243974
0.391000000000000236,-7.067321655442816208
0.392000000000000237,-6.993132467294040922
0.393000000000000238,-6.919346046757287816
0.394000000000000239,-6.845978388599917253
0.395000000000000240,-6.773044923380050264
0.396000000000000241,-6.700560522586345158
0.397000000000000242,-6.628539504003756022
0.398000000000000242,-6.556995637297120538
0.399000000000000243,-6.485942149804176715
0.400000000000000244,-6.415391732529454494
0.401000000000000245,-6.345356546330624958
0.402000000000000246,-6.275848228288469777
0.403000000000000247,-6.206877898251776493
0.404000000000000248,-6.138456165548437760
0.405000000000000249,-6.070593135853918909
0.406000000000000250,-6.003298418208258269
0.407000000000000250,-5.936581132172880970
0.408000000000000251,-5.870449915118393314
0.409000000000000252,-5.804912929634730823
0.410000000000000253,-5.739977871054920300
0.411000000000000254,-5.675651975083949807
0.412000000000000255,-5.611942025524214728
0.413000000000000256,-5.548854362089212344
0.414000000000000257,-5.486394888297094319
0.415000000000000258,-5.424569079436075469
0.416000000000000258,-5.363381990593552473
0.417000000000000259,-5.302838264741113861
0.418000000000000260,-5.242942140867706158
0.419000000000000261,-5.183697462153355140
0.420000000000000262,-5.125107684176057887
0.421000000000000263,-5.067175883144619419
0.422000000000000264,-5.009904764150322265
0.423000000000000265,-4.953296669430542032
0.424000000000000266,-4.897353586637723133
0.425000000000000266,-4.842077157107025798
0.426000000000000267,-4.787468684116452877
0.427000000000000268,-4.733529141133298701
0.428000000000000269,-4.680259180040938993
0.429000000000000270,-4.627659139340314809
0.430000000000000271,-4.575729052320495427
0.431000000000000272,-4.524468655193021327
0.432000000000000273,-4.473877395184881145
0.433000000000000274,-4.423954438585216309
0.434000000000000274,-4.374698678740945645
0.435000000000000275,-4.326108743996832651
0.436000000000000276,-4.278183005575654008
0.437000000000000277,-4.230919585394240734
0.438000000000000278,-4.184316363811537265
0.439000000000000279,-4.138370987304881510
0.440000000000000280,-4.093080876070892771
0.441000000000000281,-4.048443231547620869
0.442000000000000282,-4.004455043854782126
0.443000000000000282,-3.961113099148983796
0.444000000000000283,-3.918413986891174261
0.445000000000000284,-3.876354107023628703
0.446000000000000285,-3.834929677053900754
0.447000000000000286,-3.794136739043596940
0.448000000000000287,-3.753971166499579404
0.449000000000000288,-3.714428671165824536
0.450000000000000289,-3.675504809713921794
0.451000000000000290,-3.637194990330623767
0.452000000000000290,-3.599494479200888719
0.453000000000000291,-3.562398406884999424
0.454000000000000292,-3.525901774588556581
0.455000000000000293,-3.489999460324172187
0.456000000000000294,-3.454686224963958718
0.457000000000000295,-3.419956718181905497
0.458000000000000296,-3.385805484285454803
0.459000000000000297,-3.352226967935670210
0.460000000000000298,-3.319215519755515764
0.461000000000000298,-3.286765401825861854
0.462000000000000299,-3.254870793069007284
0.463000000000000300,-3.223525794519491061
0.464000000000000301,-3.192724434482203666
0.465000000000000302,-3.162460673577842218
0.466000000000000303,-3.132728409675803682
0.467000000000000304,-3.103521482714777235
0.468000000000000305,-3.074833679411379528
0.469000000000000306,-3.046658737857165455
0.470000000000000306,-3.018990352004582878
0.471000000000000307,-2.991822176042311821
0.472000000000000308,-2.965147828660740892
0.473000000000000309,-2.938960897208172440
0.474000000000000310,-2.913254941738560699
0.475000000000000311,-2.888023498951594270
0.476000000000000312,-2.863260086026047979
0.477000000000000313,-2.838958204347231451
0.478000000000000314,-2.815111343129621524
0.479000000000000314,-2.791712982935692811
0.480000000000000315,-2.768756599091966475
0.481000000000000316,-2.746235665003502469
0.482000000000000317,-2.724143655367904593
0.483000000000000318,-2.702474049290103597
0.484000000000000319,-2.681220333299117797
0.485000000000000320,-2.660376004268102612
0.486000000000000321,-2.639934572238945343
0.487000000000000322,-2.619889563152759671
0.488000000000000322,-2.600234521487601036
0.489000000000000323,-2.580963012804837753
0.490000000000000324,-2.562068626205503907
0.491000000000000325,-2.543544976698111526
0.492000000000000326,-2.525385707479272934
0.493000000000000327,-2.507584492128681397
0.494000000000000328,-2.490135036719813399
0.495000000000000329,-2.473031081847886004
0.496000000000000330,-2.456266404576498807
0.497000000000000330,-2.439834820304493501
0.498000000000000331,-2.423730184554464984
0.499000000000000332,-2.407946394684475244
0.500000000000000333,-2.392477391524433283
0.501000000000000334,-2.377317160938631879
0.502000000000000335,-2.362459735315970644
0.503000000000000336,-2.347899194989342408
0.504000000000000337,-2.333629669585669753
0.505000000000000338,-2.319645339308094911
0.506000000000000338,-2.305940436151811213
0.507000000000000339,-2.292509245054989542
0.508000000000000340,-2.279346104986296417
0.509000000000000341,-2.266445409970460734
0.510000000000000342,-2.253801610053337789
0.511000000000000343,-2.241409212207913448
0.512000000000000344,-2.229262781182681064
0.513000000000000345,-2.217356940293820244
0.514000000000000346,-2.205686372162594999
0.515000000000000346,-2.194245819399331499
0.516000000000000347,-2.183030085235382778
0.517000000000000348,-2.172034034104489475
0.518000000000000349,-2.161252592174783604
0.519000000000000350,-2.150680747832879991
0.520000000000000351,-2.140313552121329899
0.521000000000000352,-2.130146119130748250
0.522000000000000353,-2.120173626347892526
0.523000000000000353,-2.110391314960986531
0.524000000000000354,-2.100794490123548908
0.525000000000000355,-2.091378521177932548
0.526000000000000356,-2.082138841839810794
0.527000000000000357,-2.073070950344839680
0.528000000000000358,-2.064170409558624186
0.529000000000000359,-2.055432847051199552
0.530000000000000360,-2.046853955137150738
0.531000000000000361,-2.038429490882501138
0.532000000000000361,-2.030155276079479432
0.533000000000000362,-2.022027197190253478
0.534000000000000363,-2.014041205260696188
0.535000000000000364,-2.006193315805240296
0.536000000000000365,-1.998479608663844331
0.537000000000000366,-1.990896227832088972
0.538000000000000367,-1.983439381265375889
0.539000000000000368,-1.976105340658254494
0.540000000000000369,-1.968890441199740993
0.541000000000000369,-1.961791081305660267
0.542000000000000370,-1.954803722328855908
0.543000000000000371,-1.947924888248186548
0.544000000000000372,-1.941151165337203777
0.545000000000000373,-1.934479201813336102
0.546000000000000374,-1.927905707468441587
0.547000000000000375,-1.921427453281526088
0.548000000000000376,-1.915041271014475965
0.549000000000000377,-1.908744052791526258
0.550000000000000377,-1.902532750663268546
0.551000000000000378,-1.896404376155944593
0.552000000000000379,-1.890355999806734744
0.553000000000000380,-1.884384750685774268
0.554000000000000381,-1.878487815905568237
0.555000000000000382,-1.872662440118525451
0.556000000000000383,-1.866905925003186084
0.557000000000000384,-1.861215628739899541
0.558000000000000385,-1.855588965476475227
0.559000000000000385,-1.850023404784483905
0.560000000000000386,-1.844516471106753430
0.561000000000000387,-1.839065743196684810
0.562000000000000388,-1.833668853549905275
0.563000000000000389,-1.828323487828836802
0.564000000000000390,-1.823027384280683449
0.565000000000000391,-1.817778333149373093
0.566000000000000392,-1.812574176081947375
0.567000000000000393,-1.807412805529884370
0.568000000000000393,-1.802292164145814057
0.569000000000000394,-1.797210244176108862
0.570000000000000395,-1.792165086849774935
0.571000000000000396,-1.787154781764059619
0.572000000000000397,-1.782177466267241384
0.573000000000000398,-1.777231324838933757
0.574000000000000399,-1.772314588468362206
0.575000000000000400,-1.767425534030940826
0.576000000000000401,-1.762562483663529633
0.577000000000000401,-1.757723804138753732
0.578000000000000402,-1.752907906238670988
0.579000000000000403,-1.748113244128147725
0.580000000000000404,-1.743338314728276828
0.581000000000000405,-1.738581657090103816
0.582000000000000406,-1.733841851768986420
0.583000000000000407,-1.729117520199854097
0.584000000000000408,-1.724407324073660819
0.585000000000000409,-1.719709964715264050
0.586000000000000409,-1.715024182463019686
0.587000000000000410,-1.710348756050307895
0.588000000000000411,-1.705682501989231881
0.589000000000000412,-1.701024273956730948
0.590000000000000413,-1.696372962183281929
0.591000000000000414,-1.691727492844442793
0.592000000000000415,-1.687086827455409388
0.593000000000000416,-1.682449962268767418
0.594000000000000417,-1.677815927675639474
0.595000000000000417,-1.673183787610403428
0.596000000000000418,-1.668552638959100110
0.597000000000000419,-1.663921610971764053
0.598000000000000420,-1.659289864678746840
0.599000000000000421,-1.654656592311232854
0.600000000000000422,-1.650021016726053391
0.601000000000000423,-1.645382390834928987
0.602000000000000424,-1.640739997038275444
0.603000000000000425,-1.636093146663677889
0.604000000000000425,-1.631441179409129250
0.605000000000000426,-1.626783462791146828
0.606000000000000427,-1.622119391597900862
0.607000000000000428,-1.617448387347322436
0.608000000000000429,-1.612769897750467418
0.609000000000000430,-1.608083396179996072
0.610000000000000431,-1.603388381144040364
0.611000000000000432,-1.598684375765388133
