# mos2-001_CS-72545-AC
# h[nm],U(h)[kJ/mol]
0.149999999999999994,105.047399276172626514
0.150999999999999995,102.167228696922563813
0.151999999999999996,100.022303667052852916
0.152999999999999997,98.065709095468108103
0.153999999999999998,96.088902824625250787
0.154999999999999999,94.046759703259610319
0.156000000000000000,91.961143499202506746
0.157000000000000001,89.871458591863216725
0.158000000000000002,87.812254251774390923
0.159000000000000002,85.805575300323894794
0.160000000000000003,83.860679818935153662
0.161000000000000004,81.976874042598339543
0.162000000000000005,80.147158387977611937
0.163000000000000006,78.361550927768121255
0.164000000000000007,76.609633465149201470
0.165000000000000008,74.882235208182009956
0.166000000000000009,73.172350831858096853
0.167000000000000010,71.475461458819268046
0.168000000000000010,69.789438109489921658
0.169000000000000011,68.114187836785873742
0.170000000000000012,66.451171100646320156
0.171000000000000013,64.802885099819576453
0.172000000000000014,63.172376989512045498
0.173000000000000015,61.562825429302435509
0.174000000000000016,59.977209269775357825
0.175000000000000017,58.418068027099558037
0.176000000000000018,56.887349315557422358
0.177000000000000018,55.386332676483526427
0.178000000000000019,53.915616351037101595
0.179000000000000020,52.475152692032438040
0.180000000000000021,51.064318431975479484
0.181000000000000022,49.682007396150396517
0.182000000000000023,48.326735075528013397
0.183000000000000024,46.996746469362328469
0.184000000000000025,45.690120576749357895
0.185000000000000026,44.404866736027244656
0.186000000000000026,43.139009610014014129
0.187000000000000027,41.890660961856809763
0.188000000000000028,40.658077455840036407
0.189000000000000029,39.439704562744033467
0.190000000000000030,38.234207273816139150
0.191000000000000031,37.040488760212625152
0.192000000000000032,35.857698386863411599
0.193000000000000033,34.685230631490739484
0.194000000000000034,33.522716499219512798
0.195000000000000034,32.370008986045533561
0.196000000000000035,31.227164052132103222
0.197000000000000036,30.094418436711258380
0.198000000000000037,28.972165495120144385
0.199000000000000038,27.860930076958560164
0.200000000000000039,26.761343301518099480
0.201000000000000040,25.674117929146511585
0.202000000000000041,24.600024879736999139
0.203000000000000042,23.539871315103702898
0.204000000000000042,22.494480582358541199
0.205000000000000043,21.464674211268935267
0.206000000000000044,20.451256069909838686
0.207000000000000045,19.454998709140390645
0.208000000000000046,18.476631866558477668
0.209000000000000047,17.516833053399281539
0.210000000000000048,16.576220111993940520
0.211000000000000049,15.655345605490115446
0.212000000000000050,14.754692884163407740
0.213000000000000050,13.874673662489573900
0.214000000000000051,13.015626936950031478
0.215000000000000052,12.177819075174575403
0.216000000000000053,11.361444911461845209
0.217000000000000054,10.566629691061804053
0.218000000000000055,9.793431715075023192
0.219000000000000056,9.041845548757986961
0.220000000000000057,8.311805667859317737
0.221000000000000058,7.603190429897365377
0.222000000000000058,6.915826269642669111
0.223000000000000059,6.249492030207177251
0.224000000000000060,5.603923352831895244
0.225000000000000061,4.978817059544328849
0.226000000000000062,4.373835473207881464
0.227000000000000063,3.788610629032414856
0.228000000000000064,3.222748340318051241
0.229000000000000065,2.675832089047380347
0.230000000000000066,2.147426718936362278
0.231000000000000066,1.637081914722373188
0.232000000000000067,1.144335456850652522
0.233000000000000068,0.668716245361359318
0.234000000000000069,0.209747090733376329
0.235000000000000070,-0.233052727237230528
0.236000000000000071,-0.660165128697969283
0.237000000000000072,-1.072071125083130738
0.238000000000000073,-1.469248924711638704
0.239000000000000073,-1.852172243446435163
0.240000000000000074,-2.221308810214421392
0.241000000000000075,-2.577119056483019754
0.242000000000000076,-2.920054978351392272
0.243000000000000077,-3.250559159699046408
0.244000000000000078,-3.569063944805387134
0.245000000000000079,-3.875990748978572320
0.246000000000000080,-4.171749495980589195
0.247000000000000081,-4.456738171383832103
0.248000000000000081,-4.731342481417546431
0.249000000000000082,-4.995935607342902429
0.250000000000000111,-5.250878045915568393
0.251000000000000112,-5.496517527039582518
0.252000000000000113,-5.733189000276185610
0.253000000000000114,-5.961214682432145473
0.254000000000000115,-6.180904159011200605
0.255000000000000115,-6.392554532857665173
0.256000000000000116,-6.596450613851700950
0.257000000000000117,-6.792865144025460822
0.258000000000000118,-6.982059052955127854
0.259000000000000119,-7.164281738745216899
0.260000000000000120,-7.339771370355899549
0.261000000000000121,-7.508755207430627188
0.262000000000000122,-7.671449934161479689
0.263000000000000123,-7.828062004081450809
0.264000000000000123,-7.978787992999161638
0.265000000000000124,-8.123814957590999697
0.266000000000000125,-8.263320797441512156
0.267000000000000126,-8.397474618574246819
0.268000000000000127,-8.526437096745350885
0.269000000000000128,-8.650360838980706291
0.270000000000000129,-8.769390742026747176
0.271000000000000130,-8.883664346556724212
0.272000000000000131,-8.993312186128216368
0.273000000000000131,-9.098458130027262669
0.274000000000000132,-9.199219719259174255
0.275000000000000133,-9.295708495058459420
0.276000000000000134,-9.388030319390583855
0.277000000000000135,-9.476285687007779401
0.278000000000000136,-9.560570028701439682
0.279000000000000137,-9.640974005464853391
0.280000000000000138,-9.717583793343305132
0.281000000000000139,-9.790481358805283918
0.282000000000000139,-9.859744724518410663
0.283000000000000140,-9.925448225458239904
0.284000000000000141,-9.987662755317343155
0.285000000000000142,-10.046456003217112851
0.286000000000000143,-10.101892680755494069
0.287000000000000144,-10.154034739450912284
0.288000000000000145,-10.202941578667289235
0.289000000000000146,-10.248670244125523965
0.290000000000000147,-10.291275617126252939
0.291000000000000147,-10.330810594624605159
0.292000000000000148,-10.367326260312530906
0.293000000000000149,-10.400872046876679988
0.294000000000000150,-10.431495889610918226
0.295000000000000151,-10.459244371572317789
0.296000000000000152,-10.484162860477578505
0.297000000000000153,-10.506295637544189603
0.298000000000000154,-10.525686018486503315
0.299000000000000155,-10.542376466882284802
0.300000000000000155,-10.556408700129402689
0.301000000000000156,-10.567823788215765290
0.302000000000000157,-10.576662245528442696
0.303000000000000158,-10.582964115929886617
0.304000000000000159,-10.586769051330632507
0.305000000000000160,-10.588116383988580793
0.306000000000000161,-10.587045192765419444
0.307000000000000162,-10.583594363570451691
0.308000000000000163,-10.577802644221430128
0.309000000000000163,-10.569708693950763845
0.310000000000000164,-10.559351127784275093
0.311000000000000165,-10.546768556017251939
0.312000000000000166,-10.531999619010779412
0.313000000000000167,-10.515083017528349174
0.314000000000000168,-10.496057538829978384
0.315000000000000169,-10.474962078737764415
0.316000000000000170,-10.451835659883455421
0.317000000000000171,-10.426717446344632378
0.318000000000000171,-10.399646754872263088
0.319000000000000172,-10.370663062908201724
0.320000000000000173,-10.339806013586747113
0.321000000000000174,-10.307115417909773925
0.322000000000000175,-10.272631254280311097
0.323000000000000176,-10.236393665574532008
0.324000000000000177,-10.198442953927127519
0.325000000000000178,-10.158819573399792802
0.326000000000000179,-10.117564120697737806
0.327000000000000179,-10.074717324093384718
0.328000000000000180,-10.030320030711349588
0.329000000000000181,-9.984413192323648545
0.330000000000000182,-9.937037849797953015
0.331000000000000183,-9.888235116337263264
0.332000000000000184,-9.838046159643031530
0.333000000000000185,-9.786512183129016051
0.334000000000000186,-9.733674406307327942
0.335000000000000187,-9.679574044463032934
0.336000000000000187,-9.624252287728264577
0.337000000000000188,-9.567750279661343171
0.338000000000000189,-9.510109095431625192
0.339000000000000190,-9.451369719705258632
0.340000000000000191,-9.391573024322068974
0.341000000000000192,-9.330759745849118048
0.342000000000000193,-9.268970463091108059
0.343000000000000194,-9.206245574633516782
0.344000000000000195,-9.142625276489253494
0.345000000000000195,-9.078149539915532529
0.346000000000000196,-9.012858089462699951
0.347000000000000197,-8.946790381312888840
0.348000000000000198,-8.879985581961895136
0.349000000000000199,-8.812482547293681634
0.350000000000000200,-8.744319802093047045
0.351000000000000201,-8.675535520038033965
0.352000000000000202,-8.606167504210045394
0.353000000000000203,-8.536253168156182625
0.354000000000000203,-8.465829517534700699
0.355000000000000204,-8.394933132371331652
0.356000000000000205,-8.323600149951072780
0.357000000000000206,-8.251866248367015544
0.358000000000000207,-8.179766630744762068
0.359000000000000208,-8.107336010158478601
0.360000000000000209,-8.034608595251807373
0.361000000000000210,-7.961618076574461966
0.362000000000000210,-7.888397613642871065
0.363000000000000211,-7.814979822731101144
0.364000000000000212,-7.741396765396115320
0.365000000000000213,-7.667679937739341867
0.366000000000000214,-7.593860260404801110
0.367000000000000215,-7.519968069312068515
0.368000000000000216,-7.446033107120894279
0.369000000000000217,-7.372084515422554496
0.370000000000000218,-7.298150827651691763
0.371000000000000218,-7.224259962710975813
0.372000000000000219,-7.150439219299675742
0.373000000000000220,-7.076715270936152713
0.374000000000000221,-7.003114161663122950
0.375000000000000222,-6.929661302423568259
0.376000000000000223,-6.856381468094381759
0.377000000000000224,-6.783298795163958061
0.378000000000000225,-6.710436780039145788
0.379000000000000226,-6.637818277966483826
0.380000000000000226,-6.565465502551960597
0.381000000000000227,-6.493400025862968050
0.382000000000000228,-6.421642779095869003
0.383000000000000229,-6.350214053792039515
0.384000000000000230,-6.279133503584913178
0.385000000000000231,-6.208420146460523092
0.386000000000000232,-6.138092367513538150
0.387000000000000233,-6.068167922180782270
0.388000000000000234,-5.998663939934101741
0.389000000000000234,-5.929596928414392565
0.390000000000000235,-5.860982777988455794
0.391000000000000236,-5.792836766710601104
0.392000000000000237,-5.725173565670641729
0.393000000000000238,-5.658007244710419492
0.394000000000000239,-5.591351278490670040
0.395000000000000240,-5.525218552890613921
0.396000000000000241,-5.459621371722532146
0.397000000000000242,-5.394571463743906392
0.398000000000000242,-5.330079989950020192
0.399000000000000243,-5.266157551129983183
0.400000000000000244,-5.202814195669495767
0.401000000000000245,-5.140059427584126261
0.402000000000000246,-5.077902214766855771
0.403000000000000247,-5.016350997434184222
0.404000000000000248,-4.955413696755471165
0.405000000000000249,-4.895097723650328803
0.406000000000000250,-4.835409987739404336
0.407000000000000250,-4.776356906434217287
0.408000000000000251,-4.717944414152015931
0.409000000000000252,-4.660177971642156081
0.410000000000000253,-4.603062575410685753
0.411000000000000254,-4.546602767230392139
0.412000000000000255,-4.490802643723840859
0.413000000000000256,-4.435665866007420632
0.414000000000000257,-4.381195669384656988
0.415000000000000258,-4.327394873077688331
0.416000000000000258,-4.274265889985940703
0.417000000000000259,-4.221810736461599767
0.418000000000000260,-4.170031042091826734
0.419000000000000261,-4.118928059478011328
0.420000000000000262,-4.068502674002795416
0.421000000000000263,-4.018755413576007740
0.422000000000000264,-3.969686458350893954
0.423000000000000265,-3.921295650402538691
0.424000000000000266,-3.873582503360769813
0.425000000000000266,-3.826546211989983792
0.426000000000000267,-3.780185661708944878
0.427000000000000268,-3.734499438043807462
0.428000000000000269,-3.689485836007969422
0.429000000000000270,-3.645142869402813179
0.430000000000000271,-3.601468280033512936
0.431000000000000272,-3.558459546834660703
0.432000000000000273,-3.516113894900545489
0.433000000000000274,-3.474428304415437374
0.434000000000000274,-3.433399519479325424
0.435000000000000275,-3.393024056825033163
0.436000000000000276,-3.353298214422837820
0.437000000000000277,-3.314218079968914932
0.438000000000000278,-3.275779539254398909
0.439000000000000279,-3.237978284411954455
0.440000000000000280,-3.200809822037009589
0.441000000000000281,-3.164269481181135379
0.442000000000000282,-3.128352421215286672
0.443000000000000282,-3.093053639560688683
0.444000000000000283,-3.058367979285635307
0.445000000000000284,-3.024290136566471610
0.446000000000000285,-2.990814668011264388
0.447000000000000286,-2.957935997845066112
0.448000000000000287,-2.925648424955516358
0.449000000000000288,-2.893946129798076861
0.450000000000000289,-2.862823181160092822
0.451000000000000290,-2.832273542783202203
0.452000000000000290,-2.802291079843716837
0.453000000000000291,-2.772869565290769778
0.454000000000000292,-2.744002686042166239
0.455000000000000293,-2.715684049038009640
0.456000000000000294,-2.687907187152354105
0.457000000000000295,-2.660665564963193397
0.458000000000000296,-2.633952584381274331
0.459000000000000297,-2.607761590138334196
0.460000000000000298,-2.582085875135435860
0.461000000000000298,-2.556918685652220358
0.462000000000000299,-2.532253226417998437
0.463000000000000300,-2.508082665545620760
0.464000000000000301,-2.484400139329288049
0.465000000000000302,-2.461198756907430951
0.466000000000000303,-2.438471604791895064
0.467000000000000304,-2.416211751264780272
0.468000000000000305,-2.394412250644335050
0.469000000000000306,-2.373066147421306837
0.470000000000000306,-2.352166480267351201
0.471000000000000307,-2.331706285916956389
0.472000000000000308,-2.311678602924631232
0.473000000000000309,-2.292076475298917337
0.474000000000000310,-2.272892956014995747
0.475000000000000311,-2.254121110407622197
0.476000000000000312,-2.235754019446214436
0.477000000000000313,-2.217784782893824413
0.478000000000000314,-2.200206522351936478
0.479000000000000314,-2.183012384192937638
0.480000000000000315,-2.166195542382111761
0.481000000000000316,-2.149749201191161863
0.482000000000000317,-2.133666597805107479
0.483000000000000318,-2.117941004824573259
0.484000000000000319,-2.102565732665372611
0.485000000000000320,-2.087534131857423425
0.486000000000000321,-2.072839595244901467
0.487000000000000322,-2.058475560089672030
0.488000000000000322,-2.044435510079918750
0.489000000000000323,-2.030712977246031059
0.490000000000000324,-2.017301543785666507
0.491000000000000325,-2.004194843800013004
0.492000000000000326,-1.991386564943164128
0.493000000000000327,-1.978870449986654290
0.494000000000000328,-1.966640298301037815
0.495000000000000329,-1.954689967256509231
0.496000000000000330,-1.943013373544458799
0.497000000000000330,-1.931604494421937046
0.498000000000000331,-1.920457368880872151
0.499000000000000332,-1.909566098743995299
0.500000000000000333,-1.898924849689319405
0.501000000000000334,-1.888527852205023949
0.502000000000000335,-1.878369402476607108
0.503000000000000336,-1.868443863208121503
0.504000000000000337,-1.858745664379279461
0.505000000000000338,-1.849269303940233256
0.506000000000000338,-1.840009348445771353
0.507000000000000339,-1.830960433630666184
0.508000000000000340,-1.822117264927900493
0.509000000000000341,-1.813474617931457811
0.510000000000000342,-1.805027338805331949
0.511000000000000343,-1.796770344640415740
0.512000000000000344,-1.788698623760865969
0.513000000000000345,-1.780807235981547887
0.514000000000000346,-1.773091312818144916
0.515000000000000346,-1.765546057651426137
0.516000000000000347,-1.758166745847216772
0.517000000000000348,-1.750948724833593761
0.518000000000000349,-1.743887414136676695
0.519000000000000350,-1.736978305376544851
0.520000000000000351,-1.730216962224634170
0.521000000000000352,-1.723599020324020348
0.522000000000000353,-1.717120187173922563
0.523000000000000353,-1.710776241979774737
0.524000000000000354,-1.704563035470168630
0.525000000000000355,-1.698476489681930435
0.526000000000000356,-1.692512597714574074
0.527000000000000357,-1.686667423455399328
0.528000000000000358,-1.680937101276360313
0.529000000000000359,-1.675317835703939995
0.530000000000000360,-1.669805901063125875
0.531000000000000361,-1.664397641096650560
0.532000000000000361,-1.659089468560531300
0.533000000000000362,-1.653877864797045349
0.534000000000000363,-1.648759379286118598
0.535000000000000364,-1.643730629176185065
0.536000000000000365,-1.638788298795490261
0.537000000000000366,-1.633929139144818077
0.538000000000000367,-1.629149967372554908
0.539000000000000368,-1.624447666233069798
0.540000000000000369,-1.619819183529222828
0.541000000000000369,-1.615261531539952999
0.542000000000000370,-1.610771786433740971
0.543000000000000371,-1.606347087668785978
0.544000000000000372,-1.601984637380721610
0.545000000000000373,-1.597681699758614737
0.546000000000000374,-1.593435600410039399
0.547000000000000375,-1.589243725715924205
0.548000000000000376,-1.585103522175951962
0.549000000000000377,-1.581012495745138136
0.550000000000000377,-1.576968211162295352
0.551000000000000378,-1.572968291271051644
0.552000000000000379,-1.569010416334027491
0.553000000000000380,-1.565092323340807168
0.554000000000000381,-1.561211805310283252
0.555000000000000382,-1.557366710587991143
0.556000000000000383,-1.553554942138913431
0.557000000000000384,-1.549774456836396253
0.558000000000000385,-1.546023264747608872
0.559000000000000385,-1.542299428416121332
0.560000000000000386,-1.538601062142028297
0.561000000000000387,-1.534926331260146881
0.562000000000000388,-1.531273451416699904
0.563000000000000389,-1.527640687844953327
0.564000000000000390,-1.524026354640204861
0.565000000000000391,-1.520428814034560983
0.566000000000000392,-1.516846475671866923
0.567000000000000393,-1.513277795883193333
0.568000000000000393,-1.509721276963216230
0.569000000000000394,-1.506175466447872369
0.570000000000000395,-1.502638956393599123
0.571000000000000396,-1.499110382658482177
0.572000000000000397,-1.495588424185660070
0.573000000000000398,-1.492071802289216764
0.574000000000000399,-1.488559279942912372
0.575000000000000400,-1.485049661071973004
0.576000000000000401,-1.481541789848230817
0.577000000000000401,-1.478034549988860746
0.578000000000000402,-1.474526864058935738
0.579000000000000403,-1.471017692778034958
0.580000000000000404,-1.467506034331131692
0.581000000000000405,-1.463990923683956558
0.582000000000000406,-1.460471431903022976
0.583000000000000407,-1.456946665480521874
0.584000000000000408,-1.453415765664250348
0.585000000000000409,-1.449877907792724407
0.586000000000000409,-1.446332300635672752
0.587000000000000410,-1.442778185740029029
0.588000000000000411,-1.439214836781564477
0.589000000000000412,-1.435641558922320815
0.590000000000000413,-1.432057688173924648
0.591000000000000414,-1.428462590766936158
0.592000000000000415,-1.424855662526335554
0.593000000000000416,-1.421236328253218328
0.594000000000000417,-1.417604041112830560
0.595000000000000417,-1.413958282029028179
0.596000000000000418,-1.410298559085197745
0.597000000000000419,-1.406624406931783255
0.598000000000000420,-1.402935386200417911
0.599000000000000421,-1.399231082924772052
0.600000000000000422,-1.395511107968149034
0.601000000000000423,-1.391775096457883887
0.602000000000000424,-1.388022707226588492
0.603000000000000425,-1.384253622260305239
0.604000000000000425,-1.380467546153552494
0.605000000000000426,-1.376664205571339838
0.606000000000000427,-1.372843348718185030
0.607000000000000428,-1.369004744814058094
0.608000000000000429,-1.365148183577437724
0.609000000000000430,-1.361273474715288589
0.610000000000000431,-1.357380447420163616
0.611000000000000432,-1.353468949874279570
0.612000000000000433,-1.349538848760643006
