# mos2-001_CS-72545-AC
# h[nm],U(h)[kJ/mol]
0.149999999999999994,105.047407407480676511
0.150999999999999995,102.167236858326674565
0.151999999999999996,100.022311670225150237
0.152999999999999997,98.065716868670278927
0.153999999999999998,96.088910361182769293
0.154999999999999999,94.046767026781608934
0.156000000000000000,91.961150642033643976
0.157000000000000001,89.871465583224832585
0.158000000000000002,87.812261112509091276
0.159000000000000002,85.805582041787985759
0.160000000000000003,83.860686444215687629
0.161000000000000004,81.976880548786880354
0.162000000000000005,80.147164768681591340
0.163000000000000006,78.361557175379445539
0.164000000000000007,76.609639572632275417
0.165000000000000008,74.882241170305476885
0.166000000000000009,73.172356645895632710
0.167000000000000010,71.475467124799308749
0.168000000000000010,69.789443630098190852
0.169000000000000011,68.114193217027477090
0.170000000000000012,66.451176347364423691
0.171000000000000013,64.802890221151869810
0.172000000000000014,63.172381994347688305
0.173000000000000015,61.562830326784194312
0.174000000000000016,59.977214068875674968
0.175000000000000017,58.418072736284990754
0.176000000000000018,56.887353942546020846
0.177000000000000018,55.386337228091122142
0.178000000000000019,53.915620833103879761
0.179000000000000020,52.475157109416798562
0.180000000000000021,51.064322788602034109
0.181000000000000022,49.682011695097600068
0.182000000000000023,48.326739319142276941
0.183000000000000024,46.996750659386869131
0.184000000000000025,45.690124714457397204
0.185000000000000026,44.404870822351469428
0.186000000000000026,43.139013645666082652
0.187000000000000027,41.890664947432128429
0.188000000000000028,40.658081391905362523
0.189000000000000029,39.439708449906120791
0.190000000000000030,38.234211112771561147
0.191000000000000031,37.040492551779188091
0.192000000000000032,35.857702131994770411
0.193000000000000033,34.685234331276205921
0.194000000000000034,33.522720154871215925
0.195000000000000034,32.370012598875320009
0.196000000000000035,31.227167623520767137
0.197000000000000036,30.094421968072435192
0.198000000000000037,28.972168987860914768
0.199000000000000038,27.860933532439144500
0.200000000000000039,26.761346721011967986
0.201000000000000040,25.674121313802764632
0.202000000000000041,24.600028230546012509
0.203000000000000042,23.539874632867046955
0.204000000000000042,22.494483867663905841
0.205000000000000043,21.464677464470465651
0.206000000000000044,20.451259291114077143
0.207000000000000045,19.455001898197938459
0.208000000000000046,18.476635023061209750
0.209000000000000047,17.516836176682854642
0.210000000000000048,16.576223201145264596
0.211000000000000049,15.655348659359273000
0.212000000000000050,14.754695901379568213
0.213000000000000050,13.874676641480323980
0.214000000000000051,13.015629875963565354
0.215000000000000052,12.177821972304124998
0.216000000000000053,11.361447764671856575
0.217000000000000054,10.566632498215218661
0.218000000000000055,9.793434473961216469
0.219000000000000056,9.041848257120857824
0.220000000000000057,8.311808323425101008
0.221000000000000058,7.603193030401724783
0.222000000000000058,6.915828812856792851
0.223000000000000059,6.249494513962533304
0.224000000000000060,5.603925775043399504
0.225000000000000061,4.978819418231728022
0.226000000000000062,4.373837766515210390
0.227000000000000063,3.788612855245362177
0.228000000000000064,3.222750497879219633
0.229000000000000065,2.675834176569336531
0.230000000000000066,2.147428735212530082
0.231000000000000066,1.637083858735734809
0.232000000000000067,1.144337327780355240
0.233000000000000068,0.668718042587245431
0.234000000000000069,0.209748813838583625
0.235000000000000070,-0.233051078465554007
0.236000000000000071,-0.660163554269667774
0.237000000000000072,-1.072069624807678201
0.238000000000000073,-1.469247498202238322
0.239000000000000073,-1.852170890125479641
0.240000000000000074,-2.221307529320136531
0.241000000000000075,-2.577117847077198487
0.242000000000000076,-2.920053839328025980
0.243000000000000077,-3.250558089793755379
0.244000000000000078,-3.569062942605498279
0.245000000000000079,-3.875989812933732903
0.246000000000000080,-4.171748624413776696
0.247000000000000081,-4.456737362502648736
0.248000000000000081,-4.731341733325715282
0.249000000000000082,-4.995934918051813334
0.250000000000000111,-5.250877413355833134
0.251000000000000112,-5.496516949072494107
0.252000000000000113,-5.733188474704992821
0.253000000000000114,-5.961214207013085797
0.254000000000000115,-6.180903731464249873
0.255000000000000115,-6.392554150876899044
0.256000000000000116,-6.596450275115273598
0.257000000000000117,-6.792864846205139528
0.258000000000000118,-6.982058793725346213
0.259000000000000119,-7.164281515791645738
0.260000000000000120,-7.339771181383468956
0.261000000000000121,-7.508755050171036949
0.262000000000000122,-7.671449806380148395
0.263000000000000123,-7.828061903583938275
0.264000000000000123,-7.978787917637006899
0.265000000000000124,-8.123814905267042974
0.266000000000000125,-8.263320766114672367
0.267000000000000126,-8.397474606263742203
0.268000000000000127,-8.526437101534437346
0.269000000000000128,-8.650360859019876614
0.270000000000000129,-8.769390775536493265
0.271000000000000130,-8.883664391829782403
0.272000000000000131,-8.993312241531388196
0.273000000000000131,-9.098458194002819965
0.274000000000000132,-9.199219790325830814
0.275000000000000133,-9.295708571811998056
0.276000000000000134,-9.388030400504101536
0.277000000000000135,-9.476285771231605537
0.278000000000000136,-9.560570114862738222
0.279000000000000137,-9.640974092466958467
0.280000000000000138,-9.717583880164763599
0.281000000000000139,-9.790481444498674080
0.282000000000000139,-9.859744808208953160
0.283000000000000140,-9.925448306342177673
0.284000000000000141,-9.987662832660191725
0.285000000000000142,-10.046456076351708120
0.286000000000000143,-10.101892749079944167
0.287000000000000144,-10.154034802426409101
0.288000000000000145,-10.202941635815824029
0.289000000000000146,-10.248670295027528354
0.290000000000000147,-10.291275661418174181
0.291000000000000147,-10.330810631996419247
0.292000000000000148,-10.367326290505230801
0.293000000000000149,-10.400872069679742538
0.294000000000000150,-10.431495904859731993
0.295000000000000151,-10.459244379145655301
0.296000000000000152,-10.484162860295050734
0.297000000000000153,-10.506295629563727090
0.298000000000000154,-10.525686002701856836
0.299000000000000155,-10.542376443320589985
0.300000000000000155,-10.556408668848767718
0.301000000000000156,-10.567823749302903025
0.302000000000000157,-10.576662199096386274
0.303000000000000158,-10.582964062115744142
0.304000000000000159,-10.586768990293418113
0.305000000000000160,-10.588116315907116771
0.306000000000000161,-10.587045117836291652
0.307000000000000162,-10.583594282006085763
0.308000000000000163,-10.577802556248183663
0.309000000000000163,-10.569708599807150051
0.310000000000000164,-10.559351027719245053
0.311000000000000165,-10.546768450288558583
0.312000000000000166,-10.531999507883423206
0.313000000000000167,-10.515082901273110849
0.314000000000000168,-10.496057417722019167
0.315000000000000169,-10.474961953055327513
0.316000000000000170,-10.451835529906627897
0.317000000000000171,-10.426717312354197631
0.318000000000000171,-10.399646617148619043
0.319000000000000172,-10.370662921730373185
0.320000000000000173,-10.339805869231449620
0.321000000000000174,-10.307115270650561101
0.322000000000000175,-10.272631104386784173
0.323000000000000176,-10.236393513311634607
0.324000000000000177,-10.198442799554481297
0.325000000000000178,-10.158819417171120136
0.326000000000000179,-10.117563962860320004
0.327000000000000179,-10.074717164887598386
0.328000000000000180,-10.030319870370252744
0.329000000000000181,-9.984413031072611133
0.330000000000000182,-9.937037687854356705
0.331000000000000183,-9.888234953910224334
0.332000000000000184,-9.838045996933201920
0.333000000000000185,-9.786512020328384409
0.334000000000000186,-9.733674243599107712
0.335000000000000187,-9.679573882021561104
0.336000000000000187,-9.624252125718937734
0.337000000000000188,-9.567750118240596180
0.338000000000000189,-9.510108934746936526
0.339000000000000190,-9.451369559895185901
0.340000000000000191,-9.391572865516318203
0.341000000000000192,-9.330759588168623608
0.342000000000000193,-9.268970306648142810
0.343000000000000194,-9.206245419531828844
0.344000000000000195,-9.142625122824224349
0.345000000000000195,-9.078149387774329782
0.346000000000000196,-9.012857938924479839
0.347000000000000197,-8.946790232448986302
0.348000000000000198,-8.879985434836028091
0.349000000000000199,-8.812482401962190792
0.350000000000000200,-8.744319658605117951
0.351000000000000201,-8.675535378435940359
0.352000000000000202,-8.606167364529392572
0.353000000000000203,-8.536253030426163235
0.354000000000000203,-8.465829381778359419
0.355000000000000204,-8.394932998605819208
0.356000000000000205,-8.323600018187905292
0.357000000000000206,-8.251866118612355194
0.358000000000000207,-8.179766502999665789
0.359000000000000208,-8.107335884419169858
0.360000000000000209,-8.034608471509951499
0.361000000000000210,-7.961617954817413079
0.362000000000000210,-7.888397493853941178
0.363000000000000211,-7.814979704889816858
0.364000000000000212,-7.741396649478467396
0.365000000000000213,-7.667679823718041909
0.366000000000000214,-7.593860148249523156
0.367000000000000215,-7.519967958989684398
0.368000000000000216,-7.446032998595723207
0.369000000000000217,-7.372084408656569110
0.370000000000000218,-7.298150722604766827
0.371000000000000218,-7.224259859341081835
0.372000000000000219,-7.150439117563108127
0.373000000000000220,-7.076715170787721831
0.374000000000000221,-7.003114063056361083
0.375000000000000222,-6.929661205310909899
0.376000000000000223,-6.856381372427361676
0.377000000000000224,-6.783298700893363176
0.378000000000000225,-6.710436687115207910
0.379000000000000226,-6.637818186339020876
0.380000000000000226,-6.565465412170546244
0.381000000000000227,-6.493399936677073825
0.382000000000000228,-6.421642691054993968
0.383000000000000229,-6.350213966845859481
0.384000000000000230,-6.279133417683387286
0.385000000000000231,-6.208420061554032365
0.386000000000000232,-6.138092283552978756
0.387000000000000233,-6.068167839117682760
0.388000000000000234,-5.998663857720712755
0.389000000000000234,-5.929596847003782756
0.390000000000000235,-5.860982697334594427
0.391000000000000236,-5.792836686768437993
0.392000000000000237,-5.725173486396178291
0.393000000000000238,-5.658007166060778026
0.394000000000000239,-5.591351200424151457
0.395000000000000240,-5.525218475366753701
0.396000000000000241,-5.459621294702151850
0.397000000000000242,-5.394571387189153633
0.398000000000000242,-5.330079913824410376
0.399000000000000243,-5.266157475398434151
0.400000000000000244,-5.202814120298356215
0.401000000000000245,-5.140059352541200610
0.402000000000000246,-5.077902140021423705
0.403000000000000247,-5.016350922957021119
0.404000000000000248,-4.955413622518851646
0.405000000000000249,-4.895097649628043612
0.406000000000000250,-4.835409913906761226
0.407000000000000250,-4.776356832768039240
0.408000000000000251,-4.717944340630642941
0.409000000000000252,-4.660177898245441597
0.410000000000000253,-4.603062502119978916
0.411000000000000254,-4.546602694028533342
0.412000000000000255,-4.490802570595148424
0.413000000000000256,-4.435665792937670382
0.414000000000000257,-4.381195596361064482
0.415000000000000258,-4.327394800088891991
0.416000000000000258,-4.274265817021968950
0.417000000000000259,-4.221810663513855033
0.418000000000000260,-4.170030969153053491
0.419000000000000261,-4.118927986542268549
0.420000000000000262,-4.068502601065427271
0.421000000000000263,-4.018755340633610729
0.422000000000000264,-3.969686385401287598
0.423000000000000265,-3.921295577444723790
0.424000000000000266,-3.873582430394901799
0.425000000000000266,-3.826546139017333648
0.426000000000000267,-3.780185588731860058
0.427000000000000268,-3.734499365065679033
0.428000000000000269,-3.689485763033192534
0.429000000000000270,-3.645142796436746213
0.430000000000000271,-3.601468207082441975
0.431000000000000272,-3.558459473905756454
0.432000000000000273,-3.516113822001828648
0.433000000000000274,-3.474428231555735547
0.434000000000000274,-3.433399446668234933
0.435000000000000275,-3.393023984072881749
0.436000000000000276,-3.353298141740636229
0.437000000000000277,-3.314218007368328500
0.438000000000000278,-3.275779466747705815
0.439000000000000279,-3.237978212011999091
0.440000000000000280,-3.200809749757171918
0.441000000000000281,-3.164269409035290526
0.442000000000000282,-3.128352349217768058
0.443000000000000282,-3.093053567726244513
0.444000000000000283,-3.058367907629401472
0.445000000000000284,-3.024290065103927727
0.446000000000000285,-2.990814596758199606
0.447000000000000286,-2.957935926817546690
0.448000000000000287,-2.925648354169847032
0.449000000000000288,-2.893946059270770643
0.450000000000000289,-2.862823110907839919
0.451000000000000290,-2.832273472822825600
0.452000000000000290,-2.802291010192156762
0.453000000000000291,-2.772869495965039732
0.454000000000000292,-2.744002617059329019
0.455000000000000293,-2.715683980415150689
0.456000000000000294,-2.687907118906545101
0.457000000000000295,-2.660665497111470934
0.458000000000000296,-2.633952516940609279
0.459000000000000297,-2.607761523125608605
0.460000000000000298,-2.582085808567414986
0.461000000000000298,-2.556918619545530902
0.462000000000000299,-2.532253160789102342
0.463000000000000300,-2.508082600410795671
0.464000000000000301,-2.484400074704604666
0.465000000000000302,-2.461198692808726385
0.466000000000000303,-2.438471541234764395
0.467000000000000304,-2.416211688264546353
0.468000000000000305,-2.394412188216034298
0.469000000000000306,-2.373066085579673690
0.470000000000000306,-2.352166419026797239
0.471000000000000307,-2.331706225291558354
0.472000000000000308,-2.311678542928113700
0.473000000000000309,-2.292076415944638956
0.474000000000000310,-2.272892897315935912
0.475000000000000311,-2.254121052376369061
0.476000000000000312,-2.235753962094951142
0.477000000000000313,-2.217784726234320214
0.478000000000000314,-2.200206466395534743
0.479000000000000314,-2.183012328950547420
0.480000000000000315,-2.166195487864196689
0.481000000000000316,-2.149749147407734373
0.482000000000000317,-2.133666544765721262
0.483000000000000318,-2.117940952538314381
0.484000000000000319,-2.102565681140856846
0.485000000000000320,-2.087534081102784711
0.486000000000000321,-2.072839545267795458
0.487000000000000322,-2.058475510897265437
0.488000000000000322,-2.044435461678887567
0.489000000000000323,-2.030712929642558340
0.490000000000000324,-2.017301496985439258
0.491000000000000325,-2.004194797808219519
0.492000000000000326,-1.991386519764495988
0.493000000000000327,-1.978870405625301476
0.494000000000000328,-1.966640254760690265
0.495000000000000329,-1.954689924540356838
0.496000000000000330,-1.943013331655193854
0.497000000000000330,-1.931604453361754237
0.498000000000000331,-1.920457328651467677
0.499000000000000332,-1.909566059346573086
0.500000000000000333,-1.898924811124590217
0.501000000000000334,-1.888527814473213384
0.502000000000000335,-1.878369365577451378
0.503000000000000336,-1.868443827140875868
0.504000000000000337,-1.858745629142724010
0.505000000000000338,-1.849269269532673565
0.506000000000000338,-1.840009314865043377
0.507000000000000339,-1.830960400874144911
0.508000000000000340,-1.822117232992499725
0.509000000000000341,-1.813474586813641043
0.510000000000000342,-1.805027308501115257
0.511000000000000343,-1.796770315145375552
0.512000000000000344,-1.788698595070143726
0.513000000000000345,-1.780807208089858928
0.514000000000000346,-1.773091285719783361
0.515000000000000346,-1.765546031340272659
0.516000000000000347,-1.758166720316745923
0.517000000000000348,-1.750948700076881082
0.518000000000000349,-1.743887390146408922
0.519000000000000350,-1.736978282145021923
0.520000000000000351,-1.730216939743783211
0.521000000000000352,-1.723598998585399666
0.522000000000000353,-1.717120166168732753
0.523000000000000353,-1.710776221698864230
0.524000000000000354,-1.704563015904045908
0.525000000000000355,-1.698476470820767359
0.526000000000000356,-1.692512579548218765
0.527000000000000357,-1.686667405973383271
0.528000000000000358,-1.680937084467907017
0.529000000000000359,-1.675317819557972765
0.530000000000000360,-1.669805885568280246
0.531000000000000361,-1.664397626241278960
0.532000000000000361,-1.659089454332713931
0.533000000000000362,-1.653877851184599068
0.534000000000000363,-1.648759366276606020
0.535000000000000364,-1.643730616756923668
0.536000000000000365,-1.638788286953559492
0.537000000000000366,-1.633929127867071340
0.538000000000000367,-1.629149956645625563
0.539000000000000368,-1.624447656043383148
0.540000000000000369,-1.619819173863000783
0.541000000000000369,-1.615261522383227843
0.542000000000000370,-1.610771777772361357
0.543000000000000371,-1.606347079488424701
0.544000000000000372,-1.601984629666886706
0.545000000000000373,-1.597681692496658368
0.546000000000000374,-1.593435593585164067
0.547000000000000375,-1.589243719313192749
0.548000000000000376,-1.585103516180295768
0.549000000000000377,-1.581012490141366911
0.550000000000000377,-1.576968205935102896
0.551000000000000378,-1.572968286405027394
0.552000000000000379,-1.569010411813659855
0.553000000000000380,-1.565092319150497513
0.554000000000000381,-1.561211801434350122
0.555000000000000382,-1.557366707010678253
0.556000000000000383,-1.553554938844398325
0.557000000000000384,-1.549774453808798302
0.558000000000000385,-1.546023261970996376
0.559000000000000385,-1.542299425874520624
0.560000000000000386,-1.538601059819427741
0.561000000000000387,-1.534926329140506862
0.562000000000000388,-1.531273449483959492
0.563000000000000389,-1.527640686083037380
0.564000000000000390,-1.524026353033030690
0.565000000000000391,-1.520428812566044563
0.566000000000000392,-1.516846474325930005
0.567000000000000393,-1.513277794643771212
0.568000000000000393,-1.509721275814263519
0.569000000000000394,-1.506175465373368993
0.570000000000000395,-1.502638955377556318
0.571000000000000396,-1.499110381684948923
0.572000000000000397,-1.495588423238730424
0.573000000000000398,-1.492071801353033411
0.574000000000000399,-1.488559279001673730
0.575000000000000400,-1.485049660109938330
0.576000000000000401,-1.481541788849726204
0.577000000000000401,-1.478034548938284010
0.578000000000000402,-1.474526862940763294
0.579000000000000403,-1.471017691576822273
0.580000000000000404,-1.467506033031524826
0.581000000000000405,-1.463990922270691941
0.582000000000000406,-1.460471430360933631
0.583000000000000407,-1.456946663794544294
0.584000000000000408,-1.453415763819425166
0.585000000000000409,-1.449877905774202169
0.586000000000000409,-1.446332298428720575
0.587000000000000410,-1.442778183330031050
0.588000000000000411,-1.439214834154028511
0.589000000000000412,-1.435641556062881019
0.590000000000000413,-1.432057685068344188
0.591000000000000414,-1.428462587401114536
0.592000000000000415,-1.424855658886307719
0.593000000000000416,-1.421236324325160894
0.594000000000000417,-1.417604036883064023
0.595000000000000417,-1.413958277484020476
0.596000000000000418,-1.410298554211566913
0.597000000000000419,-1.406624401716301431
0.598000000000000420,-1.402935380630011775
0.599000000000000421,-1.399231076986528155
0.600000000000000422,-1.395511101649314467
0.601000000000000423,-1.391775089745870719
0.602000000000000424,-1.388022700108973995
0.603000000000000425,-1.384253614724835435
0.604000000000000425,-1.380467538188144383
0.605000000000000426,-1.376664197164083170
0.606000000000000427,-1.372843339857343858
0.607000000000000428,-1.369004735488072777
0.608000000000000429,-1.365148173774927809
0.609000000000000430,-1.361273464425053259
0.610000000000000431,-1.357380436631183018
0.611000000000000432,-1.353468938575716596
0.612000000000000433,-1.349538836941845954
