# mos2-001_CYTOSINE
# h[nm],U(h)[kJ/mol]
0.200000000000000011,65.870140351609649088
0.201000000000000012,65.233407795222348113
0.202000000000000013,63.925868199544353843
0.203000000000000014,62.337395991185836408
0.204000000000000015,60.681814799510377156
0.205000000000000016,59.063354552493478877
0.206000000000000016,57.521296518806892095
0.207000000000000017,56.059224510658282270
0.208000000000000018,54.663566195944248705
0.209000000000000019,53.314812737364078998
0.210000000000000020,51.993842445633177363
0.211000000000000021,50.685063789874739371
0.212000000000000022,49.377572808170199892
0.213000000000000023,48.065142178661105277
0.214000000000000024,46.745587717281260609
0.215000000000000024,45.419865345308565452
0.216000000000000025,44.091116803987645767
0.217000000000000026,42.763789912027711182
0.218000000000000027,41.442897225241601689
0.219000000000000028,40.133436824366469864
0.220000000000000029,38.839974162204086383
0.221000000000000030,37.566369701173435658
0.222000000000000031,36.315630019197108425
0.223000000000000032,35.089857677133032610
0.224000000000000032,33.890275667370154622
0.225000000000000033,32.717304475753337556
0.226000000000000034,31.570672852381772344
0.227000000000000035,30.449546748065490220
0.228000000000000036,29.352664181374883867
0.229000000000000037,28.278466847695000297
0.230000000000000038,27.225221956273589541
0.231000000000000039,26.191130039918363082
0.232000000000000040,25.174416323731414025
0.233000000000000040,24.173404689466579498
0.234000000000000041,23.186574370977346859
0.235000000000000042,22.212600310872538500
0.236000000000000043,21.250378647564417633
0.237000000000000044,20.299039132234934613
0.238000000000000045,19.357946439905294511
0.239000000000000046,18.426692375968734439
0.240000000000000047,17.505080922164076185
0.241000000000000048,16.593107941737795130
0.242000000000000048,15.690937195221184908
0.243000000000000049,14.798874124108390760
0.244000000000000050,13.917338654067387793
0.245000000000000051,13.046838063016114262
0.246000000000000052,12.187940760446901223
0.247000000000000053,11.341251638361981691
0.248000000000000054,10.507389484739647401
0.249000000000000055,9.686966799676611117
0.250000000000000056,8.880572223136082854
0.251000000000000056,8.088755671549757054
0.252000000000000057,7.312016187682647050
0.253000000000000058,6.550792433014263949
0.254000000000000059,5.805455692948286561
0.255000000000000060,5.076305220795534368
0.256000000000000061,4.363565714956960662
0.257000000000000062,3.667386703342273790
0.258000000000000063,2.987843598124612754
0.259000000000000064,2.324940180874606188
0.260000000000000064,1.678612281479750168
0.261000000000000065,1.048732422713817281
0.262000000000000066,0.435115214690734831
0.263000000000000067,-0.162476701316740801
0.264000000000000068,-0.744326342994406698
0.265000000000000069,-1.310755875914076940
0.266000000000000070,-1.862120047150999325
0.267000000000000071,-2.398799690440999832
0.268000000000000071,-2.921195411082910809
0.269000000000000072,-3.429721540870116936
0.270000000000000073,-3.924800436387372748
0.271000000000000074,-4.406857178219241611
0.272000000000000075,-4.876314714109256876
0.273000000000000076,-5.333589475955542447
0.274000000000000077,-5.779087488762817415
0.275000000000000078,-6.213200979288052039
0.276000000000000079,-6.636305483087419077
0.277000000000000079,-7.048757440945948360
0.278000000000000080,-7.450892269176689453
0.279000000000000081,-7.843022882938974760
0.280000000000000082,-8.225438647453303886
0.281000000000000083,-8.598404728695619781
0.282000000000000084,-8.962161812739195099
0.283000000000000085,-9.316926161286591679
0.284000000000000086,-9.662889970005045015
0.285000000000000087,-10.000221995955699938
0.286000000000000087,-10.329068420609438306
0.287000000000000088,-10.649553915587715025
0.288000000000000089,-10.961782879283031633
0.289000000000000090,-11.265840813833762013
0.290000000000000091,-11.561795813487389495
0.291000000000000092,-11.849700137132625599
0.292000000000000093,-12.129591839660772479
0.293000000000000094,-12.401496438788086607
0.294000000000000095,-12.665428595993876826
0.295000000000000095,-12.921393792270521317
0.296000000000000096,-13.169389981411521617
0.297000000000000097,-13.409409205558915801
0.298000000000000098,-13.641439159670378345
0.299000000000000099,-13.865464693433420251
0.300000000000000100,-14.081469240934785248
0.301000000000000101,-14.289436170078980481
0.302000000000000102,-14.489350045330777306
0.303000000000000103,-14.681197798830638135
0.304000000000000103,-14.864969806292492649
0.305000000000000104,-15.040660865342172059
0.306000000000000105,-15.208271075090383562
0.307000000000000106,-15.367806616758318938
0.308000000000000107,-15.519280436090124198
0.309000000000000108,-15.662712829096950173
0.310000000000000109,-15.798131933388102510
0.311000000000000110,-15.925574127957904835
0.312000000000000111,-16.045084344821542999
0.313000000000000111,-16.156716296330458249
0.314000000000000112,-16.260532622357175114
0.315000000000000113,-16.356604961824441347
0.316000000000000114,-16.445013953270855467
0.317000000000000115,-16.525849169300368402
0.318000000000000116,-16.599208989861814700
0.319000000000000117,-16.665200419352750316
0.320000000000000118,-16.723938852543785316
0.321000000000000119,-16.775547794281941094
0.322000000000000119,-16.820158537857253123
0.323000000000000120,-16.857909806812120479
0.324000000000000121,-16.888947364841300214
0.325000000000000122,-16.913423598275809212
0.326000000000000123,-16.931497075470680613
0.327000000000000124,-16.943332087227425120
0.328000000000000125,-16.949098172180860900
0.329000000000000126,-16.948969630869118674
0.330000000000000127,-16.943125031987865015
0.331000000000000127,-16.931746714108115270
0.332000000000000128,-16.915020285912454767
0.333000000000000129,-16.893134127780179199
0.334000000000000130,-16.866278897328196962
0.335000000000000131,-16.834647041294807934
0.336000000000000132,-16.798432315936448589
0.337000000000000133,-16.757829317897240173
0.338000000000000134,-16.713033027305922218
0.339000000000000135,-16.664238364657215641
0.340000000000000135,-16.611639762844625068
0.341000000000000136,-16.555430755529620512
0.342000000000000137,-16.495803582858989955
0.343000000000000138,-16.432948815377578455
0.344000000000000139,-16.367054996828436231
0.345000000000000140,-16.298308306386356747
0.346000000000000141,-16.226892240733526762
0.347000000000000142,-16.152987316258652584
0.348000000000000143,-16.076770791542401184
0.349000000000000143,-15.998416410182048963
0.350000000000000144,-15.918094163907838379
0.351000000000000145,-15.835970075850957173
0.352000000000000146,-15.752206003739274820
0.353000000000000147,-15.666959462721006702
0.354000000000000148,-15.580383467448175594
0.355000000000000149,-15.492626392990889173
0.356000000000000150,-15.403831854099712118
0.357000000000000151,-15.314138602286154978
0.358000000000000151,-15.223680440150641147
0.359000000000000152,-15.132586152352370590
0.360000000000000153,-15.040979452586601184
0.361000000000000154,-14.948978945910662119
0.362000000000000155,-14.856698105741324767
0.363000000000000156,-14.764245264831748372
0.364000000000000157,-14.671723619525966598
0.365000000000000158,-14.579231246583066905
0.366000000000000159,-14.486861131860354845
0.367000000000000159,-14.394701210145640857
0.368000000000000160,-14.302834415432855053
0.369000000000000161,-14.211338740941332759
0.370000000000000162,-14.120287308188338216
0.371000000000000163,-14.029748444435844235
0.372000000000000164,-13.939785767845162212
0.373000000000000165,-13.850458279688762531
0.374000000000000166,-13.761820462984454494
0.375000000000000167,-13.673922386935174700
0.376000000000000167,-13.586809816576643328
0.377000000000000168,-13.500524327054822749
0.378000000000000169,-13.415103421975819842
0.379000000000000170,-13.330580655292441961
0.380000000000000171,-13.246985756212874108
0.381000000000000172,-13.164344756639707157
0.382000000000000173,-13.082680120669269996
0.383000000000000174,-13.002010875704286263
0.384000000000000175,-12.922352744754928011
0.385000000000000175,-12.843718279525930370
0.386000000000000176,-12.766116993909768951
0.387000000000000177,-12.689555497527688743
0.388000000000000178,-12.614037628982284645
0.389000000000000179,-12.539564588506525666
0.390000000000000180,-12.466135069715109651
0.391000000000000181,-12.393745390184369271
0.392000000000000182,-12.322389620607099303
0.393000000000000183,-12.252059712287678650
0.394000000000000183,-12.182745622762105597
0.395000000000000184,-12.114435439345424328
0.396000000000000185,-12.047115500426764712
0.397000000000000186,-11.980770514349162070
0.398000000000000187,-11.915383675727541757
0.399000000000000188,-11.850936779074025651
0.400000000000000189,-11.787410329614507631
0.401000000000000190,-11.724783651194979228
0.402000000000000191,-11.663034991189610068
0.403000000000000191,-11.602141622335587101
0.404000000000000192,-11.542079941432080048
0.405000000000000193,-11.482825564852491951
0.406000000000000194,-11.424353420829984174
0.407000000000000195,-11.366637838487028134
0.408000000000000196,-11.309652633589214688
0.409000000000000197,-11.253371191013034291
0.410000000000000198,-11.197766543925970595
0.411000000000000199,-11.142811449685071423
0.412000000000000199,-11.088478462468049912
0.413000000000000200,-11.034740002657681401
0.414000000000000201,-10.981568423006923041
0.415000000000000202,-10.928936071617906478
0.416000000000000203,-10.876815351773872820
0.417000000000000204,-10.825178778667600810
0.418000000000000205,-10.773999033075011056
0.419000000000000206,-10.723249012026407456
0.420000000000000207,-10.672901876531682319
0.421000000000000207,-10.622931096419375052
0.422000000000000208,-10.573310492352081980
0.423000000000000209,-10.524014275083724002
0.424000000000000210,-10.475017082026386817
0.425000000000000211,-10.426294011196196365
0.426000000000000212,-10.377820652609885954
0.427000000000000213,-10.329573117204505550
0.428000000000000214,-10.281528063354492986
0.429000000000000214,-10.233662721060689194
0.430000000000000215,-10.185954913886845929
0.431000000000000216,-10.138383078719531483
0.432000000000000217,-10.090926283427517518
0.433000000000000218,-10.043564242496746175
0.434000000000000219,-9.996277330716987208
0.435000000000000220,-9.949046594995769155
0.436000000000000221,-9.901853764374850542
0.437000000000000222,-9.854681258323761739
0.438000000000000222,-9.807512193384345878
0.439000000000000223,-9.760330388239260913
0.440000000000000224,-9.713120367276424361
0.441000000000000225,-9.665867362720357292
0.442000000000000226,-9.618557315400263263
0.443000000000000227,-9.571176874223233710
0.444000000000000228,-9.523713394419935696
0.445000000000000229,-9.476154934628551629
0.446000000000000230,-9.428490252881283951
0.447000000000000230,-9.380708801556446375
0.448000000000000231,-9.332800721357481066
0.449000000000000232,-9.284756834378580237
0.450000000000000233,-9.236568636315308112
0.451000000000000234,-9.188228287876620826
0.452000000000000235,-9.139728605453393939
0.453000000000000236,-9.091063051096540448
0.454000000000000237,-9.042225721856588905
0.455000000000000238,-8.993211338534425892
0.456000000000000238,-8.944015233891706274
0.457000000000000239,-8.894633340367363417
0.458000000000000240,-8.845062177345408116
0.459000000000000241,-8.795298838017043153
0.460000000000000242,-8.745340975879084766
0.461000000000000243,-8.695186790908504548
0.462000000000000244,-8.644835015451766580
0.463000000000000245,-8.594284899865575866
0.464000000000000246,-8.543536197944721522
0.465000000000000246,-8.492589152170452849
0.466000000000000247,-8.441444478811940044
0.467000000000000248,-8.390103352911458146
0.468000000000000249,-8.338567393182776399
0.469000000000000250,-8.286838646850608114
0.470000000000000251,-8.234919574457729041
0.471000000000000252,-8.182813034664878415
0.472000000000000253,-8.130522269067482100
0.473000000000000254,-8.078050887051551499
0.474000000000000254,-8.025402850710300129
0.475000000000000255,-7.972582459841436098
0.476000000000000256,-7.919594337044122412
0.477000000000000257,-7.866443412933369572
0.478000000000000258,-7.813134911488432977
0.479000000000000259,-7.759674335550923452
0.480000000000000260,-7.706067452487007863
0.481000000000000261,-7.652320280027266719
0.482000000000000262,-7.598439072296750751
0.483000000000000262,-7.544430306046794321
0.484000000000000263,-7.490300667099252685
0.485000000000000264,-7.436057037012952620
0.486000000000000265,-7.381706479981376745
0.487000000000000266,-7.327256229969580481
0.488000000000000267,-7.272713678097818324
0.489000000000000268,-7.218086360278471503
0.490000000000000269,-7.163381945112098137
0.491000000000000270,-7.108608222047926972
0.492000000000000270,-7.053773089813202724
0.493000000000000271,-6.998884545115449107
0.494000000000000272,-6.943950671620896742
0.495000000000000273,-6.888979629211782196
0.496000000000000274,-6.833979643524860315
0.497000000000000275,-6.778958995772685903
0.498000000000000276,-6.723926012848925993
0.499000000000000277,-6.668889057718476288
0.500000000000000222,-6.613856520092534552
0.501000000000000334,-6.558836807388677137
0.502000000000000224,-6.503838335975314244
0.503000000000000336,-6.448869522699564705
0.504000000000000226,-6.393938776697547510
0.505000000000000338,-6.339054491485137000
0.506000000000000227,-6.284225037327725971
0.507000000000000339,-6.229458753886415678
0.508000000000000229,-6.174763943138511735
0.509000000000000341,-6.120148862569321224
0.510000000000000231,-6.065621718632689507
0.511000000000000343,-6.011190660476664505
0.512000000000000233,-5.956863773931369010
0.513000000000000345,-5.902649075755150854
0.514000000000000234,-5.848554508135694441
0.515000000000000346,-5.794587933441759375
0.516000000000000236,-5.740757129222003208
0.517000000000000348,-5.687069783446299098
0.518000000000000238,-5.633533489985704357
0.519000000000000350,-5.580155744326306788
0.520000000000000240,-5.526943939512824144
0.521000000000000352,-5.473905362317187162
0.522000000000000242,-5.421047189627642204
0.523000000000000353,-5.368376485053545366
0.524000000000000243,-5.315900195741273038
0.525000000000000355,-5.263625149396339076
0.526000000000000245,-5.211558051507076073
0.527000000000000357,-5.159705482764801232
0.528000000000000247,-5.108073896675945136
0.529000000000000359,-5.056669617360955549
0.530000000000000249,-5.005498837535371948
0.531000000000000361,-4.954567616668012597
0.532000000000000250,-4.903881879311636105
0.533000000000000362,-4.853447413600991744
0.534000000000000252,-4.803269869913689760
0.535000000000000364,-4.753354759688893871
0.536000000000000254,-4.703707454399318699
0.537000000000000366,-4.654333184671466839
0.538000000000000256,-4.605237039549869849
0.539000000000000368,-4.556423965900226136
0.540000000000000258,-4.507898767947308372
0.541000000000000369,-4.459666106942629327
0.542000000000000259,-4.411730500957865786
0.543000000000000371,-4.364096324799179527
0.544000000000000261,-4.316767810038389719
0.545000000000000373,-4.269749045156471468
0.546000000000000263,-4.223043975795365057
0.547000000000000375,-4.176656405113572390
0.548000000000000265,-4.130589994241929297
0.549000000000000377,-4.084848262834969823
0.550000000000000266,-4.039434589714406165
0.551000000000000378,-3.994352213600452561
0.552000000000000268,-3.949604233927453745
0.553000000000000380,-3.905193611739855353
0.554000000000000270,-3.861123170665056392
0.555000000000000382,-3.817395597959302389
0.556000000000000272,-3.774013445623420004
0.557000000000000384,-3.730979131584571284
0.558000000000000274,-3.688294940941081457
0.559000000000000385,-3.645963027266641454
0.560000000000000275,-3.603985413971068308
0.561000000000000387,-3.562363995714163956
0.562000000000000277,-3.521100539869840507
0.563000000000000389,-3.480196688037421549
0.564000000000000279,-3.439653957597298639
0.565000000000000391,-3.399473743308024432
0.566000000000000281,-3.359657318942214310
0.567000000000000393,-3.320205838958444566
0.568000000000000282,-3.281120340206746366
0.569000000000000394,-3.242401743664894642
0.570000000000000284,-3.204050856203385145
0.571000000000000396,-3.166068372376364959
0.572000000000000286,-3.128454876236566928
0.573000000000000398,-3.091210843171662059
0.574000000000000288,-3.054336641760173610
0.575000000000000400,-3.017832535644654257
0.576000000000000290,-2.981698685420215877
0.577000000000000401,-2.945935150536346026
0.578000000000000291,-2.910541891210264076
0.579000000000000403,-2.875518770349805298
0.580000000000000293,-2.840865555484279881
0.581000000000000405,-2.806581920701359589
0.582000000000000295,-2.772667448588627348
0.583000000000000407,-2.739121632177943688
0.584000000000000297,-2.705943876891321764
0.585000000000000409,-2.673133502486687796
0.586000000000000298,-2.640689745002297251
0.587000000000000410,-2.608611758698227590
0.588000000000000300,-2.576898617993927054
0.589000000000000412,-2.545549319400289612
0.590000000000000302,-2.514562783445345229
0.591000000000000414,-2.483937856592211890
0.592000000000000304,-2.453673313148368340
0.593000000000000416,-2.423767857165091577
0.594000000000000306,-2.394220124326207788
0.595000000000000417,-2.365028683825060263
0.596000000000000307,-2.336192040228938005
0.597000000000000419,-2.307708635329991154
0.598000000000000309,-2.279576849981943543
0.599000000000000421,-2.251795005921700898
0.600000000000000311,-2.224361367575272030
0.601000000000000423,-2.197274143847159245
0.602000000000000313,-2.170531489892771226
0.603000000000000425,-2.144131508872965775
0.604000000000000314,-2.118072253690509221
0.605000000000000426,-2.092351728707525726
0.606000000000000316,-2.066967891443794780
0.607000000000000428,-2.041918654255106880
0.608000000000000318,-2.017201885991530386
0.609000000000000430,-1.992815413634920985
0.610000000000000320,-1.968757023915522097
0.611000000000000432,-1.945024464907116890
0.612000000000000322,-1.921615447600599325
0.613000000000000433,-1.898527647455491962
0.614000000000000323,-1.875758705929306602
0.615000000000000435,-1.853306231984396035
0.616000000000000325,-1.831167803572165464
0.617000000000000437,-1.809340969094376916
0.618000000000000327,-1.787823248841479584
0.619000000000000439,-1.766612136407701428
0.620000000000000329,-1.745705100082917571
0.621000000000000441,-1.725099584221072124
0.622000000000000330,-1.704793010585175406
0.623000000000000442,-1.684782779668714259
0.624000000000000332,-1.665066271993546509
0.625000000000000444,-1.645640849384150117
0.626000000000000334,-1.626503856218300070
0.627000000000000446,-1.607652620654128395
0.628000000000000336,-1.589084455833626564
0.629000000000000448,-1.570796661062596744
0.630000000000000338,-1.552786522967178673
0.631000000000000449,-1.535051316626891094
0.632000000000000339,-1.517588306684425126
0.633000000000000451,-1.500394748432147152
0.634000000000000341,-1.483467888875525942
0.635000000000000453,-1.466804967773509549
0.636000000000000343,-1.450403218656051596
0.637000000000000455,-1.434259869818885536
0.638000000000000345,-1.418372145295732967
0.639000000000000457,-1.402737265808024825
0.640000000000000346,-1.387352449692432543
0.641000000000000458,-1.372214913806236503
0.642000000000000348,-1.357321874410854168
0.643000000000000460,-1.342670548033585209
0.644000000000000350,-1.328258152307918216
0.645000000000000462,-1.314081906792438970
0.646000000000000352,-1.300139033768723751
0.647000000000000464,-1.286426759018251875
0.648000000000000353,-1.272942312578763113
0.649000000000000465,-1.259682929480063773
0.650000000000000355,-1.246645850459734195
0.651000000000000467,-1.233828322658777621
0.652000000000000357,-1.221227600297610350
0.653000000000000469,-1.208840945332507300
0.654000000000000359,-1.196665628092866918
0.655000000000000471,-1.184698927899423548
0.656000000000000361,-1.172938133663792515
0.657000000000000473,-1.161380544469465370
0.658000000000000362,-1.150023470134643455
0.659000000000000474,-1.138864231757054535
0.660000000000000364,-1.127900162241122661
