# mos2-001_ADENINE
# h[nm],U(h)[kJ/mol]
0.149999999999999994,111.567692414913651078
0.150999999999999995,109.197090919948664123
0.151999999999999996,106.327332996757917272
0.152999999999999997,103.402607876029236422
0.153999999999999998,100.574154966004130074
0.154999999999999999,97.862086314703446988
0.156000000000000000,95.239616620952034509
0.157000000000000001,92.672910009936444453
0.158000000000000002,90.136780419249461715
0.159000000000000002,87.618218689051332149
0.160000000000000003,85.114552846071447334
0.161000000000000004,82.629893390548190268
0.162000000000000005,80.171648068344936178
0.163000000000000006,77.747831743616174549
0.164000000000000007,75.365333868877613099
0.165000000000000008,73.029037461677859255
0.166000000000000009,70.741582307864902646
0.167000000000000010,68.503552851619346598
0.168000000000000010,66.313900952980958436
0.169000000000000011,64.170458509025920080
0.170000000000000012,62.070440449336956590
0.171000000000000013,60.010877982054068980
0.172000000000000014,57.988952711330192358
0.173000000000000015,56.002224279105021765
0.174000000000000016,54.048758573054726639
0.175000000000000017,52.127171799670961150
0.176000000000000018,50.236609400152573812
0.177000000000000018,48.376679280866504484
0.178000000000000019,46.547357289996867280
0.179000000000000020,44.748880189034210275
0.180000000000000021,42.981638194075927117
0.181000000000000022,41.246075946181370853
0.182000000000000023,39.542607797930813263
0.183000000000000024,37.871550736296555328
0.184000000000000025,36.233076171120032427
0.185000000000000026,34.627180212931250480
0.186000000000000026,33.053670912626991196
0.187000000000000027,31.512170184581975718
0.188000000000000028,30.002127719108319326
0.189000000000000029,28.522844042365989026
0.190000000000000030,27.073499937503026302
0.191000000000000031,25.653189642034522677
0.192000000000000032,24.260955533431289410
0.193000000000000033,22.895822366443496776
0.194000000000000034,21.556829499186228816
0.195000000000000034,20.243059915632695578
0.196000000000000035,18.953665201971112708
0.197000000000000036,17.687885951208848212
0.198000000000000037,16.445067347190121865
0.199000000000000038,15.224669912387899018
0.200000000000000039,14.026275592918924673
0.201000000000000040,12.849589500836533063
0.202000000000000041,11.694437740992045249
0.203000000000000042,10.560761821680921813
0.204000000000000042,9.448610189474631937
0.205000000000000043,8.358127443842716886
0.206000000000000044,7.289541781075596028
0.207000000000000045,6.243151194077784183
0.208000000000000046,5.219308918892807014
0.209000000000000047,4.218408573997231237
0.210000000000000048,3.240869387642285382
0.211000000000000049,2.287121854535762555
0.212000000000000050,1.357594108185198545
0.213000000000000050,0.452699241082623494
0.214000000000000051,-0.427176246991937458
0.215000000000000052,-1.281682740872219117
0.216000000000000053,-2.110516454990294832
0.217000000000000054,-2.913426984344801518
0.218000000000000055,-3.690223449586868210
0.219000000000000056,-4.440779254723322467
0.220000000000000057,-5.165035501509700921
0.221000000000000058,-5.863003125559851370
0.222000000000000058,-6.534763835815700972
0.223000000000000059,-7.180469951615282120
0.224000000000000060,-7.800343240546133927
0.225000000000000061,-8.394672865958217045
0.226000000000000062,-8.963812555831900397
0.227000000000000063,-9.508177105044516964
0.228000000000000064,-10.028238321328894145
0.229000000000000065,-10.524520521731442813
0.230000000000000066,-10.997595681483806729
0.231000000000000066,-11.448078331212883541
0.232000000000000067,-11.876620291601161838
0.233000000000000068,-12.283905327222921500
0.234000000000000069,-12.670643793537122335
0.235000000000000070,-13.037567343103756201
0.236000000000000071,-13.385423749166307061
0.237000000000000072,-13.714971896945348462
0.238000000000000073,-14.026976985425250177
0.239000000000000073,-14.322205975176434123
0.240000000000000074,-14.601423310910996989
0.241000000000000075,-14.865386941066427440
0.242000000000000076,-15.114844650789564184
0.243000000000000077,-15.350530719271949565
0.244000000000000078,-15.573162907478272032
0.245000000000000079,-15.783439777912633417
0.246000000000000080,-15.982038344175546030
0.247000000000000081,-16.169612044663924877
0.248000000000000081,-16.346789031836355122
0.249000000000000082,-16.514170765983884337
0.250000000000000111,-16.672330900385816221
0.251000000000000112,-16.821814443060439714
0.252000000000000113,-16.963137179014740497
0.253000000000000114,-17.096785335919513216
0.254000000000000115,-17.223215475462261281
0.255000000000000115,-17.342854592222622045
0.256000000000000116,-17.456100401749782947
0.257000000000000117,-17.563321799565933645
0.258000000000000118,-17.664859473048288407
0.259000000000000119,-17.761026648529515626
0.260000000000000120,-17.852109956477132613
0.261000000000000121,-17.938370398244043002
0.262000000000000122,-18.020044398605943314
0.263000000000000123,-18.097344929094994370
0.264000000000000123,-18.170462687988919726
0.265000000000000124,-18.239567323701940893
0.266000000000000125,-18.304808689237830777
0.267000000000000126,-18.366318116290532458
0.268000000000000127,-18.424209698506594179
0.269000000000000128,-18.478581574343952099
0.270000000000000129,-18.529517200867044124
0.271000000000000130,-18.577086610701829983
0.272000000000000131,-18.621347645229249679
0.273000000000000131,-18.662347157918961926
0.274000000000000132,-18.700122182491121237
0.275000000000000133,-18.734701061342200035
0.276000000000000134,-18.766104530376367165
0.277000000000000135,-18.794346757047392771
0.278000000000000136,-18.819436329036285827
0.279000000000000137,-18.841377191565207738
0.280000000000000138,-18.860169531880639937
0.281000000000000139,-18.875810609927480499
0.282000000000000139,-18.888295534682203680
0.283000000000000140,-18.897617986018175884
0.284000000000000141,-18.903770882341611070
0.285000000000000142,-18.906746994563228270
0.286000000000000143,-18.906539507260966104
0.287000000000000144,-18.903142528144034173
0.288000000000000145,-18.896551547151222650
0.289000000000000146,-18.886763846707076198
0.290000000000000147,-18.873778864821947110
0.291000000000000147,-18.857598512856405648
0.292000000000000148,-18.838227449880815101
0.293000000000000149,-18.815673315646613162
0.294000000000000150,-18.789946924251303528
0.295000000000000151,-18.761062420624583069
0.296000000000000152,-18.729037401990602518
0.297000000000000153,-18.693893006473061291
0.298000000000000154,-18.655653971006906033
0.299000000000000155,-18.614348660704528982
0.300000000000000155,-18.570009071797226596
0.301000000000000156,-18.522670810235119632
0.302000000000000157,-18.472373047982650007
0.303000000000000158,-18.419158458993059924
0.304000000000000159,-18.363073136784926476
0.305000000000000160,-18.304166495478185084
0.306000000000000161,-18.242491156077072390
0.307000000000000162,-18.178102819713778615
0.308000000000000163,-18.111060129490081039
0.309000000000000163,-18.041424522475896453
0.310000000000000164,-17.969260073344109685
0.311000000000000165,-17.894633331040257218
0.312000000000000166,-17.817613149805453077
0.313000000000000167,-17.738270515790262039
0.314000000000000168,-17.656678370417790092
0.315000000000000169,-17.572911431575974461
0.316000000000000170,-17.487046013641837305
0.317000000000000171,-17.399159847265458723
0.318000000000000171,-17.309331899767943952
0.319000000000000172,-17.217642196936964183
0.320000000000000173,-17.124171646934495783
0.321000000000000174,-17.029001866965423062
0.322000000000000175,-16.932215013292040595
0.323000000000000176,-16.833893615118967091
0.324000000000000177,-16.734120412814512235
0.325000000000000178,-16.632978200879755093
0.326000000000000179,-16.530549676023980510
0.327000000000000179,-16.426917290655676851
0.328000000000000180,-16.322163112051221390
0.329000000000000181,-16.216368687420178674
0.330000000000000182,-16.109614915043714234
0.331000000000000183,-16.001981921625446859
0.332000000000000184,-15.893548945956894158
0.333000000000000185,-15.784394228967162377
0.334000000000000186,-15.674594910195287056
0.335000000000000187,-15.564226930695017614
0.336000000000000187,-15.453364942356085265
0.337000000000000188,-15.342082223601476443
0.338000000000000189,-15.230450601398922927
0.339000000000000190,-15.118540379504779025
0.340000000000000191,-15.006420272840410135
0.341000000000000192,-14.894157347885911946
0.342000000000000193,-14.781816968960740155
0.343000000000000194,-14.669462750249342875
0.344000000000000195,-14.557156513417865540
0.345000000000000195,-14.444958250659386323
0.346000000000000196,-14.332926092996228107
0.347000000000000197,-14.221116283661618951
0.348000000000000198,-14.109583156377080826
0.349000000000000199,-13.998379118337471283
0.350000000000000200,-13.887554637712344885
0.351000000000000201,-13.777158235469547876
0.352000000000000202,-13.667236481325787167
0.353000000000000203,-13.557833993627834701
0.354000000000000203,-13.448993442968490086
0.355000000000000204,-13.340755559341653580
0.356000000000000205,-13.233159142642836770
0.357000000000000206,-13.126241076322992640
0.358000000000000207,-13.020036344006095774
0.359000000000000208,-12.914578048884076011
0.360000000000000209,-12.809897435705883240
0.361000000000000210,-12.706023915181200223
0.362000000000000210,-12.602985090623585407
0.363000000000000211,-12.500806786661918579
0.364000000000000212,-12.399513079853939246
0.365000000000000213,-12.299126331040117321
0.366000000000000214,-12.199667219281405295
0.367000000000000215,-12.101154777229339743
0.368000000000000216,-12.003606427782287369
0.369000000000000217,-11.907038021886934942
0.370000000000000218,-11.811463877349504870
0.371000000000000218,-11.716896818526555180
0.372000000000000219,-11.623348216770729380
0.373000000000000220,-11.530828031512191600
0.374000000000000221,-11.439344851861946495
0.375000000000000222,-11.348905938628471191
0.376000000000000223,-11.259517266644618161
0.377000000000000224,-11.171183567306762541
0.378000000000000225,-11.083908371233528456
0.379000000000000226,-10.997694050956285494
0.380000000000000226,-10.912541863558919530
0.381000000000000227,-10.828451993188810576
0.382000000000000228,-10.745423593366119519
0.383000000000000229,-10.663454829022903425
0.384000000000000230,-10.582542918208009297
0.385000000000000231,-10.502684173398449730
0.386000000000000232,-10.423874042361696013
0.387000000000000233,-10.346107148517912577
0.388000000000000234,-10.269377330754753785
0.389000000000000234,-10.193677682651554051
0.390000000000000235,-10.119000591072962791
0.391000000000000236,-10.045337774096211092
0.392000000000000237,-9.972680318238976938
0.393000000000000238,-9.901018714958741640
0.394000000000000239,-9.830342896397008090
0.395000000000000240,-9.760642270345371685
0.396000000000000241,-9.691905754412802665
0.397000000000000242,-9.624121809376479320
0.398000000000000242,-9.557278471701154743
0.399000000000000243,-9.491363385214238946
0.400000000000000244,-9.426363831926376946
0.401000000000000245,-9.362266761989463504
0.402000000000000246,-9.299058822786063772
0.403000000000000247,-9.236726387146102724
0.404000000000000248,-9.175255580688880030
0.405000000000000249,-9.114632308289866813
0.406000000000000250,-9.054842279673509964
0.407000000000000250,-8.995871034134911071
0.408000000000000251,-8.937703964394476230
0.409000000000000252,-8.880326339591254836
0.410000000000000253,-8.823723327421564733
0.411000000000000254,-8.767880015431037677
0.412000000000000255,-8.712781431468986426
0.413000000000000256,-8.658412563315225796
0.414000000000000257,-8.604758377490082211
0.415000000000000258,-8.551803837259509322
0.416000000000000258,-8.499533919847708674
0.417000000000000259,-8.447933632870393339
0.418000000000000260,-8.396988030002614067
0.419000000000000261,-8.346682225895301954
0.420000000000000262,-8.297001410355514750
0.421000000000000263,-8.247930861805603087
0.422000000000000264,-8.199455960036814872
0.423000000000000265,-8.151562198273440529
0.424000000000000266,-8.104235194563703004
0.425000000000000266,-8.057460702513758122
0.426000000000000267,-8.011224621381510147
0.427000000000000268,-7.965513005547059322
0.428000000000000269,-7.920312073376554629
0.429000000000000270,-7.875608215496501252
0.430000000000000271,-7.831388002495411449
0.431000000000000272,-7.787638192069837650
0.432000000000000273,-7.744345735631671168
0.433000000000000274,-7.701497784393612100
0.434000000000000274,-7.659081694949593455
0.435000000000000275,-7.617085034366793295
0.436000000000000276,-7.575495584805880256
0.437000000000000277,-7.534301347685707029
0.438000000000000278,-7.493490547408811153
0.439000000000000279,-7.453051634663711233
0.440000000000000280,-7.412973289319671366
0.441000000000000281,-7.373244422929690067
0.442000000000000282,-7.333854180856978822
0.443000000000000282,-7.294791944039971554
0.444000000000000283,-7.256047330410804186
0.445000000000000284,-7.217610195981758459
0.446000000000000285,-7.179470635613905749
0.447000000000000286,-7.141618983482143967
0.448000000000000287,-7.104045813250041697
0.449000000000000288,-7.066741937968187059
0.450000000000000289,-7.029698409708940332
0.451000000000000290,-6.992906518950476880
0.452000000000000290,-6.956357793722615313
0.453000000000000291,-6.920043998526557161
0.454000000000000292,-6.883957133040469856
0.455000000000000293,-6.848089430622382068
0.456000000000000294,-6.812433356621715674
0.457000000000000295,-6.776981606510306122
0.458000000000000296,-6.741727103843539126
0.459000000000000297,-6.706662998061938552
0.460000000000000298,-6.671782662143128206
0.461000000000000298,-6.637079690113885988
0.462000000000000299,-6.602547894431677555
0.463000000000000300,-6.568181303244689850
0.464000000000000301,-6.533974157539168104
0.465000000000000302,-6.499920908182557078
0.466000000000000303,-6.466016212870579594
0.467000000000000304,-6.432254932986180229
0.468000000000000305,-6.398632130377929883
0.469000000000000306,-6.365143064065271084
0.470000000000000306,-6.331783186877621539
0.471000000000000307,-6.298548142034097630
0.472000000000000308,-6.265433759670516523
0.473000000000000309,-6.232436053319794667
0.474000000000000310,-6.199551216351840033
0.475000000000000311,-6.166775618378691703
0.476000000000000312,-6.134105801630482802
0.477000000000000313,-6.101538477307387964
0.478000000000000314,-6.069070521912733440
0.479000000000000314,-6.036698973572087290
0.480000000000000315,-6.004421028342833644
0.481000000000000316,-5.972234036518799805
0.482000000000000317,-5.940135498933952540
0.483000000000000318,-5.908123063269262509
0.484000000000000319,-5.876194520366453844
0.485000000000000320,-5.844347800552287531
0.486000000000000321,-5.812580969976737677
0.487000000000000322,-5.780892226968311398
0.488000000000000322,-5.749279898409499268
0.489000000000000323,-5.717742436135360151
0.490000000000000324,-5.686278413357817918
0.491000000000000325,-5.654886521118302589
0.492000000000000326,-5.623565564771072722
0.493000000000000327,-5.592314460499538065
0.494000000000000328,-5.561132231867598641
0.495000000000000329,-5.530018006408055520
0.496000000000000330,-5.498971012249804780
0.497000000000000330,-5.467990574785638991
0.498000000000000331,-5.437076113382084408
0.499000000000000332,-5.406227138132870813
0.500000000000000333,-5.375443246657250818
0.501000000000000334,-5.344724120944427170
0.502000000000000335,-5.314069524245204512
0.503000000000000336,-5.283479298011902081
0.504000000000000337,-5.252953358887358704
0.505000000000000338,-5.222491695743917361
0.506000000000000338,-5.192094366773081227
0.507000000000000339,-5.161761496626471768
0.508000000000000340,-5.131493273608623618
0.509000000000000341,-5.101289946922163310
0.510000000000000342,-5.071151823965648120
0.511000000000000343,-5.041079267684476228
0.512000000000000344,-5.011072693975076042
0.513000000000000345,-4.981132569142555866
0.514000000000000346,-4.951259407411985336
0.515000000000000346,-4.921453768493281977
0.516000000000000347,-4.891716255199743735
0.517000000000000348,-4.862047511120258569
0.518000000000000349,-4.832448218344887358
0.519000000000000350,-4.802919095243887604
0.520000000000000351,-4.773460894299817348
0.521000000000000352,-4.744074399992570967
0.522000000000000353,-4.714760426736984478
0.523000000000000353,-4.685519816872742993
0.524000000000000354,-4.656353438706234193
0.525000000000000355,-4.627262184603882389
0.526000000000000356,-4.598246969136596363
0.527000000000000357,-4.569308727274886017
0.528000000000000358,-4.540448412634081166
0.529000000000000359,-4.511666995769223476
0.530000000000000360,-4.482965462519033828
0.531000000000000361,-4.454344812398448816
0.532000000000000361,-4.425806057039079811
0.533000000000000362,-4.397350218677045675
0.534000000000000363,-4.368978328687552981
0.535000000000000364,-4.340691426165546929
0.536000000000000365,-4.312490556551843213
0.537000000000000366,-4.284376770304032966
0.538000000000000367,-4.256351121611478661
0.539000000000000368,-4.228414667153799655
0.540000000000000369,-4.200568464901992094
0.541000000000000369,-4.172813572961658224
0.542000000000000370,-4.145151048457498710
0.543000000000000371,-4.117581946458405362
0.544000000000000372,-4.090107318942437509
0.545000000000000373,-4.062728213800929744
0.546000000000000374,-4.035445673881016937
0.547000000000000375,-4.008260736065806462
0.548000000000000376,-3.981174430391553276
0.549000000000000377,-3.954187779200994068
0.550000000000000377,-3.927301796332154815
0.551000000000000378,-3.900517486341910534
0.552000000000000379,-3.873835843763549835
0.553000000000000380,-3.847257852397583999
0.554000000000000381,-3.820784484635113554
0.555000000000000382,-3.794416700813035170
0.556000000000000383,-3.768155448600273072
0.557000000000000384,-3.742001662414462970
0.558000000000000385,-3.715956262868241655
0.559000000000000385,-3.690020156244524063
0.560000000000000386,-3.664194234000003547
0.561000000000000387,-3.638479372296240744
0.562000000000000388,-3.612876431557583423
0.563000000000000389,-3.587386256055297373
0.564000000000000390,-3.562009673517180008
0.565000000000000391,-3.536747494762025212
0.566000000000000392,-3.511600513358258180
0.567000000000000393,-3.486569505306107430
0.568000000000000393,-3.461655228742627433
0.569000000000000394,-3.436858423668971874
0.570000000000000395,-3.412179811699314058
0.571000000000000396,-3.387620095830691902
0.572000000000000397,-3.363179960233296129
0.573000000000000398,-3.338860070060511553
0.574000000000000399,-3.314661071278152349
0.575000000000000400,-3.290583590512289103
0.576000000000000401,-3.266628234915116114
0.577000000000000401,-3.242795592048294484
0.578000000000000402,-3.219086229783184372
0.579000000000000403,-3.195500696217439263
0.580000000000000404,-3.172039519607461777
0.581000000000000405,-3.148703208316117941
0.582000000000000406,-3.125492250775267600
0.583000000000000407,-3.102407115462544773
0.584000000000000408,-3.079448250891949623
0.585000000000000409,-3.056616085617700040
0.586000000000000409,-3.033911028250907638
0.587000000000000410,-3.011333467488610083
0.588000000000000411,-2.988883772154665941
0.589000000000000412,-2.966562291252105688
0.590000000000000413,-2.944369354026457053
0.591000000000000414,-2.922305270039641023
0.592000000000000415,-2.900370329254026380
0.593000000000000416,-2.878564802126186262
0.594000000000000417,-2.856888939709984143
0.595000000000000417,-2.835342973768640640
0.596000000000000418,-2.813927116895258429
0.597000000000000419,-2.792641562641618336
0.598000000000000420,-2.771486485654696352
0.599000000000000421,-2.750462041820690651
0.600000000000000422,-2.729568368416101176
0.601000000000000423,-2.708805584265596700
0.602000000000000424,-2.688173789906284306
0.603000000000000425,-2.667673067758097982
0.604000000000000425,-2.647303482299954602
0.605000000000000426,-2.627065080251395734
0.606000000000000427,-2.606957890759429741
0.607000000000000428,-2.586981925590193132
0.608000000000000429,-2.567137179325313490
0.609000000000000430,-2.547423629562491243
