# mos2-001_BSAI20
# h[nm],U(h)[kJ/mol]
0.149999999999999994,121.280674376669708181
0.150999999999999995,118.960276564447639203
0.151999999999999996,116.237560941433827111
0.152999999999999997,113.422529527153784557
0.153999999999999998,110.646342619770550186
0.154999999999999999,107.949760762692420712
0.156000000000000000,105.333016713355476668
0.157000000000000001,102.782295421530349699
0.158000000000000002,100.282503901805668534
0.159000000000000002,97.822378525178436348
0.160000000000000003,95.395606578908498818
0.161000000000000004,93.000118140769316710
0.162000000000000005,90.636748886003402959
0.163000000000000006,88.307890238409484596
0.164000000000000007,86.016398931520342330
0.165000000000000008,83.764845592332008550
0.166000000000000009,81.555083206777169380
0.167000000000000010,79.388073354542854076
0.168000000000000010,77.263896664911882795
0.169000000000000011,75.181878916179414318
0.170000000000000012,73.140776445988336718
0.171000000000000013,71.138978801646928218
0.172000000000000014,69.174700031613923557
0.173000000000000015,67.246141399264359961
0.174000000000000016,65.351617170277819469
0.175000000000000017,63.489641556349376117
0.176000000000000018,61.658979201702457829
0.177000000000000018,59.858664177474750545
0.178000000000000019,58.087993710580704487
0.179000000000000020,56.346503187316088201
0.180000000000000021,54.633928648510938331
0.181000000000000022,52.950162280033922002
0.182000000000000023,51.295205487861004201
0.183000000000000024,49.669123166581456985
0.184000000000000025,48.072001816852086620
0.185000000000000026,46.503913299509420654
0.186000000000000026,44.964885264420082933
0.187000000000000027,43.454878674343781597
0.188000000000000028,41.973772358543030236
0.189000000000000029,40.521354169402385992
0.190000000000000030,39.097318064550961481
0.191000000000000031,37.701266280976923895
0.192000000000000032,36.332715689688612315
0.193000000000000033,34.991107403414119403
0.194000000000000034,33.675818740722718303
0.195000000000000034,32.386176714596146553
0.196000000000000035,31.121472300596856542
0.197000000000000036,29.880974840037236362
0.198000000000000037,28.663946039458828352
0.199000000000000038,27.469653133486456653
0.200000000000000039,26.297380879423638333
0.201000000000000040,25.146442145766535248
0.202000000000000041,24.016186941169223701
0.203000000000000042,22.906009804188624202
0.204000000000000042,21.815355536947254933
0.205000000000000043,20.743723317776829873
0.206000000000000044,19.690669269420755683
0.207000000000000045,18.655807591227791420
0.208000000000000046,17.638810386876762948
0.209000000000000047,16.639406334543917154
0.210000000000000048,15.657378355106150281
0.211000000000000049,14.692560437000008022
0.212000000000000050,13.744833774715967678
0.213000000000000050,12.814122372529595850
0.214000000000000051,11.900388256791925912
0.215000000000000052,11.003626429678487142
0.216000000000000053,10.123859685387420981
0.217000000000000054,9.261133396949873031
0.218000000000000055,8.415510368549906417
0.219000000000000056,7.587065834943473419
0.220000000000000057,6.775882676531429283
0.221000000000000058,5.982046906140295661
0.222000000000000058,5.205643471773300668
0.223000000000000059,4.446752408662709044
0.224000000000000060,3.705445363963663308
0.225000000000000061,2.981782508436391144
0.226000000000000062,2.275809841487123730
0.227000000000000063,1.587556888971087599
0.228000000000000064,0.917034787179284883
0.229000000000000065,0.264234741387626926
0.230000000000000066,-0.370873156806605653
0.231000000000000066,-0.988340772469113560
0.232000000000000067,-1.588242452317474518
0.233000000000000068,-2.170675255291571126
0.234000000000000069,-2.735758913562986727
0.235000000000000070,-3.283635549580992574
0.236000000000000071,-3.814469175020492653
0.237000000000000072,-4.328444997361035718
0.238000000000000073,-4.825768559344923325
0.239000000000000073,-5.306664735795690646
0.240000000000000074,-5.771376611281558766
0.241000000000000075,-6.220164260925242772
0.242000000000000076,-6.653303455340056516
0.243000000000000077,-7.071084309249680011
0.244000000000000078,-7.473809891859251486
0.245000000000000079,-7.861794815519705715
0.246000000000000080,-8.235363817689966837
0.247000000000000081,-8.594850349677042090
0.248000000000000081,-8.940595184137666962
0.249000000000000082,-9.272945051874472711
0.250000000000000111,-9.592251317066269323
0.251000000000000112,-9.898868698744644590
0.252000000000000113,-10.193154045077344350
0.253000000000000114,-10.475465165843516502
0.254000000000000115,-10.746159727396449313
0.255000000000000115,-11.005594213401124648
0.256000000000000116,-11.254122953712716537
0.257000000000000117,-11.492097222923501221
0.258000000000000118,-11.719864409349785461
0.259000000000000119,-11.937767254554582763
0.260000000000000120,-12.146143162903165091
0.261000000000000121,-12.345323580122201435
0.262000000000000122,-12.535633439377898313
0.263000000000000123,-12.717390672996961243
0.264000000000000123,-12.890905787625111856
0.265000000000000124,-13.056481500344171209
0.266000000000000125,-13.214412433048526196
0.267000000000000126,-13.364984862207993643
0.268000000000000127,-13.508476521015646554
0.269000000000000128,-13.645156450828375583
0.270000000000000129,-13.775284898753875851
0.271000000000000130,-13.899113258214750743
0.272000000000000131,-14.016884049325341266
0.273000000000000131,-14.128830935946448122
0.274000000000000132,-14.235178776333821560
0.275000000000000133,-14.336143704365644780
0.276000000000000134,-14.431933238418627852
0.277000000000000135,-14.522746415059836878
0.278000000000000136,-14.608773944829806624
0.279000000000000137,-14.690198387508820232
0.280000000000000138,-14.767194344381399773
0.281000000000000139,-14.839928665141982833
0.282000000000000139,-14.908560667215539297
0.283000000000000140,-14.973242365400015075
0.284000000000000141,-15.034118709870341490
0.285000000000000142,-15.091327830717045089
0.286000000000000143,-15.145001287323273331
0.287000000000000144,-15.195264321013208786
0.288000000000000145,-15.242236109531097199
0.289000000000000146,-15.286030022031800613
0.290000000000000147,-15.326753873382807924
0.291000000000000147,-15.364510176690899357
0.292000000000000148,-15.399396393076312251
0.293000000000000149,-15.431505177820705299
0.294000000000000150,-15.460924622114655236
0.295000000000000151,-15.487738489723886559
0.296000000000000152,-15.512026447981668298
0.297000000000000153,-15.533864292598064338
0.298000000000000154,-15.553324165854155225
0.299000000000000155,-15.570474767822114259
0.300000000000000155,-15.585381560319223837
0.301000000000000156,-15.598106963366257460
0.302000000000000157,-15.608710543978295604
0.303000000000000158,-15.617249197168685981
0.304000000000000159,-15.623777319095372818
0.305000000000000160,-15.628346972322333386
0.306000000000000161,-15.631008043209210001
0.307000000000000162,-15.631808391477715503
0.308000000000000163,-15.630793992035506790
0.309000000000000163,-15.628009069167015710
0.310000000000000164,-15.623496223225851409
0.311000000000000165,-15.617296549985391962
0.312000000000000166,-15.609449752823639557
0.313000000000000167,-15.599994247934670710
0.314000000000000168,-15.588967262772872147
0.315000000000000169,-15.576404927947937296
0.316000000000000170,-15.562342362797812356
0.317000000000000171,-15.546813754874111879
0.318000000000000171,-15.529852433580112248
0.319000000000000172,-15.511490938205401591
0.320000000000000173,-15.491761080603250633
0.321000000000000174,-15.470694002758028418
0.322000000000000175,-15.448320229489436173
0.323000000000000176,-15.424669716538986108
0.324000000000000177,-15.399771894281652607
0.325000000000000178,-15.373655707302168238
0.326000000000000179,-15.346349650071621440
0.327000000000000179,-15.317881798954772421
0.328000000000000180,-15.288279840773288498
0.329000000000000181,-15.257571098144410371
0.330000000000000182,-15.225782551807629517
0.331000000000000183,-15.192940860145885296
0.332000000000000184,-15.159072376100359847
0.333000000000000185,-15.124203161670831008
0.334000000000000186,-15.088359000186377656
0.335000000000000187,-15.051565406523277346
0.336000000000000187,-15.013847635439891093
0.337000000000000188,-14.975230688190148243
0.338000000000000189,-14.935739317570210005
0.339000000000000190,-14.895398031544905493
0.340000000000000191,-14.854231095593144474
0.341000000000000192,-14.812262533904377193
0.342000000000000193,-14.769516129550476435
0.343000000000000194,-14.726015423750771660
0.344000000000000195,-14.681783714340454594
0.345000000000000195,-14.636844053546431255
0.346000000000000196,-14.591219245167554419
0.347000000000000197,-14.544931841250056337
0.348000000000000198,-14.498004138342778901
0.349000000000000199,-14.450458173410757112
0.350000000000000200,-14.402315719480119682
0.351000000000000201,-14.353598281081527688
0.352000000000000202,-14.304327089554217167
0.353000000000000203,-14.254523098267679160
0.354000000000000203,-14.204206977813104373
0.355000000000000204,-14.153399111211939498
0.356000000000000205,-14.102119589184891169
0.357000000000000206,-14.050388205520263796
0.358000000000000207,-13.998224452576483401
0.359000000000000208,-13.945647516950240075
0.360000000000000209,-13.892676275337915826
0.361000000000000210,-13.839329290614680090
0.362000000000000210,-13.785624808152457277
0.363000000000000211,-13.731580752395235123
0.364000000000000212,-13.677214723707219690
0.365000000000000213,-13.622543995506825709
0.366000000000000214,-13.567585511697140888
0.367000000000000215,-13.512355884401282324
0.368000000000000216,-13.456871392008963539
0.369000000000000217,-13.401147977538608203
0.370000000000000218,-13.345201247317813653
0.371000000000000218,-13.289046469982991994
0.372000000000000219,-13.232698575797877893
0.373000000000000220,-13.176172156289032600
0.374000000000000221,-13.119481464195303033
0.375000000000000222,-13.062640413726956723
0.376000000000000223,-13.005662581129461941
0.377000000000000224,-12.948561205545692232
0.378000000000000225,-12.891349190169687944
0.379000000000000226,-12.834039103684308003
0.380000000000000226,-12.776643181974641550
0.381000000000000227,-12.719173330108150211
0.382000000000000228,-12.661641124572513561
0.383000000000000229,-12.604057815761317229
0.384000000000000230,-12.546434330697627146
0.385000000000000231,-12.488781275985239461
0.386000000000000232,-12.431108940976983490
0.387000000000000233,-12.373427301149547475
0.388000000000000234,-12.315746021673934507
0.389000000000000234,-12.258074461170917147
0.390000000000000235,-12.200421675640358288
0.391000000000000236,-12.142796422553919555
0.392000000000000237,-12.085207165100042559
0.393000000000000238,-12.027662076570759808
0.394000000000000239,-11.970169044879648723
0.395000000000000240,-11.912735677200469553
0.396000000000000241,-11.855369304716386836
0.397000000000000242,-11.798076987469425347
0.398000000000000242,-11.740865519300571762
0.399000000000000243,-11.683741432870688115
0.400000000000000244,-11.626711004752833034
0.401000000000000245,-11.569780260586988163
0.402000000000000246,-11.512954980288103712
0.403000000000000247,-11.456240703298908201
0.404000000000000248,-11.399642733879170819
0.405000000000000249,-11.343166146423337537
0.406000000000000250,-11.286815790798707226
0.407000000000000250,-11.230596297696740393
0.408000000000000251,-11.174512083990293831
0.409000000000000252,-11.118567358089896047
0.410000000000000253,-11.062766125292444741
0.411000000000000254,-11.007112193116103782
0.412000000000000255,-10.951609176615299646
0.413000000000000256,-10.896260503670289310
0.414000000000000257,-10.841069420245620591
0.415000000000000258,-10.786038995612647895
0.416000000000000258,-10.731172127531056759
0.417000000000000259,-10.676471547384910110
0.418000000000000260,-10.621939825268958302
0.419000000000000261,-10.567579375021065147
0.420000000000000262,-10.513392459197143936
0.421000000000000263,-10.459381193985009872
0.422000000000000264,-10.405547554053869774
0.423000000000000265,-10.351893377336459423
0.424000000000000266,-10.298420369741144498
0.425000000000000266,-10.245130109791235284
0.426000000000000267,-10.192024053189363997
0.427000000000000268,-10.139103537304738012
0.428000000000000269,-10.086369785581334568
0.429000000000000270,-10.033823911865429324
0.430000000000000271,-9.981466924650790773
0.431000000000000272,-9.929299731240393001
0.432000000000000273,-9.877323141823321606
0.433000000000000274,-9.825537873466045014
0.434000000000000274,-9.773944554017118591
0.435000000000000275,-9.722543725924731817
0.436000000000000276,-9.671335849966579801
0.437000000000000277,-9.620321308891655931
0.438000000000000278,-9.569500410973763138
0.439000000000000279,-9.518873393476710021
0.440000000000000280,-9.468440426031040857
0.441000000000000281,-9.418201613922624560
0.442000000000000282,-9.368157001293273112
0.443000000000000282,-9.318306574253693242
0.444000000000000283,-9.268650263909339770
0.445000000000000284,-9.219187949299632479
0.446000000000000285,-9.169919460251122700
0.447000000000000286,-9.120844580145544001
0.448000000000000287,-9.071963048603198132
0.449000000000000288,-9.023274564082885973
0.450000000000000289,-8.974778786399033592
0.451000000000000290,-8.926475339157162736
0.452000000000000290,-8.878363812108712949
0.453000000000000291,-8.830443763426272241
0.454000000000000292,-8.782714721900422461
0.455000000000000293,-8.735176189059320251
0.456000000000000294,-8.687827641212322760
0.457000000000000295,-8.640668531418839393
0.458000000000000296,-8.593698291383770282
0.459000000000000297,-8.546916333280822897
0.460000000000000298,-8.500322051505056820
0.461000000000000298,-8.453914824356058233
0.462000000000000299,-8.407694015653103037
0.463000000000000300,-8.361658976283710132
0.464000000000000301,-8.315809045687057477
0.465000000000000302,-8.270143553273641146
0.466000000000000303,-8.224661819782633998
0.467000000000000304,-8.179363158578389914
0.468000000000000305,-8.134246876887541333
0.469000000000000306,-8.089312276978123606
0.470000000000000306,-8.044558657282253833
0.471000000000000307,-7.999985313463644943
0.472000000000000308,-7.955591539431604353
0.473000000000000309,-7.911376628302778435
0.474000000000000310,-7.867339873312177545
0.475000000000000311,-7.823480568674815672
0.476000000000000312,-7.779798010399517239
0.477000000000000313,-7.736291497056089206
0.478000000000000314,-7.692960330497373711
0.479000000000000314,-7.649803816537570356
0.480000000000000315,-7.606821265588041392
0.481000000000000316,-7.564011993252108823
0.482000000000000317,-7.521375320880027360
0.483000000000000318,-7.478910576085510797
0.484000000000000319,-7.436617093225045494
0.485000000000000320,-7.394494213841322328
0.486000000000000321,-7.352541287071955978
0.487000000000000322,-7.310757670024777610
0.488000000000000322,-7.269142728120803199
0.489000000000000323,-7.227695835406232838
0.490000000000000324,-7.186416374834449172
0.491000000000000325,-7.145303738519298342
0.492000000000000326,-7.104357327960637569
0.493000000000000327,-7.063576554243392813
0.494000000000000328,-7.022960838211028900
0.495000000000000329,-6.982509610614650697
0.496000000000000330,-6.942222312238565785
0.497000000000000330,-6.902098394003528981
0.498000000000000331,-6.862137317048398799
0.499000000000000332,-6.822338552791397781
0.500000000000000333,-6.782701582971742305
0.501000000000000334,-6.743225899672600221
0.502000000000000335,-6.703911005326267158
0.503000000000000336,-6.664756412702438126
0.504000000000000337,-6.625761644880365786
0.505000000000000338,-6.586926235205757152
0.506000000000000338,-6.548249727233193873
0.507000000000000339,-6.509731674654842593
0.508000000000000340,-6.471371641216173032
0.509000000000000341,-6.433169200619524020
0.510000000000000342,-6.395123936416061028
0.511000000000000343,-6.357235441886936123
0.512000000000000344,-6.319503319914245409
0.513000000000000345,-6.281927182842462543
0.514000000000000346,-6.244506652330971797
0.515000000000000346,-6.207241359198260255
0.516000000000000347,-6.170130943258375744
0.517000000000000348,-6.133175053150283773
0.518000000000000349,-6.096373346160499196
0.519000000000000350,-6.059725488039718222
0.520000000000000351,-6.023231152813782074
0.521000000000000352,-5.986890022589602012
0.522000000000000353,-5.950701787356408978
0.523000000000000353,-5.914666144782818158
0.524000000000000354,-5.878782800010226239
0.525000000000000355,-5.843051465442785641
0.526000000000000356,-5.807471860534521468
0.527000000000000357,-5.772043711573941138
0.528000000000000358,-5.736766751466391590
0.529000000000000359,-5.701640719514729838
0.530000000000000360,-5.666665361198449880
0.531000000000000361,-5.631840427951721573
0.532000000000000361,-5.597165676940591972
0.533000000000000362,-5.562640870839676843
0.534000000000000363,-5.528265777608615927
0.535000000000000364,-5.494040170268582379
0.536000000000000365,-5.459963826679062215
0.537000000000000366,-5.426036529315229728
0.538000000000000367,-5.392258065046050319
0.539000000000000368,-5.358628224913458027
0.540000000000000369,-5.325146803912688576
0.541000000000000369,-5.291813600774106341
0.542000000000000370,-5.258628417746580297
0.543000000000000371,-5.225591060382702935
0.544000000000000372,-5.192701337325949851
0.545000000000000373,-5.159959060099992278
0.546000000000000374,-5.127364042900259378
0.547000000000000375,-5.094916102387923473
0.548000000000000376,-5.062615057486471670
0.549000000000000377,-5.030460729180930457
0.550000000000000377,-4.998452940319878302
0.551000000000000378,-4.966591515420371472
0.552000000000000379,-4.934876280475890553
0.553000000000000380,-4.903307062767352953
0.554000000000000381,-4.871883690677305978
0.555000000000000382,-4.840605993507439919
0.556000000000000383,-4.809473801299335882
0.557000000000000384,-4.778486944658707714
0.558000000000000385,-4.747645254583034991
0.559000000000000385,-4.716948562292737179
0.560000000000000386,-4.686396699065900506
0.561000000000000387,-4.655989496076601952
0.562000000000000388,-4.625726784236873890
0.563000000000000389,-4.595608394042326239
0.564000000000000390,-4.565634155421482099
0.565000000000000391,-4.535803897588801981
0.566000000000000392,-4.506117448901465039
0.567000000000000393,-4.476574636719899303
0.568000000000000393,-4.447175287272041366
0.569000000000000394,-4.417919225521361959
0.570000000000000395,-4.388806275038693805
0.571000000000000396,-4.359836257877740096
0.572000000000000397,-4.331008994454421668
0.573000000000000398,-4.302324303429890584
0.574000000000000399,-4.273782001597336233
0.575000000000000400,-4.245381903772463161
0.576000000000000401,-4.217123822687667278
0.577000000000000401,-4.189007568889941524
0.578000000000000402,-4.161032950642359118
0.579000000000000403,-4.133199773829219659
0.580000000000000404,-4.105507841864816321
0.581000000000000405,-4.077956955605733569
0.582000000000000406,-4.050546913266698468
0.583000000000000407,-4.023277510339918095
0.584000000000000408,-3.996148539517922593
0.585000000000000409,-3.969159790619789074
0.586000000000000409,-3.942311050520781457
0.587000000000000410,-3.915602103085345842
0.588000000000000411,-3.889032729103382824
0.589000000000000412,-3.862602706229824712
0.590000000000000413,-3.836311808927392430
0.591000000000000414,-3.810159808412549864
0.592000000000000415,-3.784146472604595690
0.593000000000000416,-3.758271566077797665
0.594000000000000417,-3.732534850016588024
0.595000000000000417,-3.706936082173767577
0.596000000000000418,-3.681475016831556868
0.597000000000000419,-3.656151404765654256
0.598000000000000420,-3.630964993212004721
0.599000000000000421,-3.605915525836445035
0.600000000000000422,-3.581002742707025899
0.601000000000000423,-3.556226380269035481
0.602000000000000424,-3.531586171322639078
0.603000000000000425,-3.507081845003109155
0.604000000000000425,-3.482713126763558709
0.605000000000000426,-3.458479738360144218
0.606000000000000427,-3.434381397839735506
0.607000000000000428,-3.410417819529839356
0.608000000000000429,-3.386588714030980718
0.609000000000000430,-3.362893788211195556
