# mos2-001_FORMICACID-AC
# h[nm],U(h)[kJ/mol]
0.149999999999999994,76.274732175659096356
0.150999999999999995,74.201237808292290765
0.151999999999999996,72.667110667799988732
0.152999999999999997,71.239872034015192526
0.153999999999999998,69.778979870418808673
0.154999999999999999,68.271738108526250244
0.156000000000000000,66.748809946218187861
0.157000000000000001,65.244987779730735156
0.158000000000000002,63.784372656390715406
0.159000000000000002,62.377689919978557498
0.160000000000000003,61.024809644951382381
0.161000000000000004,59.718788920542827725
0.162000000000000005,58.449666159850337976
0.163000000000000006,57.207315066253840996
0.164000000000000007,55.983233030228440441
0.165000000000000008,54.771404229551720277
0.166000000000000009,53.568472938312517329
0.167000000000000010,52.373468264325801158
0.168000000000000010,51.187285797351322003
0.169000000000000011,50.012081801274717918
0.170000000000000012,48.850686112968162433
0.171000000000000013,47.706097584641078413
0.172000000000000014,46.581093042413272087
0.173000000000000015,45.477957251859024268
0.174000000000000016,44.398326053189975937
0.175000000000000017,43.343126008384906811
0.176000000000000018,42.312589928299978226
0.177000000000000018,41.306327042778001157
0.178000000000000019,40.323428128753938893
0.179000000000000020,39.362588684244698811
0.180000000000000021,38.422236546305690297
0.181000000000000022,37.500653728161147171
0.182000000000000023,36.596085394506104649
0.183000000000000024,35.706831633415305305
0.184000000000000025,34.831319941066468004
0.185000000000000026,33.968158098748013174
0.186000000000000026,33.116168419031424719
0.187000000000000027,32.274405222364741519
0.188000000000000028,31.442157941099146967
0.189000000000000029,30.618942502405907646
0.190000000000000030,29.804483679193271684
0.191000000000000031,28.998690977308626771
0.192000000000000032,28.201630398364340380
0.193000000000000033,27.413494122245509743
0.194000000000000034,26.634569825140580690
0.195000000000000034,25.865211013422644726
0.196000000000000035,25.105809429702979685
0.197000000000000036,24.356770287858125812
0.198000000000000037,23.618490826985542697
0.199000000000000038,22.891342444442393855
0.200000000000000039,22.175656476800899242
0.201000000000000040,21.471713543972651195
0.202000000000000041,20.779736253647200783
0.203000000000000042,20.099884977297325150
0.204000000000000042,19.432256351486053347
0.205000000000000043,18.776884124988860947
0.206000000000000044,18.133741959231635121
0.207000000000000045,17.502747792831222284
0.208000000000000046,16.883769396989656286
0.209000000000000047,16.276630773880491176
0.210000000000000048,15.681119082122673802
0.211000000000000049,15.096991809523903072
0.212000000000000050,14.523983951452706265
0.213000000000000050,13.961814991813913167
0.214000000000000051,13.410195521344746794
0.215000000000000052,12.868833363828844796
0.216000000000000053,12.337439114119991501
0.217000000000000054,11.815731022092178293
0.218000000000000055,11.303439183498007026
0.219000000000000056,10.800309022097932754
0.220000000000000057,10.306104067316471884
0.221000000000000058,9.820608048197108531
0.222000000000000058,9.343626337734903586
0.223000000000000059,8.874986792004090574
0.224000000000000060,8.414540036127728939
0.225000000000000061,7.962159254348027737
0.226000000000000062,7.517739544542807906
0.227000000000000063,7.081196898788183702
0.228000000000000064,6.652466871274810956
0.229000000000000065,6.231502993310748195
0.230000000000000066,5.818274992541375923
0.231000000000000066,5.412766870110070627
0.232000000000000067,5.014974885481497502
0.233000000000000068,4.624905494231168923
0.234000000000000069,4.242573279431598010
0.235000000000000070,3.867998912471485085
0.236000000000000071,3.501207174346491424
0.237000000000000072,3.142225063751515002
0.238000000000000073,2.791080013764044576
0.239000000000000073,2.447798234595610190
0.240000000000000074,2.112403195847972537
0.241000000000000075,1.784914257978046148
0.242000000000000076,1.465345459269291162
0.243000000000000077,1.153704461540241866
0.244000000000000078,0.849991655096497212
0.245000000000000079,0.554199421046795870
0.246000000000000080,0.266311547048838193
0.247000000000000081,-0.013697209188769665
0.248000000000000081,-0.285861415760408799
0.249000000000000082,-0.550225130043231592
0.250000000000000111,-0.806841938971464501
0.251000000000000112,-1.055774885934260165
0.252000000000000113,-1.297096294572413822
0.253000000000000114,-1.530887500001394175
0.254000000000000115,-1.757238498071906907
0.255000000000000115,-1.976247523212443680
0.256000000000000116,-2.188020565204385370
0.257000000000000117,-2.392670834937332902
0.258000000000000118,-2.590318188798520715
0.259000000000000119,-2.781088520883495896
0.260000000000000120,-2.965113131690377379
0.261000000000000121,-3.142528081390762118
0.262000000000000122,-3.313473535170929019
0.263000000000000123,-3.478093107516846860
0.264000000000000123,-3.636533211687598133
0.265000000000000124,-3.788942419991291555
0.266000000000000125,-3.935470839854324332
0.267000000000000126,-4.076269510064336465
0.268000000000000127,-4.211489820975854670
0.269000000000000128,-4.341282961898766501
0.270000000000000129,-4.465799398348069715
0.271000000000000130,-4.585188381321008144
0.272000000000000131,-4.699597490286750556
0.273000000000000131,-4.809172211126001351
0.274000000000000132,-4.914055549843936888
0.275000000000000133,-5.014387682500136556
0.276000000000000134,-5.110305641453603442
0.277000000000000135,-5.201943037708990580
0.278000000000000136,-5.289429818871564493
0.279000000000000137,-5.372892061971437982
0.280000000000000138,-5.452451800201543186
0.281000000000000139,-5.528226882427388134
0.282000000000000139,-5.600330864167679223
0.283000000000000140,-5.668872928612690210
0.284000000000000141,-5.733957836139251363
0.285000000000000142,-5.795685900696523341
0.286000000000000143,-5.854152991372868264
0.287000000000000144,-5.909450557409833493
0.288000000000000145,-5.961665674903029455
0.289000000000000146,-6.010881113418816923
0.290000000000000147,-6.057175420760271933
0.291000000000000147,-6.100623024132389105
0.292000000000000148,-6.141294345985401471
0.293000000000000149,-6.179255932853019218
0.294000000000000150,-6.214570595549811394
0.295000000000000151,-6.247297559146312906
0.296000000000000152,-6.277492621201151479
0.297000000000000153,-6.305208316795330781
0.298000000000000154,-6.330494088983792622
0.299000000000000155,-6.353396463352420476
0.300000000000000155,-6.373959225444165710
0.301000000000000156,-6.392223599894803598
0.302000000000000157,-6.408228430196852621
0.303000000000000158,-6.422010358087841375
0.304000000000000159,-6.433604001637164060
0.305000000000000160,-6.443042131181991650
0.306000000000000161,-6.450355842338625578
0.307000000000000162,-6.455574725389125135
0.308000000000000163,-6.458727030414801007
0.309000000000000163,-6.459839827617630981
0.310000000000000164,-6.458939162337567375
0.311000000000000165,-6.456050204337631548
0.312000000000000166,-6.451197390990276226
0.313000000000000167,-6.444404564056519291
0.314000000000000168,-6.435695099804665809
0.315000000000000169,-6.425092032267447628
0.316000000000000170,-6.412618169485481801
0.317000000000000171,-6.398296202630456619
0.318000000000000171,-6.382148807944300728
0.319000000000000172,-6.364198741470039167
0.320000000000000173,-6.344468926586448454
0.321000000000000174,-6.322982534392192377
0.322000000000000175,-6.299763057015691281
0.323000000000000176,-6.274834373954709221
0.324000000000000177,-6.248220811574774380
0.325000000000000178,-6.219947195917809424
0.326000000000000179,-6.190038898992609617
0.327000000000000179,-6.158521878736001653
0.328000000000000180,-6.125422712848934914
0.329000000000000181,-6.090768626725092005
0.330000000000000182,-6.054587515700179168
0.331000000000000183,-6.016907961859820908
0.332000000000000184,-5.977759245650859476
0.333000000000000185,-5.937171352546882552
0.334000000000000186,-5.895174975022734465
0.335000000000000187,-5.851801510095538283
0.336000000000000187,-5.807083052691102587
0.337000000000000188,-5.761052385094545869
0.338000000000000189,-5.713742962743155296
0.339000000000000190,-5.665188896617285863
0.340000000000000191,-5.615424932482072862
0.341000000000000192,-5.564486427229118348
0.342000000000000193,-5.512409322562366931
0.343000000000000194,-5.459230116267505650
0.344000000000000195,-5.404985831297953069
0.345000000000000195,-5.349713982904541254
0.346000000000000196,-5.293452544028747653
0.347000000000000197,-5.236239909172438978
0.348000000000000198,-5.178114856949406430
0.349000000000000199,-5.119116511516135226
0.350000000000000200,-5.059284303071415856
0.351000000000000201,-4.998657927606022788
0.352000000000000202,-4.937277306075568362
0.353000000000000203,-4.875182543161262316
0.354000000000000203,-4.812413885774876832
0.355000000000000204,-4.749011681455889367
0.356000000000000205,-4.685016336800472025
0.357000000000000206,-4.620468276053743217
0.358000000000000207,-4.555407899988393794
0.359000000000000208,-4.489875545185017636
0.360000000000000209,-4.423911443821361367
0.361000000000000210,-4.357555684070062441
0.362000000000000210,-4.290848171196887328
0.363000000000000211,-4.223828589444098114
0.364000000000000212,-4.156536364776473924
0.365000000000000213,-4.089010628560481031
0.366000000000000214,-4.021290182240471189
0.367000000000000215,-3.953413463069214373
0.368000000000000216,-3.885418510943961401
0.369000000000000217,-3.817342936393048891
0.370000000000000218,-3.749223889752530514
0.371000000000000218,-3.681098031566574669
0.372000000000000219,-3.613001504240339390
0.373000000000000220,-3.544969904968866103
0.374000000000000221,-3.477038259960897992
0.375000000000000222,-3.409240999971856034
0.376000000000000223,-3.341611937156154788
0.377000000000000224,-3.274184243244802950
0.378000000000000225,-3.206990429050553981
0.379000000000000226,-3.140062325299267876
0.380000000000000226,-3.073431064782852662
0.381000000000000227,-3.007127065825909717
0.382000000000000228,-2.941180017055476270
0.383000000000000229,-2.875618863460443819
0.384000000000000230,-2.810471793724693246
0.385000000000000231,-2.745766228815891274
0.386000000000000232,-2.681528811809533952
0.387000000000000233,-2.617785398926063323
0.388000000000000234,-2.554561051757044066
0.389000000000000234,-2.491880030654885836
0.390000000000000235,-2.429765789259029418
0.391000000000000236,-2.368240970130456979
0.392000000000000237,-2.307327401465001149
0.393000000000000238,-2.247046094855230880
0.394000000000000239,-2.187417244069577826
0.395000000000000240,-2.128460224816852708
0.396000000000000241,-2.070193595463607039
0.397000000000000242,-2.012635098671261780
0.398000000000000242,-1.955801663919715994
0.399000000000000243,-1.899709410883697158
0.400000000000000244,-1.844373653627959131
0.401000000000000245,-1.789808905587542132
0.402000000000000246,-1.736028885299013114
0.403000000000000247,-1.683046522848850257
0.404000000000000248,-1.630873967005301406
0.405000000000000249,-1.579522593000160402
0.406000000000000250,-1.529003010927243666
0.407000000000000250,-1.479325074724700650
0.408000000000000251,-1.430497891708601754
0.409000000000000252,-1.382529832625829513
0.410000000000000253,-1.335428542194598389
0.411000000000000254,-1.289200950101645260
0.412000000000000255,-1.243853282425537277
0.413000000000000256,-1.199391073456263612
0.414000000000000257,-1.155819177881781901
0.415000000000000258,-1.113141783313000177
0.416000000000000258,-1.071362423119162743
0.417000000000000259,-1.030483989546485235
0.418000000000000260,-0.990508747093485353
0.419000000000000261,-0.951438346117187583
0.420000000000000262,-0.913273836645210557
0.421000000000000263,-0.876015682369394533
0.422000000000000264,-0.839663774797436147
0.423000000000000265,-0.804217447539718244
0.424000000000000266,-0.769675490709416876
0.425000000000000266,-0.736036165414511889
0.426000000000000267,-0.703297218321315754
0.427000000000000268,-0.671455896269769981
0.428000000000000269,-0.640508960921557069
0.429000000000000270,-0.610452703422859289
0.430000000000000271,-0.581282959064276183
0.431000000000000272,-0.552995121921247335
0.432000000000000273,-0.525584159458978517
0.433000000000000274,-0.499044627086660142
0.434000000000000274,-0.473370682646423457
0.435000000000000275,-0.448556100823237824
0.436000000000000276,-0.424594287462613740
0.437000000000000277,-0.401478293783637530
0.438000000000000278,-0.379200830475585171
0.439000000000000279,-0.357754281666970653
0.440000000000000280,-0.337130718756519898
0.441000000000000281,-0.317321914096199642
0.442000000000000282,-0.298319354517080859
0.443000000000000282,-0.280114254689270425
0.444000000000000283,-0.262697570307931283
0.445000000000000284,-0.246060011097780557
0.446000000000000285,-0.230192053629062643
0.447000000000000286,-0.215083953938641242
0.448000000000000287,-0.200725759950137084
0.449000000000000288,-0.187107323687772387
0.450000000000000289,-0.174218313278889758
0.451000000000000290,-0.162048224740669072
0.452000000000000290,-0.150586393547006980
0.453000000000000291,-0.139822005971908941
0.454000000000000292,-0.129744110206239688
0.455000000000000293,-0.120341627244992574
0.456000000000000294,-0.111603361542712887
0.457000000000000295,-0.103518011435004456
0.458000000000000296,-0.096074179324475345
0.459000000000000297,-0.089260381629751986
0.460000000000000298,-0.083065058496595082
0.461000000000000298,-0.077476583270382759
0.462000000000000299,-0.072483271729614010
0.463000000000000300,-0.068073391080271980
0.464000000000000301,-0.064235168711266971
0.465000000000000302,-0.060956800711351289
0.466000000000000303,-0.058226460148190960
0.467000000000000304,-0.056032305110481219
0.468000000000000305,-0.054362486514285047
0.469000000000000306,-0.053205155674870316
0.470000000000000306,-0.052548471645636120
0.471000000000000307,-0.052380608325814662
0.472000000000000308,-0.052689761338887052
0.473000000000000309,-0.053464154683745699
0.474000000000000310,-0.054692047160844900
0.475000000000000311,-0.056361738575714283
0.476000000000000312,-0.058461575722323758
0.477000000000000313,-0.060979958148933776
0.478000000000000314,-0.063905343709179524
0.479000000000000314,-0.067226253901261385
0.480000000000000315,-0.070931278998158681
0.481000000000000316,-0.075009082971964097
0.482000000000000317,-0.079448408215422123
0.483000000000000318,-0.084238080063918447
0.484000000000000319,-0.089367011121165130
0.485000000000000320,-0.094824205391954366
0.486000000000000321,-0.100598762225341545
0.487000000000000322,-0.106679880071725949
0.488000000000000322,-0.113056860057294067
0.489000000000000323,-0.119719109379368027
0.490000000000000324,-0.126656144526200803
0.491000000000000325,-0.133857594324797546
0.492000000000000326,-0.141313202820362416
0.493000000000000327,-0.149012831990986278
0.494000000000000328,-0.156946464301208427
0.495000000000000329,-0.165104205098065060
0.496000000000000330,-0.173476284853274765
0.497000000000000330,-0.182053061255191551
0.498000000000000331,-0.190825021154136742
0.499000000000000332,-0.199782782364727518
0.500000000000000333,-0.208917095328830321
0.501000000000000334,-0.218218844642686566
0.502000000000000335,-0.227679050451803977
0.503000000000000336,-0.237288869717143414
0.504000000000000337,-0.247039597356130181
0.505000000000000338,-0.256922667261968996
0.506000000000000338,-0.266929653204736939
0.507000000000000339,-0.277052269617670599
0.508000000000000340,-0.287282372272050002
0.509000000000000341,-0.297611958844032742
0.510000000000000342,-0.308033169376757399
0.511000000000000343,-0.318538286640999480
0.512000000000000344,-0.329119736397616158
0.513000000000000345,-0.339770087564961631
0.514000000000000346,-0.350482052294464774
0.515000000000000346,-0.361248485957416376
0.516000000000000347,-0.372062387046067256
0.517000000000000348,-0.382916896992046285
0.518000000000000349,-0.393805299905041761
0.519000000000000350,-0.404721022234661887
0.520000000000000351,-0.415657632358376883
0.521000000000000352,-0.426608840098301301
0.522000000000000353,-0.437568496169615628
0.523000000000000353,-0.448530591563337633
0.524000000000000354,-0.459489256866083384
0.525000000000000355,-0.470438761519458570
0.526000000000000356,-0.481373513021595478
0.527000000000000357,-0.492288056073378555
0.528000000000000358,-0.503177071671796705
0.529000000000000359,-0.514035376152805479
0.530000000000000360,-0.524857920186069804
0.531000000000000361,-0.535639787723872329
0.532000000000000361,-0.546376194906431856
0.533000000000000362,-0.557062488925821109
0.534000000000000363,-0.567694146850621140
0.535000000000000364,-0.578266774413414120
0.536000000000000365,-0.588776104763130470
0.537000000000000366,-0.599217997184257611
0.538000000000000367,-0.609588435784825355
0.539000000000000368,-0.619883528155082297
0.540000000000000369,-0.630099503998669208
0.541000000000000369,-0.640232713738103754
0.542000000000000370,-0.650279627096294610
0.543000000000000371,-0.660236831655795053
0.544000000000000372,-0.670101031397433267
0.545000000000000373,-0.679869045219909207
0.546000000000000374,-0.689537805441926333
0.547000000000000375,-0.699104356288347772
0.548000000000000376,-0.708565852361857207
0.549000000000000377,-0.717919557101518002
0.550000000000000377,-0.727162841229627377
0.551000000000000378,-0.736293181188184320
0.552000000000000379,-0.745308157566253016
0.553000000000000380,-0.754205453519495084
0.554000000000000381,-0.762982853183039600
0.555000000000000382,-0.771638240078898030
0.556000000000000383,-0.780169595519012438
0.557000000000000384,-0.788574997005053846
0.558000000000000385,-0.796852616626003041
0.559000000000000385,-0.805000719454547431
0.560000000000000386,-0.813017661943233549
0.561000000000000387,-0.820901890321367511
0.562000000000000388,-0.828651938993510861
0.563000000000000389,-0.836266428940507067
0.564000000000000390,-0.843744066123809366
0.565000000000000391,-0.851083639893971400
0.566000000000000392,-0.858284021404040032
0.567000000000000393,-0.865344162028604869
0.568000000000000393,-0.872263091789202916
0.569000000000000394,-0.879039917786784586
0.570000000000000395,-0.885673822641855901
0.571000000000000396,-0.892164062942945479
0.572000000000000397,-0.898509967703991164
0.573000000000000398,-0.904710936831192747
0.574000000000000399,-0.910766439599891009
0.575000000000000400,-0.916676013141979773
0.576000000000000401,-0.922439260944333816
0.577000000000000401,-0.928055851358737471
0.578000000000000402,-0.933525516123734356
0.579000000000000403,-0.938848048898812793
0.580000000000000404,-0.944023303811352799
0.581000000000000405,-0.949051194016661492
0.582000000000000406,-0.953931690271492050
0.583000000000000407,-0.958664819521339751
0.584000000000000408,-0.963250663501855064
0.585000000000000409,-0.967689357354630908
0.586000000000000409,-0.971981088257674819
0.587000000000000410,-0.976126094070782768
0.588000000000000411,-0.980124661996063962
0.589000000000000412,-0.983977127253844230
0.590000000000000413,-0.987683871774118538
0.591000000000000414,-0.991245322903765880
0.592000000000000415,-0.994661952129681337
0.593000000000000416,-0.997934273817970618
0.594000000000000417,-1.001062843969357186
0.595000000000000417,-1.004048258990921427
0.596000000000000418,-1.006891154484269579
0.597000000000000419,-1.009592204050246744
0.598000000000000420,-1.012152118110264176
0.599000000000000421,-1.014571642744304558
0.600000000000000422,-1.016851558545688983
0.601000000000000423,-1.018992679492613185
0.602000000000000424,-1.020995851836525636
0.603000000000000425,-1.022861953007356828
0.604000000000000425,-1.024591890535594185
0.605000000000000426,-1.026186600991237485
0.606000000000000427,-1.027647048939624108
0.607000000000000428,-1.028974225914063290
0.608000000000000429,-1.030169149405349094
0.609000000000000430,-1.031232861867992234
0.610000000000000431,-1.032166429743267999
0.611000000000000432,-1.032970942498912637
0.612000000000000433,-1.033647511685474862
0.613000000000000433,-1.034197270009266756
