# Montmorillonite-001-NaCEC108_PHESCA-JS
# h[nm],U(h)[kJ/mol]
0.149999999999999994,132.354305374807921680
0.150999999999999995,130.745534177672055876
0.151999999999999996,129.214428357674307790
0.152999999999999997,127.633702076971943029
0.153999999999999998,125.989582955508097939
0.154999999999999999,124.309300722221067304
0.156000000000000000,122.626171688840230445
0.157000000000000001,120.965469803277372307
0.158000000000000002,119.341004836284739099
0.159000000000000002,117.756581367355693146
0.160000000000000003,116.209142743275265275
0.161000000000000004,114.691986130315200398
0.162000000000000005,113.197350469523286165
0.163000000000000006,111.718180414564045577
0.164000000000000007,110.249119913069606014
0.165000000000000008,108.786893719706625916
0.166000000000000009,107.330259439299609880
0.167000000000000010,105.879696737856122013
0.168000000000000010,104.436967678207452082
0.169000000000000011,103.004645853680273149
0.170000000000000012,101.585678793291705801
0.171000000000000013,100.183020847230281447
0.172000000000000014,98.799353110030622815
0.173000000000000015,97.436892441552089394
0.174000000000000016,96.097282332950598516
0.175000000000000017,94.781553119388007644
0.176000000000000018,93.490136795357429378
0.177000000000000018,92.222921516897955030
0.178000000000000019,90.979332027652588977
0.179000000000000020,89.758424146819237421
0.180000000000000021,88.558983686365152721
0.181000000000000022,87.379622432391826692
0.182000000000000023,86.218865944698109161
0.183000000000000024,85.075229791545623925
0.184000000000000025,83.947282392874541301
0.185000000000000026,82.833693884048656741
0.186000000000000026,81.733271348935318201
0.187000000000000027,80.644981436593880630
0.188000000000000028,79.567961808778449040
0.189000000000000029,78.501523107097028742
0.190000000000000030,77.445143219182426719
0.191000000000000031,76.398455599515600056
0.192000000000000032,75.361233295006456956
0.193000000000000033,74.333370165491160719
0.194000000000000034,73.314860597361885652
0.195000000000000034,72.305778802288415363
0.196000000000000035,71.306258585876491907
0.197000000000000036,70.316474272903320752
0.198000000000000037,69.336623293154190151
0.199000000000000038,68.366910769008256921
0.200000000000000039,67.407536304944372318
0.201000000000000040,66.458683060672981924
0.202000000000000041,65.520509093140134382
0.203000000000000042,64.593140876884064028
0.204000000000000042,63.676668855321871376
0.205000000000000043,62.771144835375466187
0.206000000000000044,61.876581012144377780
0.207000000000000045,60.992950396830792670
0.208000000000000046,60.120188417639077727
0.209000000000000047,59.258195467873676421
0.210000000000000048,58.406840186104091117
0.211000000000000049,57.565963268425129229
0.212000000000000050,56.735381631095108901
0.213000000000000050,55.914892761992874171
0.214000000000000051,55.104279120396860492
0.215000000000000052,54.303312465754501659
0.216000000000000053,53.511758016745964994
0.217000000000000054,52.729378361571015432
0.218000000000000055,51.955937058652601479
0.219000000000000056,51.191201883624593449
0.220000000000000057,50.434947693405000280
0.221000000000000058,49.686958891297607011
0.222000000000000058,48.947031488399865395
0.223000000000000059,48.214974766183154031
0.224000000000000060,47.490612553026672060
0.225000000000000061,46.773784133844898747
0.226000000000000062,46.064344816874758237
0.227000000000000063,45.362166185323985701
0.228000000000000064,44.667136064067172185
0.229000000000000065,43.979158233055152039
0.230000000000000066,43.298151919717938085
0.231000000000000066,42.624051102521264056
0.232000000000000067,41.956803657111471750
0.233000000000000068,41.296370375265020414
0.234000000000000069,40.642723885255733762
0.235000000000000070,39.995847500356163096
0.236000000000000071,39.355734020087602687
0.237000000000000072,38.722384506593456877
0.238000000000000073,38.095807056202332319
0.239000000000000073,37.476015583919213725
0.240000000000000074,36.863028636281505612
0.241000000000000075,36.256868245779727999
0.242000000000000076,35.657558837896104365
0.243000000000000077,35.065126199784288019
0.244000000000000078,34.479596517713275716
0.245000000000000079,33.900995488642806208
0.246000000000000080,33.329347509691665152
0.247000000000000081,32.764674947807243655
0.248000000000000081,32.206997490647154336
0.249000000000000082,31.656331578536530458
0.250000000000000111,31.112689916365024345
0.251000000000000112,30.576081063429541018
0.252000000000000113,30.046509098502760082
0.253000000000000114,29.523973356809506186
0.254000000000000115,29.008468235108409772
0.255000000000000115,28.499983060701094217
0.256000000000000116,27.998502019912177019
0.257000000000000117,27.504004141392034199
0.258000000000000118,27.016463329483496381
0.259000000000000119,26.535848442849719220
0.260000000000000120,26.062123413579605824
0.261000000000000121,25.595247402057630381
0.262000000000000122,25.135174983000609927
0.263000000000000123,24.681856358217316938
0.264000000000000123,24.235237591830429693
0.265000000000000124,23.795260863909618365
0.266000000000000125,23.361864738691838994
0.267000000000000126,22.934984443807483245
0.268000000000000127,22.514552157181771719
0.269000000000000128,22.100497298538563484
0.270000000000000129,21.692746822692782871
0.271000000000000130,21.291225512075264703
0.272000000000000131,20.895856266189294814
0.273000000000000131,20.506560385946087877
0.274000000000000132,20.123257851067869240
0.275000000000000133,19.745867588978853746
0.276000000000000134,19.374307733825656186
0.277000000000000135,19.008495874479041987
0.278000000000000136,18.648349290566137881
0.279000000000000137,18.293785175767840911
0.280000000000000138,17.944720847788772744
0.281000000000000139,17.601073944566017815
0.282000000000000139,17.262762606429777890
0.283000000000000140,16.929705644062678971
0.284000000000000141,16.601822692225560729
0.285000000000000142,16.279034349326671816
0.286000000000000143,15.961262303008306063
0.287000000000000144,15.648429442011245527
0.288000000000000145,15.340459954652056140
0.289000000000000146,15.037279414314216552
0.290000000000000147,14.738814852408641087
0.291000000000000147,14.444994819306705480
0.292000000000000148,14.155749433786104063
0.293000000000000149,13.871010421561198456
0.294000000000000150,13.590711143492189450
0.295000000000000151,13.314786614084558991
0.296000000000000152,13.043173510900771817
0.297000000000000153,12.775810175511844946
0.298000000000000154,12.512636606616563739
0.299000000000000155,12.253594445952606051
0.300000000000000155,11.998626957615694977
0.301000000000000156,11.747679001392342002
0.302000000000000157,11.500697000696833427
0.303000000000000158,11.257628905687326437
0.304000000000000159,11.018424152116406134
0.305000000000000160,10.783033616451245251
0.306000000000000161,10.551409567776163456
0.307000000000000162,10.323505616967175058
0.308000000000000163,10.099276663603870219
0.309000000000000163,9.878678841059203464
0.310000000000000164,9.661669460182418234
0.311000000000000165,9.448206951964831291
0.312000000000000166,9.238250809552834397
0.313000000000000167,9.031761529946994216
0.314000000000000168,8.828700555701113117
0.315000000000000169,8.629030216910479112
0.316000000000000170,8.432713673754273387
0.317000000000000171,8.239714859833890515
0.318000000000000171,8.049998426525885264
0.319000000000000172,7.863529688546259777
0.320000000000000173,7.680274570901818088
0.321000000000000174,7.500199557383856686
0.322000000000000175,7.323271640740045996
0.323000000000000176,7.149458274642033651
0.324000000000000177,6.978727327548641668
0.325000000000000178,6.811047038548190713
0.326000000000000179,6.646385975247609323
0.327000000000000179,6.484712993761698741
0.328000000000000180,6.325997200842016888
0.329000000000000181,6.170207918172197381
0.330000000000000182,6.017314648844767078
0.331000000000000183,5.867287046023437647
0.332000000000000184,5.720094883784993200
0.333000000000000185,5.575708030125603010
0.334000000000000186,5.434096422107986157
0.335000000000000187,5.295230043118316132
0.336000000000000187,5.159078902194777605
0.337000000000000188,5.025613015383867399
0.338000000000000189,4.894802389074659921
0.339000000000000190,4.766617005256767570
0.340000000000000191,4.641026808643548662
0.341000000000000192,4.518001695598397482
0.342000000000000193,4.397511504798944593
0.343000000000000194,4.279526009571498868
0.344000000000000195,4.164014911826185994
0.345000000000000195,4.050947837521199801
0.346000000000000196,3.940294333583984177
0.347000000000000197,3.832023866215899854
0.348000000000000198,3.726105820506822486
0.349000000000000199,3.622509501285867461
0.350000000000000200,3.521204135134686997
0.351000000000000201,3.422158873490269038
0.352000000000000202,3.325342796764980680
0.353000000000000203,3.230724919412418128
0.354000000000000203,3.138274195868874017
0.355000000000000204,3.047959527301688620
0.356000000000000205,2.959749769097098415
0.357000000000000206,2.873613739021812385
0.358000000000000207,2.789520225994664759
0.359000000000000208,2.707437999406171691
0.360000000000000209,2.627335818925979449
0.361000000000000210,2.549182444740357933
0.362000000000000210,2.472946648163747874
0.363000000000000211,2.398597222570777454
0.364000000000000212,2.326102994597180729
0.365000000000000213,2.255432835560395866
0.366000000000000214,2.186555673052793303
0.367000000000000215,2.119440502662766956
0.368000000000000216,2.054056399781051034
0.369000000000000217,1.990372531452080818
0.370000000000000218,1.928358168232097380
0.371000000000000218,1.867982696018250177
0.372000000000000219,1.809215627814759531
0.373000000000000220,1.752026615404495447
0.374000000000000221,1.696385460896394637
0.375000000000000222,1.642262128121213749
0.376000000000000223,1.589626753849801899
0.377000000000000224,1.538449658810435050
0.378000000000000225,1.488701358483290438
0.379000000000000226,1.440352573652160739
0.380000000000000226,1.393374240695017585
0.381000000000000227,1.347737521597102361
0.382000000000000228,1.303413813671440824
0.383000000000000229,1.260374758973572318
0.384000000000000230,1.218592253398655734
0.385000000000000231,1.178038455450499677
0.386000000000000232,1.138685794673666152
0.387000000000000233,1.100506979740802027
0.388000000000000234,1.063475006188988159
0.389000000000000234,1.027563163799730450
0.390000000000000235,0.992745043618609158
0.391000000000000236,0.958994544611582733
0.392000000000000237,0.926285879955940361
0.393000000000000238,0.894593582964916534
0.394000000000000239,0.863892512645873412
0.395000000000000240,0.834157858892738746
0.396000000000000241,0.805365147314283880
0.397000000000000242,0.777490243700534878
0.398000000000000242,0.750509358130213133
0.399000000000000243,0.724399048722938144
0.400000000000000244,0.699136225040317139
0.401000000000000245,0.674698151140686542
0.402000000000000246,0.651062448292905271
0.403000000000000247,0.628207097354736343
0.404000000000000248,0.606110440822153373
0.405000000000000249,0.584751184556000836
0.406000000000000250,0.564108399192961962
0.407000000000000250,0.544161521248003099
0.408000000000000251,0.524890353915758667
0.409000000000000252,0.506275067578606741
0.410000000000000253,0.488296200029311733
0.411000000000000254,0.470934656416383823
0.412000000000000255,0.454171708920420136
0.413000000000000256,0.437988996169735301
0.414000000000000257,0.422368522403898161
0.415000000000000258,0.407292656393591301
0.416000000000000258,0.392744130125553259
0.417000000000000259,0.378706037261126671
0.418000000000000260,0.365161831377192381
0.419000000000000261,0.352095323998017629
0.420000000000000262,0.339490682426812018
0.421000000000000263,0.327332427385411351
0.422000000000000264,0.315605430470791037
0.423000000000000265,0.304294911436787996
0.424000000000000266,0.293386435309402116
0.425000000000000266,0.282865909344092004
0.426000000000000267,0.272719579833114123
0.427000000000000268,0.262934028771087291
0.428000000000000269,0.253496170386699970
0.429000000000000270,0.244393247548348791
0.430000000000000271,0.235612828051474515
0.431000000000000272,0.227142800795020999
0.432000000000000273,0.218971371854501162
0.433000000000000274,0.211087060458821696
0.434000000000000274,0.203478694877958832
0.435000000000000275,0.196135408228377051
0.436000000000000276,0.189046634202896996
0.437000000000000277,0.182202102731587129
0.438000000000000278,0.175591835580030914
0.439000000000000279,0.169206141891168699
0.440000000000000280,0.163035613676735386
0.441000000000000281,0.157071121264155705
0.442000000000000282,0.151303808704462389
0.443000000000000282,0.145725089146858305
0.444000000000000283,0.140326640185053808
0.445000000000000284,0.135100399180614589
0.446000000000000285,0.130038558568229434
0.447000000000000286,0.125133561147561773
0.448000000000000287,0.120378095366426408
0.449000000000000288,0.115765090599522308
0.450000000000000289,0.111287712427094898
0.451000000000000290,0.106939357917507236
0.452000000000000290,0.102713650917592408
0.453000000000000291,0.098604437354608415
0.454000000000000292,0.094605780553236180
0.455000000000000293,0.090711956571103897
0.456000000000000294,0.086917449556043483
0.457000000000000295,0.083216947128143676
0.458000000000000296,0.079605335789589088
0.459000000000000297,0.076077696365001099
0.460000000000000298,0.072629299474973180
0.461000000000000298,0.069255601045244947
0.462000000000000299,0.065952237853911536
0.463000000000000300,0.062715023118880733
0.464000000000000301,0.059539942127627185
0.465000000000000302,0.056423147911238883
0.466000000000000303,0.053360956964609033
0.467000000000000304,0.050349845014397612
0.468000000000000305,0.047386442836462275
0.469000000000000306,0.044467532124177180
0.470000000000000306,0.041590041408967937
0.471000000000000307,0.038751042034441505
0.472000000000000308,0.035947744185143390
0.473000000000000309,0.033177492971049792
0.474000000000000310,0.030437764568756843
0.475000000000000311,0.027726162420221544
0.476000000000000312,0.025040413489794772
0.477000000000000313,0.022378364580274361
0.478000000000000314,0.019737978708567656
0.479000000000000314,0.017117331541433040
0.480000000000000315,0.014514607891831283
0.481000000000000316,0.011928098276143656
0.482000000000000317,0.009356195532655358
0.483000000000000318,0.006797391501438171
0.484000000000000319,0.004250273765851686
0.485000000000000320,0.001713522455736011
0.486000000000000321,-0.000814092887678802
0.487000000000000322,-0.003333716385173652
0.488000000000000322,-0.005846408831255820
0.489000000000000323,-0.008353150644462154
0.490000000000000324,-0.010854844756291679
0.491000000000000325,-0.013352319439072387
0.492000000000000326,-0.015846331072994820
0.493000000000000327,-0.018337566852675905
0.494000000000000328,-0.020826647433550859
0.495000000000000329,-0.023314129518540123
0.496000000000000330,-0.025800508385346043
0.497000000000000330,-0.028286220354983866
0.498000000000000331,-0.030771645201823728
0.499000000000000332,-0.033257108505901758
0.500000000000000333,-0.035742883947909976
0.501000000000000334,-0.038229195547441350
0.502000000000000335,-0.040716219845192470
0.503000000000000336,-0.043204088029644691
0.504000000000000337,-0.045692888008937192
0.505000000000000338,-0.048182666428558944
0.506000000000000338,-0.050673430635574924
0.507000000000000339,-0.053165150590067364
0.508000000000000340,-0.055657760724487540
0.509000000000000341,-0.058151161751722392
0.510000000000000342,-0.060645222422503552
0.511000000000000343,-0.063139781233031253
0.512000000000000344,-0.065634648083461949
0.513000000000000345,-0.068129605888108416
0.514000000000000346,-0.070624412138127118
0.515000000000000346,-0.073118800417399182
0.516000000000000347,-0.075612481872484913
0.517000000000000348,-0.078105146637411554
0.518000000000000349,-0.080596465214056098
0.519000000000000350,-0.083086089808993707
0.520000000000000351,-0.085573655627517592
0.521000000000000352,-0.088058782125758434
0.522000000000000353,-0.090541074221552012
0.523000000000000353,-0.093020123464992610
0.524000000000000354,-0.095495509169388579
0.525000000000000355,-0.097966799503454854
0.526000000000000356,-0.100433552545494062
0.527000000000000357,-0.102895317300430583
0.528000000000000358,-0.105351634680390743
0.529000000000000359,-0.107802038449721360
0.530000000000000360,-0.110246056135086395
0.531000000000000361,-0.112683209901559139
0.532000000000000361,-0.115113017395365100
0.533000000000000362,-0.117534992554102893
0.534000000000000363,-0.119948646385138663
0.535000000000000364,-0.122353487712993342
0.536000000000000365,-0.124749023896379763
0.537000000000000366,-0.127134761515694528
0.538000000000000367,-0.129510207031604624
0.539000000000000368,-0.131874867415558483
0.540000000000000369,-0.134228250752794098
0.541000000000000369,-0.136569866818668062
0.542000000000000370,-0.138899227628871719
0.543000000000000371,-0.141215847964326319
0.544000000000000372,-0.143519245871346374
0.545000000000000373,-0.145808943137777758
0.546000000000000374,-0.148084465745732585
0.547000000000000375,-0.150345344301568318
0.548000000000000376,-0.152591114443769826
0.549000000000000377,-0.154821317229305588
0.550000000000000377,-0.157035499499118519
0.551000000000000378,-0.159233214223308606
0.552000000000000379,-0.161414020826639776
0.553000000000000380,-0.163577485494918962
0.554000000000000381,-0.165723181462818420
0.555000000000000382,-0.167850689283756127
0.556000000000000383,-0.169959597082272429
0.557000000000000384,-0.172049500789590804
0.558000000000000385,-0.174120004362735226
0.559000000000000385,-0.176170719987855190
0.560000000000000386,-0.178201268268193408
0.561000000000000387,-0.180211278397214514
0.562000000000000388,-0.182200388317368428
0.563000000000000389,-0.184168244865021979
0.564000000000000390,-0.186114503901946921
0.565000000000000391,-0.188038830433889248
0.566000000000000392,-0.189940898716620316
0.567000000000000393,-0.191820392349973806
0.568000000000000393,-0.193677004360206073
0.569000000000000394,-0.195510437271184112
0.570000000000000395,-0.197320403164774782
0.571000000000000396,-0.199106623730816223
0.572000000000000397,-0.200868830307128432
0.573000000000000398,-0.202606763909858101
0.574000000000000399,-0.204320175254616349
0.575000000000000400,-0.206008824768706106
0.576000000000000401,-0.207672482594822044
0.577000000000000401,-0.209310928586610295
0.578000000000000402,-0.210923952296338646
0.579000000000000403,-0.212511352955064847
0.580000000000000404,-0.214072939445653088
0.581000000000000405,-0.215608530268845300
0.582000000000000406,-0.217117953502826394
0.583000000000000407,-0.218601046756462913
0.584000000000000408,-0.220057657116580513
0.585000000000000409,-0.221487641089523318
0.586000000000000409,-0.222890864537275663
0.587000000000000410,-0.224267202608442823
0.588000000000000411,-0.225616539664265842
0.589000000000000412,-0.226938769200048240
0.590000000000000413,-0.228233793762106035
0.591000000000000414,-0.229501524860571682
0.592000000000000415,-0.230741882878251175
0.593000000000000416,-0.231954796975733707
0.594000000000000417,-0.233140204992999978
0.595000000000000417,-0.234298053347766544
0.596000000000000418,-0.235428296930664915
0.597000000000000419,-0.236530898997600769
0.598000000000000420,-0.237605831059333555
0.599000000000000421,-0.238653072768593433
0.600000000000000422,-0.239672611804827435
0.601000000000000423,-0.240664443756759994
0.602000000000000424,-0.241628572002994091
0.603000000000000425,-0.242565007590749726
0.604000000000000425,-0.243473769112908800
0.605000000000000426,-0.244354882583547178
0.606000000000000427,-0.245208381312103263
0.607000000000000428,-0.246034305776223400
0.608000000000000429,-0.246832703493630234
0.609000000000000430,-0.247603628892873490
0.610000000000000431,-0.248347143183354102
0.611000000000000432,-0.249063314224553162
0.612000000000000433,-0.249752216394661219
0.613000000000000433,-0.250413930458747103
0.614000000000000434,-0.251048543436514726
0.615000000000000435,-0.251656148469778684
0.616000000000000436,-0.252236844689761319
