# Montmorillonite-001-NaCEC108_HSPSCA-JS
# h[nm],U(h)[kJ/mol]
0.149999999999999994,105.629596731807737342
0.150999999999999995,104.543442422236992684
0.151999999999999996,103.983073826280858043
0.152999999999999997,103.502707615869780966
0.153999999999999998,102.947228646417755726
0.154999999999999999,102.295655956693508415
0.156000000000000000,101.577275734622830328
0.157000000000000001,100.830403097833595893
0.158000000000000002,100.085072962601117297
0.159000000000000002,99.358313155503367398
0.160000000000000003,98.655345030580633647
0.161000000000000004,97.972991487862557847
0.162000000000000005,97.303360856776578203
0.163000000000000006,96.636927917403482979
0.164000000000000007,95.964722955251261283
0.165000000000000008,95.279645062898367769
0.166000000000000009,94.577052576830027419
0.167000000000000010,93.854824976453755880
0.168000000000000010,93.113082256499382083
0.169000000000000011,92.353716996066822276
0.170000000000000012,91.579856711805334157
0.171000000000000013,90.795337919905591662
0.172000000000000014,90.004242520978579023
0.173000000000000015,89.210522952674267572
0.174000000000000016,88.417724900187096182
0.175000000000000017,87.628804396588776626
0.176000000000000018,86.846028805390346861
0.177000000000000018,86.070947362150135973
0.178000000000000019,85.304415673442818502
0.179000000000000020,84.546659004006059490
0.180000000000000021,83.797360672353192967
0.181000000000000022,83.055763928400821783
0.182000000000000023,82.320777949607162327
0.183000000000000024,81.591080824473024791
0.184000000000000025,80.865214442872584755
0.185000000000000026,80.141667997392715961
0.186000000000000026,79.418948282798950800
0.187000000000000027,78.695636159202976501
0.188000000000000028,77.970429437141191897
0.189000000000000029,77.242173080729187973
0.190000000000000030,76.509878045516501288
0.191000000000000031,75.772730309350023958
0.192000000000000032,75.030091754757464173
0.193000000000000033,74.281494554123895568
0.194000000000000034,73.526630624078421761
0.195000000000000034,72.765337578249244643
0.196000000000000035,71.997582438534308835
0.197000000000000036,71.223444180636946044
0.198000000000000037,70.443096002346123896
0.199000000000000038,69.656788022080064593
0.200000000000000039,68.864830946931505196
0.201000000000000040,68.067581097916729505
0.202000000000000041,67.265427047575585107
0.203000000000000042,66.458778012315463002
0.204000000000000042,65.648054048701595775
0.205000000000000043,64.833678028280999683
0.206000000000000044,64.016069307995920212
0.207000000000000045,63.195638970998160744
0.208000000000000046,62.372786483772436839
0.209000000000000047,61.547897597939140724
0.210000000000000048,60.721343317013783292
0.211000000000000049,59.893479747945470137
0.212000000000000050,59.064648662789544176
0.213000000000000050,58.235178605915550065
0.214000000000000051,57.405386395421068357
0.215000000000000052,56.575578882813054804
0.216000000000000053,55.746054851608434433
0.217000000000000054,54.917106952535810649
0.218000000000000055,54.089023589891667143
0.219000000000000056,53.262090689846033342
0.220000000000000057,52.436593296759120619
0.221000000000000058,51.612816957620836433
0.222000000000000058,50.791048867394465560
0.223000000000000059,49.971578759259720925
0.224000000000000060,49.154699533472481221
0.225000000000000061,48.340707626816382003
0.226000000000000062,47.529903131465296440
0.227000000000000063,46.722589677591152224
0.228000000000000064,45.919074098337567591
0.229000000000000065,45.119665898946834659
0.230000000000000066,44.324676553998926920
0.231000000000000066,43.534418658011411196
0.232000000000000067,42.749204955183230936
0.233000000000000068,41.969347273951541410
0.234000000000000069,41.195155391385455346
0.235000000000000070,40.426935851356482488
0.236000000000000071,39.664990759003146081
0.237000000000000072,38.909616572323351136
0.238000000000000073,38.161102909861810417
0.239000000000000073,37.419731391475814064
0.240000000000000074,36.685774527113309773
0.241000000000000075,35.959494666478214242
0.242000000000000076,35.241143020422065035
0.243000000000000077,34.530958762927035366
0.244000000000000078,33.829168220656590904
0.245000000000000079,33.135984155267877327
0.246000000000000080,32.451605142022003747
0.247000000000000081,31.776215046699849864
0.248000000000000081,31.109982601445580030
0.249000000000000082,30.453061078915226290
0.250000000000000111,29.805588063006599242
0.251000000000000112,29.167685313486732213
0.252000000000000113,28.539458721008919895
0.253000000000000114,27.920998348320210880
0.254000000000000115,27.312378552890852035
0.255000000000000115,26.713658185746197660
0.256000000000000116,26.124880860937231830
0.257000000000000117,25.546075289841319034
0.258000000000000118,24.977255674330272939
0.259000000000000119,24.418422152769434064
0.260000000000000120,23.869561292809837738
0.261000000000000121,23.330646624998625072
0.262000000000000122,22.801639211349915115
0.263000000000000123,22.282488243184094046
0.264000000000000123,21.773131662748191673
0.265000000000000124,21.273496803368235675
0.266000000000000125,20.783501043149449572
0.267000000000000126,20.303052467525411373
0.268000000000000127,19.832050536257654016
0.269000000000000128,19.370386750799056585
0.270000000000000129,18.917945318251138787
0.271000000000000130,18.474603808464710397
0.272000000000000131,18.040233801152087523
0.273000000000000131,17.614701520192895146
0.274000000000000132,17.197868452623097824
0.275000000000000133,16.789591950095857698
0.276000000000000134,16.389725810890404034
0.277000000000000135,15.998120840822213751
0.278000000000000136,15.614625391669722632
0.279000000000000137,15.239085875982311791
0.280000000000000138,14.871347257368523032
0.281000000000000139,14.511253515582216878
0.282000000000000139,14.158648085928467353
0.283000000000000140,13.813374272699240564
0.284000000000000141,13.475275636522061617
0.285000000000000142,13.144196355662959519
0.286000000000000143,12.819981561468148712
0.287000000000000144,12.502477648258263798
0.288000000000000145,12.191532558103677530
0.289000000000000146,11.886996041012185543
0.290000000000000147,11.588719891148816288
0.291000000000000147,11.296558159785787367
0.292000000000000148,11.010367345745864398
0.293000000000000149,10.730006564158543370
0.294000000000000150,10.455337694393429970
0.295000000000000151,10.186225508071720114
0.296000000000000152,9.922537778084123516
0.297000000000000153,9.664145369563687638
0.298000000000000154,9.410922313774065628
0.299000000000000155,9.162745865880172147
0.300000000000000155,8.919496547567769440
0.301000000000000156,8.681058175473554073
0.302000000000000157,8.447317876376535750
0.303000000000000158,8.218166090087638764
0.304000000000000159,7.993496560955714259
0.305000000000000160,7.773206318886911603
0.306000000000000161,7.557195650749915394
0.307000000000000162,7.345368063012744031
0.308000000000000163,7.137630236428103458
0.309000000000000163,6.933891973553864219
0.310000000000000164,6.734066139863441158
0.311000000000000165,6.538068599168134654
0.312000000000000166,6.345818144040054065
0.313000000000000167,6.157236421890240230
0.314000000000000168,5.972247857322575904
0.315000000000000169,5.790779571349739641
0.316000000000000170,5.612761298023484002
0.317000000000000171,5.438125298997928070
0.318000000000000171,5.266806276511267981
0.319000000000000172,5.098741285238643783
0.320000000000000173,4.933869643437201802
0.321000000000000174,4.772132843773278843
0.322000000000000175,4.613474464191376967
0.323000000000000176,4.457840079155650059
0.324000000000000177,4.305177171566212380
0.325000000000000178,4.155435045625854862
0.326000000000000179,4.008564740906359170
0.327000000000000179,3.864518947839181262
0.328000000000000180,3.723251924831331827
0.329000000000000181,3.584719417184829560
0.330000000000000182,3.448878577976798088
0.331000000000000183,3.315687891036870560
0.332000000000000184,3.185107096139728977
0.333000000000000185,3.057097116512461632
0.334000000000000186,2.931619988739654570
0.335000000000000187,2.808638795133362898
0.336000000000000187,2.688117598620278326
0.337000000000000188,2.570021380185036453
0.338000000000000189,2.454315978895487138
0.339000000000000190,2.340968034524298247
0.340000000000000191,2.229944932770448141
0.341000000000000192,2.121214753074152082
0.342000000000000193,2.014746219009700745
0.343000000000000194,1.910508651232460497
0.344000000000000195,1.808471922949015376
0.345000000000000195,1.708606417872206906
0.346000000000000196,1.610882990617413579
0.347000000000000197,1.515272929490553810
0.348000000000000198,1.421747921613832233
0.349000000000000199,1.330280020331068291
0.350000000000000200,1.240841614830743511
0.351000000000000201,1.153405401922032114
0.352000000000000202,1.067944359896384698
0.353000000000000203,0.984431724405174791
0.354000000000000203,0.902840966282147273
0.355000000000000204,0.823145771238357526
0.356000000000000205,0.745320021356089546
0.357000000000000206,0.669337778307720677
0.358000000000000207,0.595173268225487773
0.359000000000000208,0.522800868147750508
0.360000000000000209,0.452195093967835138
0.361000000000000210,0.383330589812087674
0.362000000000000210,0.316182118774323617
0.363000000000000211,0.250724554934979582
0.364000000000000212,0.186932876594203601
0.365000000000000213,0.124782160649484733
0.366000000000000214,0.064247578049777279
0.367000000000000215,0.005304390259596036
0.368000000000000216,-0.052072053331891500
0.369000000000000217,-0.107906317119868839
0.370000000000000218,-0.162222880172521955
0.371000000000000218,-0.215046136358752804
0.372000000000000219,-0.266400393772739608
0.373000000000000220,-0.316309873511018524
0.374000000000000221,-0.364798707855829685
0.375000000000000222,-0.411890937916367494
0.376000000000000223,-0.457610510777873625
0.377000000000000224,-0.501981276206097782
0.378000000000000225,-0.545026982952879768
0.379000000000000226,-0.586771274706537449
0.380000000000000226,-0.627237685728800898
0.381000000000000227,-0.666449636217903874
0.382000000000000228,-0.704430427435713047
0.383000000000000229,-0.741203236634697560
0.384000000000000230,-0.776791111818677882
0.385000000000000231,-0.811216966369555648
0.386000000000000232,-0.844503573570228760
0.387000000000000233,-0.876673561052346506
0.388000000000000234,-0.907749405195595549
0.389000000000000234,-0.937753425503771387
0.390000000000000235,-0.966707778981084509
0.391000000000000236,-0.994634454530650247
0.392000000000000237,-1.021555267395565014
0.393000000000000238,-1.047491853661514760
0.394000000000000239,-1.072465664838376131
0.395000000000000240,-1.096497962536977067
0.396000000000000241,-1.119609813255814990
0.397000000000000242,-1.141822083291219814
0.398000000000000242,-1.163155433783368276
0.399000000000000243,-1.183630315909190767
0.400000000000000244,-1.203266966232287682
0.401000000000000245,-1.222085402218820560
0.402000000000000246,-1.240105417927214848
0.403000000000000247,-1.257346579878844128
0.404000000000000248,-1.273828223115594183
0.405000000000000249,-1.289569447449606221
0.406000000000000250,-1.304589113909489839
0.407000000000000250,-1.318905841386643241
0.408000000000000251,-1.332538003484506017
0.409000000000000252,-1.345503725572878562
0.410000000000000253,-1.357820882048835553
0.411000000000000254,-1.369507093805077735
0.412000000000000255,-1.380579725906035504
0.413000000000000256,-1.391055885471525588
0.414000000000000257,-1.400952419767137469
0.415000000000000258,-1.410285914500259974
0.416000000000000258,-1.419072692319980122
0.417000000000000259,-1.427328811518932428
0.418000000000000260,-1.435070064934586442
0.419000000000000261,-1.442311979047296244
0.420000000000000262,-1.449069813271980589
0.421000000000000263,-1.455358559440152799
0.422000000000000264,-1.461192941468608231
0.423000000000000265,-1.466587415210975021
0.424000000000000266,-1.471556168488109773
0.425000000000000266,-1.476113121292969677
0.426000000000000267,-1.480271926165704910
0.427000000000000268,-1.484045968734301280
0.428000000000000269,-1.487448368416120603
0.429000000000000270,-1.490491979275621270
0.430000000000000271,-1.493189391033216573
0.431000000000000272,-1.495552930220511723
0.432000000000000273,-1.497594661476731037
0.433000000000000274,-1.499326388981395475
0.434000000000000274,-1.500759658018083531
0.435000000000000275,-1.501905756664204006
0.436000000000000276,-1.502775717601671612
0.437000000000000277,-1.503380320043322449
0.438000000000000278,-1.503730091770044686
0.439000000000000279,-1.503835311273497011
0.440000000000000280,-1.503706009999409066
0.441000000000000281,-1.503351974686428116
0.442000000000000282,-1.502782749795664952
0.443000000000000282,-1.502007640025887047
0.444000000000000283,-1.501035712909727815
0.445000000000000284,-1.499875801485993865
0.446000000000000285,-1.498536507043457089
0.447000000000000286,-1.497026201931585643
0.448000000000000287,-1.495353032433560880
0.449000000000000288,-1.493524921697309216
0.450000000000000289,-1.491549572720068717
0.451000000000000290,-1.489434471382342862
0.452000000000000290,-1.487186889527087441
0.453000000000000291,-1.484813888080012134
0.454000000000000292,-1.482322320207150046
0.455000000000000293,-1.479718834505786562
0.456000000000000294,-1.477009878225024497
0.457000000000000295,-1.474201700512410396
0.458000000000000296,-1.471300355682984007
0.459000000000000297,-1.468311706507462011
0.460000000000000298,-1.465241427516135841
0.461000000000000298,-1.462095008315381861
0.462000000000000299,-1.458877756913594448
0.463000000000000300,-1.455594803053605890
0.464000000000000301,-1.452251101548716949
0.465000000000000302,-1.448851435619538996
0.466000000000000303,-1.445400420228953431
0.467000000000000304,-1.441902505412699709
0.468000000000000305,-1.438361979603029583
0.469000000000000306,-1.434782972943107193
0.470000000000000306,-1.431169460589949205
0.471000000000000307,-1.427525266003599524
0.472000000000000308,-1.423854064220599014
0.473000000000000309,-1.420159385109720951
0.474000000000000310,-1.416444616608094176
0.475000000000000311,-1.412713007935913812
0.476000000000000312,-1.408967672788090209
0.477000000000000313,-1.405211592501173667
0.478000000000000314,-1.401447619194037042
0.479000000000000314,-1.397678478880926889
0.480000000000000315,-1.393906774555444317
0.481000000000000316,-1.390134989244272035
0.482000000000000317,-1.386365489029352194
0.483000000000000318,-1.382600526037477184
0.484000000000000319,-1.378842241396193158
0.485000000000000320,-1.375092668155053710
0.486000000000000321,-1.371353734171331995
0.487000000000000322,-1.367627264959346167
0.488000000000000322,-1.363914986502576365
0.489000000000000323,-1.360218528027984153
0.490000000000000324,-1.356539424741763478
0.491000000000000325,-1.352879120526003121
0.492000000000000326,-1.349238970595716847
0.493000000000000327,-1.345620244115779629
0.494000000000000328,-1.342024126777336512
0.495000000000000329,-1.338451723333327514
0.496000000000000330,-1.334904060092793943
0.497000000000000330,-1.331382087373772505
0.498000000000000331,-1.327886681914398848
0.499000000000000332,-1.324418649242240065
0.500000000000000333,-1.320978726001599046
0.501000000000000334,-1.317567582238679647
0.502000000000000335,-1.314185823644676621
0.503000000000000336,-1.310833993756650662
0.504000000000000337,-1.307512576116304226
0.505000000000000338,-1.304221996386639271
0.506000000000000338,-1.300962624426647896
0.507000000000000339,-1.297734776324118267
0.508000000000000340,-1.294538716386679944
0.509000000000000341,-1.291374659091383048
0.510000000000000342,-1.288242770992841457
0.511000000000000343,-1.285143172590340610
0.512000000000000344,-1.282075940154035809
0.513000000000000345,-1.279041107510586084
0.514000000000000346,-1.276038667788544689
0.515000000000000346,-1.273068575123733170
0.516000000000000347,-1.270130746325024207
0.517000000000000348,-1.267225062500882959
0.518000000000000349,-1.264351370646972672
0.519000000000000350,-1.261509485195312585
0.520000000000000351,-1.258699189525289253
0.521000000000000352,-1.255920237437057718
0.522000000000000353,-1.253172354587640758
0.523000000000000353,-1.250455239890256642
0.524000000000000354,-1.247768566877312635
0.525000000000000355,-1.245111985027495649
0.526000000000000356,-1.242485121057451902
0.527000000000000357,-1.239887580178574256
0.528000000000000358,-1.237318947319296925
0.529000000000000359,-1.234778788313526610
0.530000000000000360,-1.232266651055543560
0.531000000000000361,-1.229782066622039816
0.532000000000000361,-1.227324550361704514
0.533000000000000362,-1.224893602952919824
0.534000000000000363,-1.222488711430040009
0.535000000000000364,-1.220109350178854246
0.536000000000000365,-1.217754981901657985
0.537000000000000366,-1.215425058552553006
0.538000000000000367,-1.213119022243404066
0.539000000000000368,-1.210836306121103600
0.540000000000000369,-1.208576335216527964
0.541000000000000369,-1.206338527265853999
0.542000000000000370,-1.204122293504625629
0.543000000000000371,-1.201927039435212397
0.544000000000000372,-1.199752165568109152
0.545000000000000373,-1.197597068137634890
0.546000000000000374,-1.195461139792518335
0.547000000000000375,-1.193343770261915626
0.548000000000000376,-1.191244346997365922
0.549000000000000377,-1.189162255791177403
0.550000000000000377,-1.187096881371777934
0.551000000000000378,-1.185047607976493556
0.552000000000000379,-1.183013819902312358
0.553000000000000380,-1.180994902035062744
0.554000000000000381,-1.178990240357525199
0.555000000000000382,-1.176999222436999393
0.556000000000000383,-1.175021237892708514
0.557000000000000384,-1.173055678843646366
0.558000000000000385,-1.171101940337199387
0.559000000000000385,-1.169159420759122714
0.560000000000000386,-1.167227522225267045
0.561000000000000387,-1.165305650955519967
0.562000000000000388,-1.163393217630396492
0.563000000000000389,-1.161489637730779290
0.564000000000000390,-1.159594331861155458
0.565000000000000391,-1.157706726056848101
0.566000000000000392,-1.155826252075625948
0.567000000000000393,-1.153952347674147338
0.568000000000000393,-1.152084456869594487
0.569000000000000394,-1.150222030186949684
0.570000000000000395,-1.148364524892296901
0.571000000000000396,-1.146511405212514045
0.572000000000000397,-1.144662142541806205
0.573000000000000398,-1.142816215635364285
0.574000000000000399,-1.140973110790620026
0.575000000000000400,-1.139132322016384258
0.576000000000000401,-1.137293351190257873
0.577000000000000401,-1.135455708204708092
0.578000000000000402,-1.133618911102074467
0.579000000000000403,-1.131782486198887216
0.580000000000000404,-1.129945968199886241
0.581000000000000405,-1.128108900301929562
0.582000000000000406,-1.126270834288276790
0.583000000000000407,-1.124431330613413937
0.584000000000000408,-1.122589958478839689
0.585000000000000409,-1.120746295900042044
0.586000000000000409,-1.118899929764994194
0.587000000000000410,-1.117050455884467608
0.588000000000000411,-1.115197479034388817
0.589000000000000412,-1.113340612990623146
0.590000000000000413,-1.111479480556319732
0.591000000000000414,-1.109613713582201955
0.592000000000000415,-1.107742952980010909
0.593000000000000416,-1.105866848729336605
0.594000000000000417,-1.103985059878110686
0.595000000000000417,-1.102097254537047766
0.596000000000000418,-1.100203109868136853
0.597000000000000419,-1.098302312067588993
0.598000000000000420,-1.096394556343301963
0.599000000000000421,-1.094479546887194399
0.600000000000000422,-1.092556996842531714
0.601000000000000423,-1.090626628266490483
0.602000000000000424,-1.088688172088183803
0.603000000000000425,-1.086741368062303703
0.604000000000000425,-1.084785964718598450
0.605000000000000426,-1.082821719307367481
0.606000000000000427,-1.080848397741199118
0.607000000000000428,-1.078865774532993260
0.608000000000000429,-1.076873632730689367
0.609000000000000430,-1.074871763848561868
0.610000000000000431,-1.072859967795534164
0.611000000000000432,-1.070838052800481943
0.612000000000000433,-1.068805835334738719
0.613000000000000433,-1.066763140032004342
0.614000000000000434,-1.064709799605733309
