# Montmorillonite-001-NaCEC108_ETHENE-AC
# h[nm],U(h)[kJ/mol]
0.149999999999999994,61.970909211132152450
0.150999999999999995,61.440262347912039331
0.151999999999999996,60.628339964382618632
0.152999999999999997,59.772460292659921777
0.153999999999999998,58.951537853176589010
0.154999999999999999,58.174279796851543267
0.156000000000000000,57.425056442711102989
0.157000000000000001,56.685479005836157285
0.158000000000000002,55.942728642524926386
0.159000000000000002,55.191204669445404818
0.160000000000000003,54.431244941166447404
0.161000000000000004,53.666941866828814511
0.162000000000000005,52.904046803385980979
0.163000000000000006,52.148366612098037365
0.164000000000000007,51.404740175639723532
0.165000000000000008,50.676530269501668613
0.166000000000000009,49.965507729353120681
0.167000000000000010,49.271996997674506247
0.168000000000000010,48.595168654363604333
0.169000000000000011,47.933390227216669643
0.170000000000000012,47.284573146234293972
0.171000000000000013,46.646477087530215044
0.172000000000000014,46.016951574846224560
0.173000000000000015,45.394108379991138236
0.174000000000000016,44.776427497687926405
0.175000000000000017,44.162805064044214021
0.176000000000000018,43.552554395354960093
0.177000000000000018,42.945372132394851405
0.178000000000000019,42.341280950119070781
0.179000000000000020,41.740558961962037188
0.180000000000000021,41.143664209009301658
0.181000000000000022,40.551160760311503850
0.182000000000000023,39.963651150868876982
0.183000000000000024,39.381718264411880170
0.184000000000000025,38.805878390298985892
0.185000000000000026,38.236546069776544243
0.186000000000000026,37.674010492147331775
0.187000000000000027,37.118422585099622779
0.188000000000000028,36.569791535310301356
0.189000000000000029,36.027989241239012586
0.190000000000000030,35.492761105226250606
0.191000000000000031,34.963741584064997880
0.192000000000000032,34.440473007005017791
0.193000000000000033,33.922426312623272793
0.194000000000000034,33.409022530383523986
0.195000000000000034,32.899654022379905882
0.196000000000000035,32.393704692886046814
0.197000000000000036,31.890568558441039215
0.198000000000000037,31.389666242690623221
0.199000000000000038,30.890459113829745519
0.200000000000000039,30.392460915933781962
0.201000000000000040,29.895246857870034773
0.202000000000000041,29.398460215118536354
0.203000000000000042,28.901816571764715746
0.204000000000000042,28.405105883761201824
0.205000000000000043,27.908192582224195633
0.206000000000000044,27.411013959123931016
0.207000000000000045,26.913577089380233076
0.208000000000000046,26.415954545155376110
0.209000000000000047,25.918279151998028453
0.210000000000000048,25.420738024219421192
0.211000000000000049,24.923566100072399365
0.212000000000000050,24.427039377348656046
0.213000000000000050,23.931468028105111756
0.214000000000000051,23.437189548372362680
0.215000000000000052,22.944562075705693616
0.216000000000000053,22.453957984960158711
0.217000000000000054,21.965757851206280549
0.218000000000000055,21.480344848621435005
0.219000000000000056,20.998099635750321568
0.220000000000000057,20.519395760884229674
0.221000000000000058,20.044595606548330835
0.222000000000000058,19.574046879219586970
0.223000000000000059,19.108079639395718630
0.224000000000000060,18.647003857919415282
0.225000000000000061,18.191107476930849174
0.226000000000000062,17.740654947850025280
0.227000000000000063,17.295886214242425893
0.228000000000000064,16.857016104152968694
0.229000000000000065,16.424234094357050395
0.230000000000000066,15.997704407831724538
0.231000000000000066,15.577566405452719422
0.232000000000000067,15.163935233344634668
0.233000000000000068,14.756902688326480444
0.234000000000000069,14.356538265391062481
0.235000000000000070,13.962890353029607127
0.236000000000000071,13.575987544371670879
0.237000000000000072,13.195840034470416313
0.238000000000000073,12.822441076554980555
0.239000000000000073,12.455768472632330557
0.240000000000000074,12.095786076396079167
0.241000000000000075,11.742445288948378135
0.242000000000000076,11.395686530323612118
0.243000000000000077,11.055440672191959806
0.244000000000000078,10.721630419393040512
0.245000000000000079,10.394171630088312241
0.246000000000000080,10.072974566313355638
0.247000000000000081,9.757945068548915302
0.248000000000000081,9.448985649609813464
0.249000000000000082,9.145996504671639826
0.250000000000000111,8.848876435617963665
0.251000000000000112,8.557523689100202446
0.252000000000000113,8.271836708762341672
0.253000000000000114,7.991714803002304635
0.254000000000000115,7.717058730425830682
0.255000000000000115,7.447771205808758843
0.256000000000000116,7.183757329926036661
0.257000000000000117,6.924924947041515289
0.258000000000000118,6.671184934190367066
0.259000000000000119,6.422451426634635752
0.260000000000000120,6.178641984041575164
0.261000000000000121,5.939677702032780005
0.262000000000000122,5.705483273787441689
0.263000000000000123,5.475987006364276155
0.264000000000000123,5.251120796340110530
0.265000000000000124,5.030820069256896510
0.266000000000000125,4.815023687228650928
0.267000000000000126,4.603673828892000053
0.268000000000000127,4.396715845693483615
0.269000000000000128,4.194098098299496868
0.270000000000000129,3.995771776693931798
0.271000000000000130,3.801690707298936989
0.272000000000000131,3.611811150219422561
0.273000000000000131,3.426091589474289378
0.274000000000000132,3.244492518840513817
0.275000000000000133,3.066976225701661285
0.276000000000000134,2.893506575062606778
0.277000000000000135,2.724048795669104184
0.278000000000000136,2.558569269954591441
0.279000000000000137,2.397035329329949338
0.280000000000000138,2.239415056134609561
0.281000000000000139,2.085677093380179148
0.282000000000000139,1.935790463241800152
0.283000000000000140,1.789724395087210596
0.284000000000000141,1.647448163679699373
0.285000000000000142,1.508930938048564263
0.286000000000000143,1.374141641389324819
0.287000000000000144,1.243048822235717665
0.288000000000000145,1.115620537035687310
0.289000000000000146,0.991824244164897117
0.290000000000000147,0.871626709321777993
0.291000000000000147,0.754993922169168274
0.292000000000000148,0.641891024017033240
0.293000000000000149,0.532282246279647819
0.294000000000000150,0.426130859387086225
0.295000000000000151,0.323399131785535032
0.296000000000000152,0.224048298622561870
0.297000000000000153,0.128038539681962854
0.298000000000000154,0.035328966107343970
0.299000000000000155,-0.054122384565951531
0.300000000000000155,-0.140358545565445525
0.301000000000000156,-0.223423610727033900
0.302000000000000157,-0.303362717541253157
0.303000000000000158,-0.380222023911293894
0.304000000000000159,-0.454048679131841215
0.305000000000000160,-0.524890789592385554
0.306000000000000161,-0.592797379700806149
0.307000000000000162,-0.657818348512545725
0.308000000000000163,-0.720004422538197408
0.309000000000000163,-0.779407105188083649
0.310000000000000164,-0.836078623296650059
0.311000000000000165,-0.890071871152345984
0.312000000000000166,-0.941440352440807260
0.313000000000000167,-0.990238120490149809
0.314000000000000168,-1.036519717187854628
0.315000000000000169,-1.080340110918827534
0.316000000000000170,-1.121754633854232797
0.317000000000000171,-1.160818918900352825
0.318000000000000171,-1.197588836596695128
0.319000000000000172,-1.232120432232537199
0.320000000000000173,-1.264469863431331609
0.321000000000000174,-1.294693338432936658
0.322000000000000175,-1.322847055284788187
0.323000000000000176,-1.348987142134485451
0.324000000000000177,-1.373169598798448465
0.325000000000000178,-1.395450239763811995
0.326000000000000179,-1.415884638764219439
0.327000000000000179,-1.434528075053938867
0.328000000000000180,-1.451435481489447454
0.329000000000000181,-1.466661394513128602
0.330000000000000182,-1.480259906119515190
0.331000000000000183,-1.492284617871689978
0.332000000000000184,-1.502788597022674200
0.333000000000000185,-1.511824334785137669
0.334000000000000186,-1.519443706781628434
0.335000000000000187,-1.525697935697288621
0.336000000000000187,-1.530637556147433020
0.337000000000000188,-1.534312381763337729
0.338000000000000189,-1.536771474491531730
0.339000000000000190,-1.538063116094143812
0.340000000000000191,-1.538234781830857711
0.341000000000000192,-1.537333116296796698
0.342000000000000193,-1.535403911384708220
0.343000000000000194,-1.532492086334735770
0.344000000000000195,-1.528641669830139938
0.345000000000000195,-1.523895784093454608
0.346000000000000196,-1.518296630933499092
0.347000000000000197,-1.511885479690674217
0.348000000000000198,-1.504702657025035917
0.349000000000000199,-1.496787538489213532
0.350000000000000200,-1.488178541826299384
0.351000000000000201,-1.478913121931055841
0.352000000000000202,-1.469027767411547281
0.353000000000000203,-1.458557998687269652
0.354000000000000203,-1.447538367559122241
0.355000000000000204,-1.436002458186105502
0.356000000000000205,-1.423982889403476282
0.357000000000000206,-1.411511318317157926
0.358000000000000207,-1.398618445109332864
0.359000000000000208,-1.385334018990745264
0.360000000000000209,-1.371686845235804864
0.361000000000000210,-1.357704793237342722
0.362000000000000210,-1.343414805518885702
0.363000000000000211,-1.328842907643293048
0.364000000000000212,-1.314014218957898494
0.365000000000000213,-1.298952964117460640
0.366000000000000214,-1.283682485327720668
0.367000000000000215,-1.268225255253736083
0.368000000000000216,-1.252602890538763392
0.369000000000000217,-1.236836165880968563
0.370000000000000218,-1.220945028616969408
0.371000000000000218,-1.204948613762751197
0.372000000000000219,-1.188865259464356283
0.373000000000000220,-1.172712522812335179
0.374000000000000221,-1.156507195975780222
0.375000000000000222,-1.140265322613381427
0.376000000000000223,-1.124002214520890330
0.377000000000000224,-1.107732468475898902
0.378000000000000225,-1.091469983242711494
0.379000000000000226,-1.075227976701772947
0.380000000000000226,-1.059019003069817444
0.381000000000000227,-1.042854970178533236
0.382000000000000228,-1.026747156781281811
0.383000000000000229,-1.010706229858974847
0.384000000000000230,-0.994742261897754831
0.385000000000000231,-0.978864748112854621
0.386000000000000232,-0.963082623594306853
0.387000000000000233,-0.947404280351868189
0.388000000000000234,-0.931837584237796945
0.389000000000000234,-0.916389891727681594
0.390000000000000235,-0.901068066540747337
0.391000000000000236,-0.885878496082493805
0.392000000000000237,-0.870827107693715852
0.393000000000000238,-0.855919384691263829
0.394000000000000239,-0.841160382187024380
0.395000000000000240,-0.826554742672812592
0.396000000000000241,-0.812106711359927402
0.397000000000000242,-0.797820151263186839
0.398000000000000242,-0.783698558020315295
0.399000000000000243,-0.769745074438473398
0.400000000000000244,-0.755962504760671394
0.401000000000000245,-0.742353328645757649
0.402000000000000246,-0.728919714856399170
0.403000000000000247,-0.715663534650391453
0.404000000000000248,-0.702586374871352115
0.405000000000000249,-0.689689550735599122
0.406000000000000250,-0.676974118312658191
0.407000000000000250,-0.664440886697599931
0.408000000000000251,-0.652090429873902089
0.409000000000000252,-0.639923098266218404
0.410000000000000253,-0.627939029982915620
0.411000000000000254,-0.616138161748805979
0.412000000000000255,-0.604520239528927639
0.413000000000000256,-0.593084828844769651
0.414000000000000257,-0.581831324784629622
0.415000000000000258,-0.570758961710342128
0.416000000000000258,-0.559866822662830388
0.417000000000000259,-0.549153848469395411
0.418000000000000260,-0.538618846555888431
0.419000000000000261,-0.528260499467240185
0.420000000000000262,-0.518077373100083505
0.421000000000000263,-0.508067924651436797
0.422000000000000264,-0.498230510287635764
0.423000000000000265,-0.488563392537893104
0.424000000000000266,-0.479064747417118242
0.425000000000000266,-0.469732671282637237
0.426000000000000267,-0.460565187429774592
0.427000000000000268,-0.451560252431241316
0.428000000000000269,-0.442715762225463272
0.429000000000000270,-0.434029557959071444
0.430000000000000271,-0.425499431588791388
0.431000000000000272,-0.417123131248134826
0.432000000000000273,-0.408898366384260359
0.433000000000000274,-0.400822812670463158
0.434000000000000274,-0.392894116699755602
0.435000000000000275,-0.385109900465040123
0.436000000000000276,-0.377467765631357699
0.437000000000000277,-0.369965297605717169
0.438000000000000278,-0.362600069409976300
0.439000000000000279,-0.355369645362262954
0.440000000000000280,-0.348271584572339088
0.441000000000000281,-0.341303444256326471
0.442000000000000282,-0.334462782876185527
0.443000000000000282,-0.327747163109178452
0.444000000000000283,-0.321154154652678603
0.445000000000000284,-0.314681336869453598
0.446000000000000285,-0.308326301278560366
0.447000000000000286,-0.302086653897001178
0.448000000000000287,-0.295960017437017275
0.449000000000000288,-0.289944033364063214
0.450000000000000289,-0.284036363820210414
0.451000000000000290,-0.278234693417795387
0.452000000000000290,-0.272536730907986136
0.453000000000000291,-0.266940210728828120
0.454000000000000292,-0.261442894437307616
0.455000000000000293,-0.256042572029821780
0.456000000000000294,-0.250737063155386297
0.457000000000000295,-0.245524218225811192
0.458000000000000296,-0.240401919426960431
0.459000000000000297,-0.235368081635163484
0.460000000000000298,-0.230420653242690177
0.461000000000000298,-0.225557616896171653
0.462000000000000299,-0.220776990151698438
0.463000000000000300,-0.216076826050239784
0.464000000000000301,-0.211455213616990712
0.465000000000000302,-0.206910278288076788
0.466000000000000303,-0.202440182267988156
0.467000000000000304,-0.198043124821043554
0.468000000000000305,-0.193717342500053846
0.469000000000000306,-0.189461109315267828
0.470000000000000306,-0.185272736846634783
0.471000000000000307,-0.181150574302239548
0.472000000000000308,-0.177093008525781026
0.473000000000000309,-0.173098463955795812
0.474000000000000310,-0.169165402539276755
0.475000000000000311,-0.165292323602239138
0.476000000000000312,-0.161477763679733155
0.477000000000000313,-0.157720296307649860
0.478000000000000314,-0.154018531778657708
0.479000000000000314,-0.150371116864500831
0.480000000000000315,-0.146776734506775336
0.481000000000000316,-0.143234103478303149
0.482000000000000317,-0.139741978017044965
0.483000000000000318,-0.136299147434517931
0.484000000000000319,-0.132904435700539725
0.485000000000000320,-0.129556701006093261
0.486000000000000321,-0.126254835306010005
0.487000000000000322,-0.122997763843117225
0.488000000000000322,-0.119784444655410161
0.489000000000000323,-0.116613868067795584
0.490000000000000324,-0.113485056169809861
0.491000000000000325,-0.110397062280727987
0.492000000000000326,-0.107348970403371810
0.493000000000000327,-0.104339894667903790
0.494000000000000328,-0.101368978766805132
0.495000000000000329,-0.098435395382200197
0.496000000000000330,-0.095538345606625288
0.497000000000000330,-0.092677058358322142
0.498000000000000331,-0.089850789792000091
0.499000000000000332,-0.087058822706095926
0.500000000000000333,-0.084300465947381678
0.501000000000000334,-0.081575053813795401
0.502000000000000335,-0.078881945456328734
0.503000000000000336,-0.076220524280726384
0.504000000000000337,-0.073590197349739789
0.505000000000000338,-0.070990394786621058
0.506000000000000338,-0.068420569180523000
0.507000000000000339,-0.065880194994409919
0.508000000000000340,-0.063368767976051343
0.509000000000000341,-0.060885804572692701
0.510000000000000342,-0.058430841349839460
0.511000000000000343,-0.056003434414709542
0.512000000000000344,-0.053603158844742219
0.513000000000000345,-0.051229608121626816
0.514000000000000346,-0.048882393571227215
0.515000000000000346,-0.046561143809746242
0.516000000000000347,-0.044265504196486394
0.517000000000000348,-0.041995136293531632
0.518000000000000349,-0.039749717332586046
0.519000000000000350,-0.037528939689286868
0.520000000000000351,-0.035332510365189827
0.521000000000000352,-0.033160150477681741
0.522000000000000353,-0.031011594757978302
0.523000000000000353,-0.028886591057413025
0.524000000000000354,-0.026784899862171453
0.525000000000000355,-0.024706293816603764
0.526000000000000356,-0.022650557255231650
0.527000000000000357,-0.020617485743590735
0.528000000000000358,-0.018606885627944259
0.529000000000000359,-0.016618573594010210
0.530000000000000360,-0.014652376234694531
0.531000000000000361,-0.012708129626938635
0.532000000000000361,-0.010785678917672303
0.533000000000000362,-0.008884877918932433
0.534000000000000363,-0.007005588712117450
0.535000000000000364,-0.005147681261421644
0.536000000000000365,-0.003311033036401678
0.537000000000000366,-0.001495528643688293
0.538000000000000367,0.000298940532225367
0.539000000000000368,0.002072476679098534
0.540000000000000369,0.003825175898081556
0.541000000000000369,0.005557128535852019
0.542000000000000370,0.007268419507880752
0.543000000000000371,0.008959128612847889
0.544000000000000372,0.010629330838300111
0.545000000000000373,0.012279096657628719
0.546000000000000374,0.013908492318457921
0.547000000000000375,0.015517580122526863
0.548000000000000376,0.017106418697159342
0.549000000000000377,0.018675063258427160
0.550000000000000377,0.020223565866117309
0.551000000000000378,0.021751975670590618
0.552000000000000379,0.023260339151664366
0.553000000000000380,0.024748700349614496
0.554000000000000381,0.026217101088441240
0.555000000000000382,0.027665581191471823
0.556000000000000383,0.029094178689484607
0.557000000000000384,0.030502930021413733
0.558000000000000385,0.031891870227816164
0.559000000000000385,0.033261033137184148
0.560000000000000386,0.034610451545262599
0.561000000000000387,0.035940157387483310
0.562000000000000388,0.037250181904660354
0.563000000000000389,0.038540555802056300
0.564000000000000390,0.039811309401980965
0.565000000000000391,0.041062472790030072
0.566000000000000392,0.042294075955111740
0.567000000000000393,0.043506148923376578
0.568000000000000393,0.044698721886210949
0.569000000000000394,0.045871825322396510
0.570000000000000395,0.047025490114585719
0.571000000000000396,0.048159747660227958
0.572000000000000397,0.049274629977050996
0.573000000000000398,0.050370169803270026
0.574000000000000399,0.051446400692607475
0.575000000000000400,0.052503357104297502
0.576000000000000401,0.053541074488168305
0.577000000000000401,0.054559589364934810
0.578000000000000402,0.055558939401849514
0.579000000000000403,0.056539163483814034
0.580000000000000404,0.057500301780070005
0.581000000000000405,0.058442395806618162
0.582000000000000406,0.059365488484452555
0.583000000000000407,0.060269624193757379
0.584000000000000408,0.061154848824163444
0.585000000000000409,0.062021209821193038
0.586000000000000409,0.062868756228999442
0.587000000000000410,0.063697538729512518
0.588000000000000411,0.064507609678119276
0.589000000000000412,0.065299023135950138
0.590000000000000413,0.066071834898928067
0.591000000000000414,0.066826102523650122
0.592000000000000415,0.067561885350207226
0.593000000000000416,0.068279244522069321
0.594000000000000417,0.068978243003118861
0.595000000000000417,0.069658945591910590
0.596000000000000418,0.070321418933314769
0.597000000000000419,0.070965731527562956
0.598000000000000420,0.071591953736855535
0.599000000000000421,0.072200157789579528
0.600000000000000422,0.072790417782243946
0.601000000000000423,0.073362809679223220
0.602000000000000424,0.073917411310382930
0.603000000000000425,0.074454302366675967
0.604000000000000425,0.074973564393802261
0.605000000000000426,0.075475280784002521
0.606000000000000427,0.075959536766045832
0.607000000000000428,0.076426419393555906
0.608000000000000429,0.076876017531632132
0.609000000000000430,0.077308421841991548
0.610000000000000431,0.077723724766552177
0.611000000000000432,0.078122020509636500
0.612000000000000433,0.078503405018823594
0.613000000000000433,0.078867975964492618
0.614000000000000434,0.079215832718168622
0.615000000000000435,0.079547076329711475
