# Montmorillonite-001-NaCEC108_CS-8733-AC
# h[nm],U(h)[kJ/mol]
0.149999999999999994,108.741874321435531670
0.150999999999999995,107.489670171556781497
0.151999999999999996,106.081482809625498476
0.152999999999999997,104.666953808329139974
0.153999999999999998,103.299655793023404726
0.154999999999999999,101.986923575073234360
0.156000000000000000,100.717612944555980903
0.157000000000000001,99.476447526397393517
0.158000000000000002,98.250521969148493895
0.159000000000000002,97.031463114695071681
0.160000000000000003,95.815388644671159568
0.161000000000000004,94.601920054297039542
0.162000000000000005,93.392947018823704752
0.163000000000000006,92.191495000176999497
0.164000000000000007,91.000843059920867972
0.165000000000000008,89.823923920735026627
0.166000000000000009,88.662979569243361766
0.167000000000000010,87.519420793022987937
0.168000000000000010,86.393833508149100453
0.169000000000000011,85.286079380941231420
0.170000000000000012,84.195447443593550929
0.171000000000000013,83.120823842757104671
0.172000000000000014,82.060856737375303283
0.173000000000000015,81.014101810960269745
0.174000000000000016,79.979140584032705874
0.175000000000000017,78.954668726778137966
0.176000000000000018,77.939555068449834607
0.177000000000000018,76.932874236694061665
0.178000000000000019,75.933917107362020715
0.179000000000000020,74.942183755169693882
0.180000000000000021,73.957363585430996977
0.181000000000000022,72.979306975460445983
0.182000000000000023,72.007992201037751556
0.183000000000000024,71.043490773629585533
0.184000000000000025,70.085933643252616321
0.185000000000000026,69.135480081021427168
0.186000000000000026,68.192290476528910403
0.187000000000000027,67.256503785707749898
0.188000000000000028,66.328219951558224921
0.189000000000000029,65.407487292521395261
0.190000000000000030,64.494294605854747715
0.191000000000000031,63.588567557723536083
0.192000000000000032,62.690168817950507218
0.193000000000000033,61.798901335114535982
0.194000000000000034,60.914514126871210919
0.195000000000000034,60.036709971620780379
0.196000000000000035,59.165154422610839902
0.197000000000000036,58.299485616998552473
0.198000000000000037,57.439324414227044713
0.199000000000000038,56.584284465333006153
0.200000000000000039,55.733981883563515680
0.201000000000000040,54.888044253934104688
0.202000000000000041,54.046118782904329692
0.203000000000000042,53.207879447660090477
0.204000000000000042,52.373033056620613479
0.205000000000000043,51.541324178229935171
0.206000000000000044,50.712538933712743017
0.207000000000000045,49.886507681399606895
0.208000000000000046,49.063106645797297745
0.209000000000000047,48.242258564261334186
0.210000000000000048,47.423932438485778107
0.211000000000000049,46.608142487664586895
0.212000000000000050,45.794946405723514715
0.213000000000000050,44.984443027089710654
0.214000000000000051,44.176769504644113340
0.215000000000000052,43.372098100341894167
0.216000000000000053,42.570632683993416379
0.217000000000000054,41.772605029322534165
0.218000000000000055,40.978270989063076968
0.219000000000000056,40.187906622862271888
0.220000000000000057,39.401804343425894217
0.221000000000000058,38.620269137915563817
0.222000000000000058,37.843614913287595414
0.223000000000000059,37.072161006215793577
0.224000000000000060,36.306228890584200997
0.225000000000000061,35.546139108368471682
0.226000000000000062,34.792208443108016525
0.227000000000000063,34.044747349148209992
0.228000000000000064,33.304057644423167517
0.229000000000000065,32.570430469758903769
0.230000000000000066,31.844144513496853932
0.231000000000000066,31.125464496647015977
0.232000000000000067,30.414639910752192975
0.233000000000000068,29.711903998145384520
0.234000000000000069,29.017472962273664905
0.235000000000000070,28.331545394202315435
0.236000000000000071,27.654301900262616698
0.237000000000000072,26.985904915019734318
0.238000000000000073,26.326498683275723067
0.239000000000000073,25.676209394644622819
0.240000000000000074,25.035145454300881340
0.241000000000000075,24.403397873778583715
0.242000000000000076,23.781040766146421817
0.243000000000000077,23.168131930475173164
0.244000000000000078,22.564713511220649167
0.245000000000000079,21.970812718938454111
0.246000000000000080,21.386442599607718762
0.247000000000000081,20.811602840743187670
0.248000000000000081,20.246280603406837884
0.249000000000000082,19.690451370170752199
0.250000000000000111,19.144079800021664539
0.251000000000000112,18.607120582122199437
0.252000000000000113,18.079519281243726425
0.253000000000000114,17.561213168556800923
0.254000000000000115,17.052132032295357789
0.255000000000000115,16.552198963601519210
0.256000000000000116,16.061331113600864740
0.257000000000000117,15.579440418453277317
0.258000000000000118,15.106434289770106716
0.259000000000000119,14.642216268383128508
0.260000000000000120,14.186686639994963599
0.261000000000000121,13.739743011735509270
0.262000000000000122,13.301280849094496261
0.263000000000000123,12.871193973099456898
0.264000000000000123,12.449375017961443746
0.265000000000000124,12.035715849721551507
0.266000000000000125,11.630107946700729116
0.267000000000000126,11.232442742786703960
0.268000000000000127,10.842611934786850370
0.269000000000000128,10.460507755238445782
0.270000000000000129,10.086023212198849563
0.271000000000000130,9.719052297641310290
0.272000000000000131,9.359490166160005842
0.273000000000000131,9.007233285742005435
0.274000000000000132,8.662179562397557930
0.275000000000000133,8.324228440454779943
0.276000000000000134,7.993280980323004492
0.277000000000000135,7.669239915513315964
0.278000000000000136,7.352009690675229692
0.279000000000000137,7.041496482369190346
0.280000000000000138,6.737608204245539412
0.281000000000000139,6.440254498243563219
0.282000000000000139,6.149346713361506289
0.283000000000000140,5.864797873479998813
0.284000000000000141,5.586522635649398438
0.285000000000000142,5.314437240176538957
0.286000000000000143,5.048459453769344130
0.287000000000000144,4.788508506920015506
0.288000000000000145,4.534505026628520952
0.289000000000000146,4.286370965490803542
0.290000000000000147,4.044029528098016968
0.291000000000000147,3.807405095617834689
0.292000000000000148,3.576423149354140740
0.293000000000000149,3.351010194009961474
0.294000000000000150,3.131093681308360743
0.295000000000000151,2.916601934559408527
0.296000000000000152,2.707464074696991130
0.297000000000000153,2.503609948248408656
0.298000000000000154,2.304970057641343661
0.299000000000000155,2.111475494198277847
0.300000000000000155,1.923057874116600230
0.301000000000000156,1.739649277684474082
0.302000000000000157,1.561182191937019237
0.303000000000000158,1.387589456915697905
0.304000000000000159,1.218804215654589074
0.305000000000000160,1.054759867981593491
0.306000000000000161,0.895390028189518405
0.307000000000000162,0.740628486601985658
0.308000000000000163,0.590409175031882505
0.309000000000000163,0.444666136105317744
0.310000000000000164,0.303333496401864910
0.311000000000000165,0.166345443342324290
0.312000000000000166,0.033636205737514399
0.313000000000000167,-0.094859962103484546
0.314000000000000168,-0.219208792820621390
0.315000000000000169,-0.339476015131962128
0.316000000000000170,-0.455727359780648822
0.317000000000000171,-0.568028562443418039
0.318000000000000171,-0.676445363751041029
0.319000000000000172,-0.781043506575985425
0.320000000000000173,-0.881888730746152261
0.321000000000000174,-0.979046765346038184
0.322000000000000175,-1.072583318768200344
0.323000000000000176,-1.162564066678014818
0.324000000000000177,-1.249054638054411859
0.325000000000000178,-1.332120599467636612
0.326000000000000179,-1.411827437753388370
0.327000000000000179,-1.488240541239524317
0.328000000000000180,-1.561425179678473940
0.329000000000000181,-1.631446483034698192
0.330000000000000182,-1.698369419272026448
0.331000000000000183,-1.762258771281475900
0.332000000000000184,-1.823179113084842040
0.333000000000000185,-1.881194785444385786
0.334000000000000186,-1.936369871003481125
0.335000000000000187,-1.988768169077476999
0.336000000000000187,-2.038453170208457177
0.337000000000000188,-2.085488030591562847
0.338000000000000189,-2.129935546475056007
0.339000000000000190,-2.171858128630242746
0.340000000000000191,-2.211317776981549521
0.341000000000000192,-2.248376055481428715
0.342000000000000193,-2.283094067308879538
0.343000000000000194,-2.315532430464954050
0.344000000000000195,-2.345751253832715655
0.345000000000000195,-2.373810113764275975
0.346000000000000196,-2.399768031251660716
0.347000000000000197,-2.423683449733589068
0.348000000000000198,-2.445614213585031393
0.349000000000000199,-2.465617547331672821
0.350000000000000200,-2.483750035626843378
0.351000000000000201,-2.500067604023863410
0.352000000000000202,-2.514625500572618577
0.353000000000000203,-2.527478278265026468
0.354000000000000203,-2.538679778350174665
0.355000000000000204,-2.548283114536109117
0.356000000000000205,-2.556340658091806439
0.357000000000000206,-2.562904023859599256
0.358000000000000207,-2.568024057184840281
0.359000000000000208,-2.571750821766998651
0.360000000000000209,-2.574133588433360931
0.361000000000000210,-2.575220824833867717
0.362000000000000210,-2.575060186053315103
0.363000000000000211,-2.573698506134687314
0.364000000000000212,-2.571181790505441711
0.365000000000000213,-2.567555209296442431
0.366000000000000214,-2.562863091541563776
0.367000000000000215,-2.557148920244218804
0.368000000000000216,-2.550455328295672786
0.369000000000000217,-2.542824095228469083
0.370000000000000218,-2.534296144787251848
0.371000000000000218,-2.524911543297897687
0.372000000000000219,-2.514709498815151267
0.373000000000000220,-2.503728361027862448
0.374000000000000221,-2.492005621900302170
0.375000000000000222,-2.479577917027174117
0.376000000000000223,-2.466481027679717108
0.377000000000000224,-2.452749883519418805
0.378000000000000225,-2.438418565955800865
0.379000000000000226,-2.423520312124233023
0.380000000000000226,-2.408087519459710890
0.381000000000000227,-2.392151750842134383
0.382000000000000228,-2.375743740288836392
0.383000000000000229,-2.358893399169895044
0.384000000000000230,-2.341629822921846404
0.385000000000000231,-2.323981298235687554
0.386000000000000232,-2.305975310694951652
0.387000000000000233,-2.287638552840119299
0.388000000000000234,-2.268996932635619412
0.389000000000000234,-2.250075582316252376
0.390000000000000235,-2.230898867589903301
0.391000000000000236,-2.211490397174055822
0.392000000000000237,-2.191873032643752772
0.393000000000000238,-2.172068898569325945
0.394000000000000239,-2.152099392922412147
0.395000000000000240,-2.131985197729477477
0.396000000000000241,-2.111746289952388445
0.397000000000000242,-2.091401952576117829
0.398000000000000242,-2.070970785884285181
0.399000000000000243,-2.050470718903601774
0.400000000000000244,-2.029919020998939949
0.401000000000000245,-2.009332313601329023
0.402000000000000246,-1.988726582051559388
0.403000000000000247,-1.968117187542856028
0.404000000000000248,-1.947518879146484805
0.405000000000000249,-1.926945805904799469
0.406000000000000250,-1.906411528976733383
0.407000000000000250,-1.885929033821413414
0.408000000000000251,-1.865510742405977140
0.409000000000000252,-1.845168525424389916
0.410000000000000253,-1.824913714514487806
0.411000000000000254,-1.804757114461084999
0.412000000000000255,-1.784709015373479035
0.413000000000000256,-1.764779204826303571
0.414000000000000257,-1.744976979953029694
0.415000000000000258,-1.725311159482183943
0.416000000000000258,-1.705790095706575027
0.417000000000000259,-1.686421686376571527
0.418000000000000260,-1.667213386508775042
0.419000000000000261,-1.648172220102014141
0.420000000000000262,-1.629304791752988590
0.421000000000000263,-1.610617298164420674
0.422000000000000264,-1.592115539538901503
0.423000000000000265,-1.573804930852136907
0.424000000000000266,-1.555690512999763353
0.425000000000000266,-1.537776963812100606
0.426000000000000267,-1.520068608931892884
0.427000000000000268,-1.502569432550223905
0.428000000000000269,-1.485283087996288831
0.429000000000000270,-1.468212908177100484
0.430000000000000271,-1.451361915863368379
0.431000000000000272,-1.434732833818394893
0.432000000000000273,-1.418328094766889036
0.433000000000000274,-1.402149851201122344
0.434000000000000274,-1.386199985021993486
0.435000000000000275,-1.370480117012972787
0.436000000000000276,-1.354991616145114985
0.437000000000000277,-1.339735608711577708
0.438000000000000278,-1.324712987290408428
0.439000000000000279,-1.309924419534553408
0.440000000000000280,-1.295370356788266397
0.441000000000000281,-1.281051042529351092
0.442000000000000282,-1.266966520636922944
0.443000000000000282,-1.253116643484401660
0.444000000000000283,-1.239501079857941335
0.445000000000000284,-1.226119322700360836
0.446000000000000285,-1.212970696681009652
0.447000000000000286,-1.200054365592215344
0.448000000000000287,-1.187369339572850180
0.449000000000000288,-1.174914482160062779
0.450000000000000289,-1.162688517170020308
0.451000000000000290,-1.150690035408883816
0.452000000000000290,-1.138917501215261030
0.453000000000000291,-1.127369258835450028
0.454000000000000292,-1.116043538633042731
0.455000000000000293,-1.104938463134378157
0.456000000000000294,-1.094052052911590467
0.457000000000000295,-1.083382232304996418
0.458000000000000296,-1.072926834986632105
0.459000000000000297,-1.062683609366924964
0.460000000000000298,-1.052650223846427036
0.461000000000000298,-1.042824271914718270
0.462000000000000299,-1.033203277098569073
0.463000000000000300,-1.023784697761496609
0.464000000000000301,-1.014565931757000383
0.465000000000000302,-1.005544320937683311
0.466000000000000303,-0.996717155522544473
0.467000000000000304,-0.988081678324819856
0.468000000000000305,-0.979635088842691792
0.469000000000000306,-0.971374547215247297
0.470000000000000306,-0.963297178046153890
0.471000000000000307,-0.955400074097367713
0.472000000000000308,-0.947680299855418795
0.473000000000000309,-0.940134894972659341
0.474000000000000310,-0.932760877585952719
0.475000000000000311,-0.925555247515248425
0.476000000000000312,-0.918514989344544674
0.477000000000000313,-0.911637075387652929
0.478000000000000314,-0.904918468541229037
0.479000000000000314,-0.898356125027581998
0.480000000000000315,-0.891946997029604005
0.481000000000000316,-0.885688035220354886
0.482000000000000317,-0.879576191189638146
0.483000000000000318,-0.873608419770033451
0.484000000000000319,-0.867781681264733651
0.485000000000000320,-0.862092943579588877
0.486000000000000321,-0.856539184261682296
0.487000000000000322,-0.851117392446793852
0.488000000000000322,-0.845824570717999769
0.489000000000000323,-0.840657736877793105
0.490000000000000324,-0.835613925635881549
0.491000000000000325,-0.830690190214948943
0.492000000000000326,-0.825883603876563122
0.493000000000000327,-0.821191261369423442
0.494000000000000328,-0.816610280302083269
0.495000000000000329,-0.812137802442261192
0.496000000000000330,-0.807770994944825405
0.497000000000000330,-0.803507051510554682
0.498000000000000331,-0.799343193477584313
0.499000000000000332,-0.795276670847675726
0.500000000000000333,-0.791304763249177645
0.501000000000000334,-0.787424780838581584
0.502000000000000335,-0.783634065142669756
0.503000000000000336,-0.779929989843008764
0.504000000000000337,-0.776309961504679014
0.505000000000000338,-0.772771420251000318
0.506000000000000338,-0.769311840386037393
0.507000000000000339,-0.765928730966575877
0.508000000000000340,-0.762619636325277961
0.509000000000000341,-0.759382136546707054
0.510000000000000342,-0.756213847897757918
0.511000000000000343,-0.753112423214176152
0.512000000000000344,-0.750075552244642063
0.513000000000000345,-0.747100961953989340
0.514000000000000346,-0.744186416787044669
0.515000000000000346,-0.741329718894495393
0.516000000000000347,-0.738528708322249594
0.517000000000000348,-0.735781263165687927
0.518000000000000349,-0.733085299690096392
0.519000000000000350,-0.730438772418681159
0.520000000000000351,-0.727839674189388997
0.521000000000000352,-0.725286036181860161
0.522000000000000353,-0.722775927915673799
0.523000000000000353,-0.720307457221121661
0.524000000000000354,-0.717878770183685289
0.525000000000000355,-0.715488051063326691
0.526000000000000356,-0.713133522189689395
0.527000000000000357,-0.710813443834357961
0.528000000000000358,-0.708526114061109435
0.529000000000000359,-0.706269868555311708
0.530000000000000360,-0.704043080433318424
0.531000000000000361,-0.701844160032950137
0.532000000000000361,-0.699671554685915131
0.533000000000000362,-0.697523748473123706
0.534000000000000363,-0.695399261963748683
0.535000000000000364,-0.693296651938923980
0.536000000000000365,-0.691214511100885498
0.537000000000000366,-0.689151467768374770
0.538000000000000367,-0.687106185559071214
0.539000000000000368,-0.685077363059865441
0.540000000000000369,-0.683063733485613445
0.541000000000000369,-0.681064064327204899
0.542000000000000370,-0.679077156989509989
0.543000000000000371,-0.677101846419976616
0.544000000000000372,-0.675137000728454950
0.545000000000000373,-0.673181520798924238
0.546000000000000374,-0.671234339893671317
0.547000000000000375,-0.669294423250552883
0.548000000000000376,-0.667360767673883859
0.549000000000000377,-0.665432401119498751
0.550000000000000377,-0.663508382274504482
0.551000000000000378,-0.661587800132234838
0.552000000000000379,-0.659669773562910455
0.553000000000000380,-0.657753450880453894
0.554000000000000381,-0.655838009405907973
0.555000000000000382,-0.653922655027936783
0.556000000000000383,-0.652006621760760408
0.557000000000000384,-0.650089171300009094
0.558000000000000385,-0.648169592576798181
0.559000000000000385,-0.646247201310473973
0.560000000000000386,-0.644321339560342321
0.561000000000000387,-0.642391375276736176
0.562000000000000388,-0.640456701851742416
0.563000000000000389,-0.638516737669944545
0.564000000000000390,-0.636570925659416531
0.565000000000000391,-0.634618732843316380
0.566000000000000392,-0.632659649892318154
0.567000000000000393,-0.630693190678184079
0.568000000000000393,-0.628718891828682458
0.569000000000000394,-0.626736312284132402
0.570000000000000395,-0.624745032855791416
0.571000000000000396,-0.622744655786286239
0.572000000000000397,-0.620734804312345956
0.573000000000000398,-0.618715122229964054
0.574000000000000399,-0.616685273462249883
0.575000000000000400,-0.614644941630084540
0.576000000000000401,-0.612593829625786235
0.577000000000000401,-0.610531659189965326
0.578000000000000402,-0.608458170491653849
0.579000000000000403,-0.606373121711895946
0.580000000000000404,-0.604276288630963387
0.581000000000000405,-0.602167464219237059
0.582000000000000406,-0.600046458231961566
0.583000000000000407,-0.597913096807918598
0.584000000000000408,-0.595767222072164593
0.585000000000000409,-0.593608691742903316
0.586000000000000409,-0.591437378742595832
0.587000000000000410,-0.589253170813398008
0.588000000000000411,-0.587055970136964866
0.589000000000000412,-0.584845692958767316
0.590000000000000413,-0.582622269216888866
0.591000000000000414,-0.580385642175440308
0.592000000000000415,-0.578135768062627897
0.593000000000000416,-0.575872615713479918
0.594000000000000417,-0.573596166217330228
0.595000000000000417,-0.571306412570099398
0.596000000000000418,-0.569003359331321734
0.597000000000000419,-0.566687022286082920
0.598000000000000420,-0.564357428111761039
0.599000000000000421,-0.562014614049687999
0.600000000000000422,-0.559658627581698487
0.601000000000000423,-0.557289526111588329
0.602000000000000424,-0.554907376651504025
0.603000000000000425,-0.552512255513264883
0.604000000000000425,-0.550104248004600560
0.605000000000000426,-0.547683448130322548
0.606000000000000427,-0.545249958298461124
0.607000000000000428,-0.542803889031227227
0.608000000000000429,-0.540345358681022292
0.609000000000000430,-0.537874493151191624
0.610000000000000431,-0.535391425621793760
0.611000000000000432,-0.532896296280154225
0.612000000000000433,-0.530389252056275629
0.613000000000000433,-0.527870446363103762
