# Montmorillonite-001-NaCEC108_CHOL-AC
# h[nm],U(h)[kJ/mol]
0.149999999999999994,166.989413999503966579
0.150999999999999995,166.009938584198323497
0.151999999999999996,164.629239576997832728
0.152999999999999997,163.120993641016951869
0.153999999999999998,161.600518305858543044
0.154999999999999999,160.104480616363019863
0.156000000000000000,158.635083986609004114
0.157000000000000001,157.183039506510965566
0.158000000000000002,155.738321459756917875
0.159000000000000002,154.294242616253768574
0.160000000000000003,152.848156206348420483
0.161000000000000004,151.400683283566479531
0.162000000000000005,149.954494424201385527
0.163000000000000006,148.513153321375739324
0.164000000000000007,147.080229900365537787
0.165000000000000008,145.658728322704234870
0.166000000000000009,144.250796085244644473
0.167000000000000010,142.857649403174661984
0.168000000000000010,141.479645277855780705
0.169000000000000011,140.116438731821688179
0.170000000000000012,138.767176811782348977
0.171000000000000013,137.430694783580207741
0.172000000000000014,136.105692298184152378
0.173000000000000015,134.790877308358801656
0.174000000000000016,133.485073001527098313
0.175000000000000017,132.187288201989701975
0.176000000000000018,130.896754966016658273
0.177000000000000018,129.612938869112269913
0.178000000000000019,128.335528164377421945
0.179000000000000020,127.064407917299789119
0.180000000000000021,125.799624672618122645
0.181000000000000022,124.541346395600868391
0.182000000000000023,123.289821508117526605
0.183000000000000024,122.045339916124433444
0.184000000000000025,120.808198068268580982
0.185000000000000026,119.578669334691198856
0.186000000000000026,118.356980368937570347
0.187000000000000027,117.143293617455668709
0.188000000000000028,115.937695764040157087
0.189000000000000029,114.740191628446311256
0.190000000000000030,113.550702863964303901
0.191000000000000031,112.369070701722279182
0.192000000000000032,111.195061954000337323
0.193000000000000033,110.028377500214403995
0.194000000000000034,108.868662524538990510
0.195000000000000034,107.715517842343544430
0.196000000000000035,106.568511734635237076
0.197000000000000036,105.427191798280475155
0.198000000000000037,104.291096409341406570
0.199000000000000038,103.159765483284758147
0.200000000000000039,102.032750296226851106
0.201000000000000040,100.909622203899871806
0.202000000000000041,99.789980158631763629
0.203000000000000042,98.673456978916490812
0.204000000000000042,97.559724371198370818
0.205000000000000043,96.448496739728341254
0.206000000000000044,95.339533848435053187
0.207000000000000045,94.232642419497423703
0.208000000000000046,93.127676767596199170
0.209000000000000047,92.024538577561827424
0.210000000000000048,90.923175937218132958
0.211000000000000049,89.823581737485540089
0.212000000000000050,88.725791549027846372
0.213000000000000050,87.629881079611578798
0.214000000000000051,86.535963309500644414
0.215000000000000052,85.444185394180308890
0.216000000000000053,84.354725414935273875
0.217000000000000054,83.267789048681422059
0.218000000000000055,82.183606219270501470
0.219000000000000056,81.102427783501056524
0.220000000000000057,80.024522296453838521
0.221000000000000058,78.950172892676292236
0.222000000000000058,77.879674312250131152
0.223000000000000059,76.813330093959308442
0.224000000000000060,75.751449951657633619
0.225000000000000061,74.694347344525851895
0.226000000000000062,73.642337247193054850
0.227000000000000063,72.595734121655368654
0.228000000000000064,71.554850089514374645
0.229000000000000065,70.519993300238567713
0.230000000000000066,69.491466488872873697
0.231000000000000066,68.469565714833123593
0.232000000000000067,67.454579272072592744
0.233000000000000068,66.446786759943194056
0.234000000000000069,65.446458303447457183
0.235000000000000070,64.453853911238127239
0.236000000000000071,63.469222959630506864
0.237000000000000072,62.492803791000326896
0.238000000000000073,61.524823415217596789
0.239000000000000073,60.565497303175916954
0.240000000000000074,59.615029261985270637
0.241000000000000075,58.673611381985686819
0.242000000000000076,57.741424046376607748
0.243000000000000077,56.818635994929522326
0.244000000000000078,55.905404433940347531
0.245000000000000079,55.001875185266115409
0.246000000000000080,54.108182867973333430
0.247000000000000081,53.224451106784385956
0.248000000000000081,52.350792762143917969
0.249000000000000082,51.487310177329540295
0.250000000000000111,50.634095438598336614
0.251000000000000112,49.791230644886788070
0.252000000000000113,48.958788184069817362
0.253000000000000114,48.136831013230846565
0.254000000000000115,47.325412940798869954
0.255000000000000115,46.524578908773875696
0.256000000000000116,45.734365273587684442
0.257000000000000117,44.954800084435504459
0.258000000000000118,44.185903358167323063
0.259000000000000119,43.427687350048110204
0.260000000000000120,42.680156819885482378
0.261000000000000121,41.943309293184817932
0.262000000000000122,41.217135317126647465
0.263000000000000123,40.501618711274083751
0.264000000000000123,39.796736813007626665
0.265000000000000124,39.102460717757743680
0.266000000000000125,38.418755514160402242
0.267000000000000126,37.745580514302154995
0.268000000000000127,37.082889479248720477
0.269000000000000128,36.430630840069476051
0.270000000000000129,35.788747914578017628
0.271000000000000130,35.157179120009161011
0.272000000000000131,34.535858181847878257
0.273000000000000131,33.924714339014272468
0.274000000000000132,33.323672545594419603
0.275000000000000133,32.732653669289256015
0.276000000000000134,32.151574686733475517
0.277000000000000135,31.580348875816429910
0.278000000000000136,31.018886005114286064
0.279000000000000137,30.467092520521180887
0.280000000000000138,29.924871729146076405
0.281000000000000139,29.392123980520295845
0.282000000000000139,28.868746845141743051
0.283000000000000140,28.354635290362796951
0.284000000000000141,27.849681853612093363
0.285000000000000142,27.353776812924753159
0.286000000000000143,26.866808354741827713
0.287000000000000144,26.388662738927990858
0.288000000000000145,25.919224460945532229
0.289000000000000146,25.458376411115203553
0.290000000000000147,25.006000030886479379
0.291000000000000147,24.561975466035413262
0.292000000000000148,24.126181716704341085
0.293000000000000149,23.698496784195679510
0.294000000000000150,23.278797814431147373
0.295000000000000151,22.866961237988789435
0.296000000000000152,22.462862906631254845
0.297000000000000153,22.066378226242559180
0.298000000000000154,21.677382286093468622
0.299000000000000155,21.295749984361123097
0.300000000000000155,20.921356149833428617
0.301000000000000156,20.554075659735378423
0.302000000000000157,20.193783553620360038
0.303000000000000158,19.840355143277626837
0.304000000000000159,19.493666118613560911
0.305000000000000160,19.153592649472816589
0.306000000000000161,18.820011483372979910
0.307000000000000162,18.492800039134476009
0.308000000000000163,18.171836496395521010
0.309000000000000163,17.856999881010072073
0.310000000000000164,17.548170146334378217
0.311000000000000165,17.245228250415920002
0.312000000000000166,16.948056229105880277
0.313000000000000167,16.656537265123780855
0.314000000000000168,16.370555753110117791
0.315000000000000169,16.089997360709670460
0.316000000000000170,15.814749085734542078
0.317000000000000171,15.544699309462439274
0.318000000000000171,15.279737846131419943
0.319000000000000172,15.019755988697658822
0.320000000000000173,14.764646550928086199
0.321000000000000174,14.514303905904558434
0.322000000000000175,14.268624021019993720
0.323000000000000176,14.027504489551528621
0.324000000000000177,13.790844558898692540
0.325000000000000178,13.558545155578240582
0.326000000000000179,13.330508907069454239
0.327000000000000179,13.106640160606815471
0.328000000000000180,12.886844999018370217
0.329000000000000181,12.671031253710143716
0.330000000000000182,12.459108514898243669
0.331000000000000183,12.250988139191068882
0.332000000000000184,12.046583254625119253
0.333000000000000185,11.845808763258002472
0.334000000000000186,11.648581341422490354
0.335000000000000187,11.454819437745253907
0.336000000000000187,11.264443269033437289
0.337000000000000188,11.077374814131916381
0.338000000000000189,10.893537805852691491
0.339000000000000190,10.712857721077224227
0.340000000000000191,10.535261769131015086
0.341000000000000192,10.360678878528460700
0.342000000000000193,10.189039682184226621
0.343000000000000194,10.020276501185586326
0.344000000000000195,9.854323327218775574
0.345000000000000195,9.691115803739510426
0.346000000000000196,9.530591205976644886
0.347000000000000197,9.372688419855041531
0.348000000000000198,9.217347919921786925
0.349000000000000199,9.064511746357400312
0.350000000000000200,8.914123481151239758
0.351000000000000201,8.766128223517908324
0.352000000000000202,8.620472564628915535
0.353000000000000203,8.477104561731259480
0.354000000000000203,8.335973711722054702
0.355000000000000204,8.197030924245879646
0.356000000000000205,8.060228494378751662
0.357000000000000206,7.925520074960035188
0.358000000000000207,7.792860648631362963
0.359000000000000208,7.662206499638654300
0.360000000000000209,7.533515185451024720
0.361000000000000210,7.406745508247936982
0.362000000000000210,7.281857486323252360
0.363000000000000211,7.158812325452615255
0.364000000000000212,7.037572390268051592
0.365000000000000213,6.918101175681468540
0.366000000000000214,6.800363278396249989
0.367000000000000215,6.684324368544143802
0.368000000000000216,6.569951161482061153
0.369000000000000217,6.457211389781733146
0.370000000000000218,6.346073775442649278
0.371000000000000218,6.236508002356970337
0.372000000000000219,6.128484689052973167
0.373000000000000220,6.021975361741697341
0.374000000000000221,5.916952427689660787
0.375000000000000222,5.813389148938863826
0.376000000000000223,5.711259616393044247
0.377000000000000224,5.610538724288234746
0.378000000000000225,5.511202145063458069
0.379000000000000226,5.413226304646207687
0.380000000000000226,5.316588358165646788
0.381000000000000227,5.221266166105282380
0.382000000000000228,5.127238270905320583
0.383000000000000229,5.034483874023652383
0.384000000000000230,4.942982813463343561
0.385000000000000231,4.852715541772985475
0.386000000000000232,4.763663104525576841
0.387000000000000233,4.675807119280059432
0.388000000000000234,4.589129755029106583
0.389000000000000234,4.503613712135390301
0.390000000000000235,4.419242202757852844
0.391000000000000236,4.335998931768677345
0.392000000000000237,4.253868078160706112
0.393000000000000238,4.172834276944376697
0.394000000000000239,4.092882601532595643
0.395000000000000240,4.013998546611114548
0.396000000000000241,3.936168011491552932
0.397000000000000242,3.859377283943502768
0.398000000000000242,3.783613024501614408
0.399000000000000243,3.708862251243176811
0.400000000000000244,3.635112325031008673
0.401000000000000245,3.562350935216284764
0.402000000000000246,3.490566085795483442
0.403000000000000247,3.419746082015019617
0.404000000000000248,3.349879517417226449
0.405000000000000249,3.280955261320683380
0.406000000000000250,3.212962446727853028
0.407000000000000250,3.145890458652563559
0.408000000000000251,3.079728922859835460
0.409000000000000252,3.014467695010241588
0.410000000000000253,2.950096850200834897
0.411000000000000254,2.886606672894610259
0.412000000000000255,2.823987647230304709
0.413000000000000256,2.762230447704128178
0.414000000000000257,2.701325930215219273
0.415000000000000258,2.641265123466176590
0.416000000000000258,2.582039220710394378
0.417000000000000259,2.523639571837465567
0.418000000000000260,2.466057675788346337
0.419000000000000261,2.409285173291526583
0.420000000000000262,2.353313839911923999
0.421000000000000263,2.298135579403811413
0.422000000000000264,2.243742417359521291
0.423000000000000265,2.190126495145404473
0.424000000000000266,2.137280064116738654
0.425000000000000266,2.085195480103435806
0.426000000000000267,2.033865198158199661
0.427000000000000268,1.983281767559191611
0.428000000000000269,1.933437827059147240
0.429000000000000270,1.884326100373044710
0.430000000000000271,1.835939391896606709
0.431000000000000272,1.788270582647863538
0.432000000000000273,1.741312626424360133
0.433000000000000274,1.695058546168480618
0.434000000000000274,1.649501430533629076
0.435000000000000275,1.604634430644137577
0.436000000000000276,1.560450757041829117
0.437000000000000277,1.516943676812353203
0.438000000000000278,1.474106510884575227
0.439000000000000279,1.431932631496379615
0.440000000000000280,1.390415459820414146
0.441000000000000281,1.349548463743545756
0.442000000000000282,1.309325155793674478
0.443000000000000282,1.269739091208116788
0.444000000000000283,1.230783866137435734
0.445000000000000284,1.192453115979186906
0.446000000000000285,1.154740513835890381
0.447000000000000286,1.117639769091770319
0.448000000000000287,1.081144626103070827
0.449000000000000288,1.045248862996675854
0.450000000000000289,1.009946290572147465
0.451000000000000290,0.975230751302251120
0.452000000000000290,0.941096118427214967
0.453000000000000291,0.907536295138284599
0.454000000000000292,0.874545213845966729
0.455000000000000293,0.842116835528776475
0.456000000000000294,0.810245149158285272
0.457000000000000295,0.778924171196382353
0.458000000000000296,0.748147945160970163
0.459000000000000297,0.717910541256193024
0.460000000000000298,0.688206056063633720
0.461000000000000298,0.659028612290915250
0.462000000000000299,0.630372358574328495
0.463000000000000300,0.602231469332238922
0.464000000000000301,0.574600144666016055
0.465000000000000302,0.547472610305555940
0.466000000000000303,0.520843117596411331
0.467000000000000304,0.494705943525660718
0.468000000000000305,0.469055390783923110
0.469000000000000306,0.443885787860824998
0.470000000000000306,0.419191489171376941
0.471000000000000307,0.394966875211012758
0.472000000000000308,0.371206352736835776
0.473000000000000309,0.347904354972915275
0.474000000000000310,0.325055341837554856
0.475000000000000311,0.302653800190451350
0.476000000000000312,0.280694244097865642
0.477000000000000313,0.259171215113869202
0.478000000000000314,0.238079282576037693
0.479000000000000314,0.217413043913744997
0.480000000000000315,0.197167124967604773
0.481000000000000316,0.177336180318393294
0.482000000000000317,0.157914893624127306
0.483000000000000318,0.138897977963804903
0.484000000000000319,0.120280176186551097
0.485000000000000320,0.102056261264943937
0.486000000000000321,0.084221036651266568
0.487000000000000322,0.066769336635614754
0.488000000000000322,0.049696026704863082
0.489000000000000323,0.032996003901330104
0.490000000000000324,0.016664197180365114
0.491000000000000325,0.000695567765902361
0.492000000000000326,-0.014914890496864387
0.493000000000000327,-0.030172150792446794
0.494000000000000328,-0.045081152990386418
0.495000000000000329,-0.059646803305663985
0.496000000000000330,-0.073873973964748485
0.497000000000000330,-0.087767502878052239
0.498000000000000331,-0.101332193319071756
0.499000000000000332,-0.114572813611012278
0.500000000000000333,-0.127494096821227254
0.501000000000000334,-0.140100740463825396
0.502000000000000335,-0.152397406211069841
0.503000000000000336,-0.164388719613700246
0.504000000000000337,-0.176079269830692414
0.505000000000000338,-0.187473609368628003
0.506000000000000338,-0.198576253831016153
0.507000000000000339,-0.209391681677800756
0.508000000000000340,-0.219924333995185822
0.509000000000000341,-0.230178614276159405
0.510000000000000342,-0.240158888211602944
0.511000000000000343,-0.249869483492407840
0.512000000000000344,-0.259314689622483052
0.513000000000000345,-0.268498757742876071
0.514000000000000346,-0.277425900467098141
0.515000000000000346,-0.286100291727568734
0.516000000000000347,-0.294526066633359840
0.517000000000000348,-0.302707321339201252
0.518000000000000349,-0.310648112925715425
0.519000000000000350,-0.318352459290937251
0.520000000000000351,-0.325824339052982137
0.521000000000000352,-0.333067691463988902
0.522000000000000353,-0.340086416335058539
0.523000000000000353,-0.346884373972319249
0.524000000000000354,-0.353465385123920006
0.525000000000000355,-0.359833230937897874
0.526000000000000356,-0.365991652930790334
0.527000000000000357,-0.371944352966937897
0.528000000000000358,-0.377694993248268274
0.529000000000000359,-0.383247196314549343
0.530000000000000360,-0.388604545053809258
0.531000000000000361,-0.393770582722961615
0.532000000000000361,-0.398748812978348854
0.533000000000000362,-0.403542699916110137
0.534000000000000363,-0.408155668122163362
0.535000000000000364,-0.412591102731730608
0.536000000000000365,-0.416852349498077701
0.537000000000000366,-0.420942714870470192
0.538000000000000367,-0.424865466080971366
0.539000000000000368,-0.428623831240116715
0.540000000000000369,-0.432220999441052078
0.541000000000000369,-0.435660120872156942
0.542000000000000370,-0.438944306937753825
0.543000000000000371,-0.442076630386901592
0.544000000000000372,-0.445060125449939115
0.545000000000000373,-0.447897787982670270
0.546000000000000374,-0.450592575617913937
0.547000000000000375,-0.453147407924294643
0.548000000000000376,-0.455565166572033498
0.549000000000000377,-0.457848695505535030
0.550000000000000377,-0.460000801122623870
0.551000000000000378,-0.462024252460129126
0.552000000000000379,-0.463921781385759402
0.553000000000000380,-0.465696082795932831
0.554000000000000381,-0.467349814819435827
0.555000000000000382,-0.468885599026760136
0.556000000000000383,-0.470306020644768286
0.557000000000000384,-0.471613628776717975
0.558000000000000385,-0.472810936627204470
0.559000000000000385,-0.473900421732050048
0.560000000000000386,-0.474884526192824008
0.561000000000000387,-0.475765656915846491
0.562000000000000388,-0.476546185855456550
0.563000000000000389,-0.477228450261463155
0.564000000000000390,-0.477814752930457942
0.565000000000000391,-0.478307362460921925
0.566000000000000392,-0.478708513511886646
0.567000000000000393,-0.479020407065048393
0.568000000000000393,-0.479245210690052825
0.569000000000000394,-0.479385058812892229
0.570000000000000395,-0.479442052987206879
0.571000000000000396,-0.479418262168283593
0.572000000000000397,-0.479315722989703541
0.573000000000000398,-0.479136440042343292
0.574000000000000399,-0.478882386155705941
0.575000000000000400,-0.478555502681318690
0.576000000000000401,-0.478157699778115064
0.577000000000000401,-0.477690856699687305
0.578000000000000402,-0.477156822083148302
0.579000000000000403,-0.476557414239555388
0.580000000000000404,-0.475894421445794968
0.581000000000000405,-0.475169602237637712
0.582000000000000406,-0.474384685704030307
0.583000000000000407,-0.473541371782321197
0.584000000000000408,-0.472641331554418898
0.585000000000000409,-0.471686207543698277
0.586000000000000409,-0.470677614012532608
0.587000000000000410,-0.469617137260401496
0.588000000000000411,-0.468506335922332262
0.589000000000000412,-0.467346741267743060
0.590000000000000413,-0.466139857499391019
0.591000000000000414,-0.464887162052454339
0.592000000000000415,-0.463590105893610160
0.593000000000000416,-0.462250113819963615
0.594000000000000417,-0.460868584757770539
0.595000000000000417,-0.459446892060933032
0.596000000000000418,-0.457986383808956732
0.597000000000000419,-0.456488383104580620
0.598000000000000420,-0.454954188370707668
0.599000000000000421,-0.453385073646766223
0.600000000000000422,-0.451782288884306105
0.601000000000000423,-0.450147060241761932
0.602000000000000424,-0.448480590378369182
0.603000000000000425,-0.446784058747103086
0.604000000000000425,-0.445058621886560257
0.605000000000000426,-0.443305413711760188
0.606000000000000427,-0.441525545803821529
0.607000000000000428,-0.439720107698274965
0.608000000000000429,-0.437890167172284239
0.609000000000000430,-0.436036770530296380
0.610000000000000431,-0.434160942888462742
0.611000000000000432,-0.432263688457498130
0.612000000000000433,-0.430345990824028690
0.613000000000000433,-0.428408813230422514
0.614000000000000434,-0.426453098852964785
