# Montmorillonite-001-NaCEC108_BSAI18
# h[nm],U(h)[kJ/mol]
0.149999999999999994,125.190702297285810118
0.150999999999999995,123.333242268774057493
0.151999999999999996,121.801492962175458956
0.152999999999999997,120.319292314748167882
0.153999999999999998,118.800582482361818393
0.154999999999999999,117.242442145081128047
0.156000000000000000,115.669502736938326848
0.157000000000000001,114.107937871865033230
0.158000000000000002,112.575618313484795863
0.159000000000000002,111.080427218009504031
0.160000000000000003,109.622141654070063055
0.161000000000000004,108.195391948917787772
0.162000000000000005,106.792471795780514299
0.163000000000000006,105.405497211346641961
0.164000000000000007,104.027804493192206792
0.165000000000000008,102.654668493467468693
0.166000000000000009,101.283497396483625153
0.167000000000000010,99.913671757929051864
0.168000000000000010,98.546176106400480421
0.169000000000000011,97.183139825904632403
0.170000000000000012,95.827370773222384059
0.171000000000000013,94.481935364319753035
0.172000000000000014,93.149814816345411828
0.173000000000000015,91.833649234206617962
0.174000000000000016,90.535568756817369263
0.175000000000000017,89.257103107855570556
0.176000000000000018,87.999156610901522413
0.177000000000000018,86.762034071000897484
0.178000000000000019,85.545503070426917702
0.179000000000000020,84.348879511178878943
0.180000000000000021,83.171125151757877347
0.181000000000000022,82.010948060578343188
0.182000000000000023,80.866899088001190421
0.183000000000000024,79.737459480064700301
0.184000000000000025,78.621116525959166665
0.185000000000000026,77.516425605419016165
0.186000000000000026,76.422058174129887220
0.187000000000000027,75.336836110733273131
0.188000000000000028,74.259753477643727138
0.189000000000000029,73.189987156261125278
0.190000000000000030,72.126898044029246648
0.191000000000000031,71.070024583910466731
0.192000000000000032,70.019070370918115032
0.193000000000000033,68.973887475935228508
0.194000000000000034,67.934456970099986961
0.195000000000000034,66.900867944856983627
0.196000000000000035,65.873296120273806764
0.197000000000000036,64.851982930352860990
0.198000000000000037,63.837215778316263481
0.199000000000000038,62.829309973770321562
0.200000000000000039,61.828592701427716349
0.201000000000000040,60.835389229920416199
0.202000000000000041,59.850011449931557195
0.203000000000000042,58.872748733059083293
0.204000000000000042,57.903861025350195746
0.205000000000000043,56.943574030644413142
0.206000000000000044,55.992076296735582730
0.207000000000000045,55.049517989767466020
0.208000000000000046,54.116011127032493278
0.209000000000000047,53.191631033337522183
0.210000000000000048,52.276418789347722793
0.211000000000000049,51.370384450001644439
0.212000000000000050,50.473510825582920347
0.213000000000000050,49.585757635919506470
0.214000000000000051,48.707065868238892392
0.215000000000000052,47.837362190421515606
0.216000000000000053,46.976563292926357462
0.217000000000000054,46.124580053845839700
0.218000000000000055,45.281321441864278654
0.219000000000000056,44.446698090962819094
0.220000000000000057,43.620625498259471442
0.221000000000000058,42.803026812230520193
0.222000000000000058,41.993835192626299602
0.223000000000000059,41.192995735654484690
0.224000000000000060,40.400466968473473628
0.225000000000000061,39.616221925790533476
0.226000000000000062,38.840248828484547516
0.227000000000000063,38.072551389792920418
0.228000000000000064,37.313148778845608433
0.229000000000000065,36.562075274334013386
0.230000000000000066,35.819379643014549686
0.231000000000000066,35.085124278699915124
0.232000000000000067,34.359384137528330427
0.233000000000000068,33.642245504744856532
0.234000000000000069,32.933804627105814689
0.235000000000000070,32.234166243434216881
0.236000000000000071,31.543442043916304129
0.237000000000000072,30.861749086523417418
0.238000000000000073,30.189208196554147889
0.239000000000000073,29.525942372787604029
0.240000000000000074,28.872075221178846505
0.241000000000000075,28.227729434468010083
0.242000000000000076,27.593025333554457745
0.243000000000000077,26.968079484043624205
0.244000000000000078,26.353003399036349919
0.245000000000000079,25.747902337017393393
0.246000000000000080,25.152874201632261730
0.247000000000000081,24.568008548225485299
0.248000000000000081,23.993385700261129045
0.249000000000000082,23.429075977158117183
0.250000000000000111,22.875139033649361409
0.251000000000000112,22.331623309513936704
0.252000000000000113,21.798565587428818446
0.253000000000000114,21.275990655738372226
0.254000000000000115,20.763911072133559799
0.255000000000000115,20.262327023565788409
0.256000000000000116,19.771226277178165276
0.257000000000000117,19.290584216614018231
0.258000000000000118,18.820363957747250794
0.259000000000000119,18.360516537661396796
0.260000000000000120,17.910981170575244192
0.261000000000000121,17.471685564363049536
0.262000000000000122,17.042546291336364561
0.263000000000000123,16.623469207035430628
0.264000000000000123,16.214349910910652142
0.265000000000000124,15.815074242952462669
0.266000000000000125,15.425518810543314530
0.267000000000000126,15.045551540051267381
0.268000000000000127,14.675032247954954201
0.269000000000000128,14.313813226579608084
0.270000000000000129,13.961739839826677212
0.271000000000000130,13.618651124591853119
0.272000000000000131,13.284380393884333671
0.273000000000000131,12.958755837978838343
0.274000000000000132,12.641601120249616130
0.275000000000000133,12.332735964648614768
0.276000000000000134,12.031976732096413940
0.277000000000000135,11.739136983352562282
0.278000000000000136,11.454028026218892933
0.279000000000000137,11.176459445205466636
0.280000000000000138,10.906239612051980004
0.281000000000000139,10.643176175746708267
0.282000000000000139,10.387076530920925421
0.283000000000000140,10.137748263717398345
0.284000000000000141,9.894999574438369194
0.285000000000000142,9.658639676469681135
0.286000000000000143,9.428479171155064620
0.287000000000000144,9.204330398457212681
0.288000000000000145,8.986007763390539083
0.289000000000000146,8.773328038345953317
0.290000000000000147,8.566110641548833726
0.291000000000000147,8.364177892000935088
0.292000000000000148,8.167355241352941775
0.293000000000000149,7.975471483240117898
0.294000000000000150,7.788358940686931575
0.295000000000000151,7.605853632250733298
0.296000000000000152,7.427795417628192176
0.297000000000000153,7.254028123493378999
0.298000000000000154,7.084399650372525059
0.299000000000000155,6.918762061389328366
0.300000000000000155,6.756971653735844185
0.301000000000000156,6.598889013738977738
0.302000000000000157,6.444379056400906691
0.303000000000000158,6.293311050295369746
0.304000000000000159,6.145558628699578030
0.305000000000000160,6.000999787835448629
0.306000000000000161,5.859516873083586042
0.307000000000000162,5.720996554019484037
0.308000000000000163,5.585329789104717335
0.309000000000000163,5.452411780846158962
0.310000000000000164,5.322141922214399301
0.311000000000000165,5.194423735088554039
0.312000000000000166,5.069164801469133508
0.313000000000000167,4.946276688173744773
0.314000000000000168,4.825674865702395344
0.315000000000000169,4.707278621930349516
0.316000000000000170,4.591010971257057705
0.317000000000000171,4.476798559810006850
0.318000000000000171,4.364571567272329311
0.319000000000000172,4.254263605872973031
0.320000000000000173,4.145811617048543951
0.321000000000000174,4.039155766256294022
0.322000000000000175,3.934239336388594133
0.323000000000000176,3.831008620210649696
0.324000000000000177,3.729412812215075146
0.325000000000000178,3.629403900259785765
0.326000000000000179,3.530936557328773429
0.327000000000000179,3.433968033729846603
0.328000000000000180,3.338458050018282997
0.329000000000000181,3.244368690911309638
0.330000000000000182,3.151664300435341737
0.331000000000000183,3.060311378525493176
0.332000000000000184,2.970278479275898054
0.333000000000000185,2.881536111018956792
0.334000000000000186,2.794056638392401926
0.335000000000000187,2.707814186534744039
0.336000000000000187,2.622784547532222454
0.337000000000000188,2.538945089224221352
0.338000000000000189,2.456274666458260203
0.339000000000000190,2.374753534871354876
0.340000000000000191,2.294363267260913997
0.341000000000000192,2.215086672595315331
0.342000000000000193,2.136907717702571041
0.343000000000000194,2.059811451664178783
0.344000000000000195,1.983783932931252325
0.345000000000000195,1.908812159169936962
0.346000000000000196,1.834883999834867385
0.347000000000000197,1.761988131460887175
0.348000000000000198,1.690113975656009071
0.349000000000000199,1.619251639771783546
0.350000000000000200,1.549391860220994843
0.351000000000000201,1.480525948407127590
0.352000000000000202,1.412645739224969832
0.353000000000000203,1.345743542087200373
0.354000000000000203,1.279812094427837277
0.355000000000000204,1.214844517629985132
0.356000000000000205,1.150834275322110356
0.357000000000000206,1.087775133984422826
0.358000000000000207,1.025661125804881113
0.359000000000000208,0.964486513722202288
0.360000000000000209,0.904245758591742943
0.361000000000000210,0.844933488409110089
0.362000000000000210,0.786544469525068846
0.363000000000000211,0.729073579784996872
0.364000000000000212,0.672515783525456157
0.365000000000000213,0.616866108360471954
0.366000000000000214,0.562119623690048642
0.367000000000000215,0.508271420863777190
0.368000000000000216,0.455316594932635321
0.369000000000000217,0.403250227922986038
0.370000000000000218,0.352067373567125641
0.371000000000000218,0.301763043425989474
0.372000000000000219,0.252332194340285421
0.373000000000000220,0.203769717147611301
0.374000000000000221,0.156070426604264151
0.375000000000000222,0.109229052451784450
0.376000000000000223,0.063240231569373778
0.377000000000000224,0.018098501155130276
0.378000000000000225,-0.026201707119843577
0.379000000000000226,-0.069666072038653451
0.380000000000000226,-0.112300386900011429
0.381000000000000227,-0.154110562764868314
0.382000000000000228,-0.195102630937971588
0.383000000000000229,-0.235282744732274285
0.384000000000000230,-0.274657180562525860
0.385000000000000231,-0.313232338412899547
0.386000000000000232,-0.351014741721605295
0.387000000000000233,-0.388011036724181246
0.388000000000000234,-0.424227991295195950
0.389000000000000234,-0.459672493326825471
0.390000000000000235,-0.494351548680955766
0.391000000000000236,-0.528272278750053337
0.392000000000000237,-0.561441917660475576
0.393000000000000238,-0.593867809150384174
0.394000000000000239,-0.625557403152968372
0.395000000000000240,-0.656518252114240197
0.396000000000000241,-0.686758007073262511
0.397000000000000242,-0.716284413531263930
0.398000000000000242,-0.745105307134816708
0.399000000000000243,-0.773228609196823902
0.400000000000000244,-0.800662322077968502
0.401000000000000245,-0.827414524449913147
0.402000000000000246,-0.853493366460286063
0.403000000000000247,-0.878907064818591266
0.404000000000000248,-0.903663897820724649
0.405000000000000249,-0.927772200328973673
0.406000000000000250,-0.951240358723116186
0.407000000000000250,-0.974076805837410520
0.408000000000000251,-0.996290015897165260
0.409000000000000252,-1.017888499467678454
0.410000000000000253,-1.038880798427500363
0.411000000000000254,-1.059275480977000861
0.412000000000000255,-1.079081136692466636
0.413000000000000256,-1.098306371635229040
0.414000000000000257,-1.116959803524320227
0.415000000000000258,-1.135050056980817290
0.416000000000000258,-1.152585758850906306
0.417000000000000259,-1.169575533614432006
0.418000000000000260,-1.186027998884781720
0.419000000000000261,-1.201951761005552566
0.420000000000000262,-1.217355410748721667
0.421000000000000263,-1.232247519118681911
0.422000000000000264,-1.246636633265773009
0.423000000000000265,-1.260531272512675161
0.424000000000000266,-1.273939924496454656
0.425000000000000266,-1.286871041428579998
0.426000000000000267,-1.299333036474968894
0.427000000000000268,-1.311334280257596463
0.428000000000000269,-1.322883097478900316
0.429000000000000270,-1.333987763669905791
0.430000000000000271,-1.344656502062584469
0.431000000000000272,-1.354897480586802816
0.432000000000000273,-1.364718808991761900
0.433000000000000274,-1.374128536091765440
0.434000000000000274,-1.383134647135750850
0.435000000000000275,-1.391745061299874520
0.436000000000000276,-1.399967629302254712
0.437000000000000277,-1.407810131138690135
0.438000000000000278,-1.415280273938121391
0.439000000000000279,-1.422385689936346287
0.440000000000000280,-1.429133934566378716
0.441000000000000281,-1.435532484663714969
0.442000000000000282,-1.441588736784700897
0.443000000000000282,-1.447310005635907615
0.444000000000000283,-1.452703522612593057
0.445000000000000284,-1.457776434443977420
0.446000000000000285,-1.462535801943123603
0.447000000000000286,-1.466988598859191750
0.448000000000000287,-1.471141710829565019
0.449000000000000288,-1.475001934429581052
0.450000000000000289,-1.478575976317285434
0.451000000000000290,-1.481870452470773980
0.452000000000000290,-1.484891887515630060
0.453000000000000291,-1.487646714139820192
0.454000000000000292,-1.490141272593583643
0.455000000000000293,-1.492381810271684150
0.456000000000000294,-1.494374481375466024
0.457000000000000295,-1.496125346652188215
0.458000000000000296,-1.497640373208961595
0.459000000000000297,-1.498925434398864720
0.460000000000000298,-1.499986309776579985
0.461000000000000298,-1.500828685121113226
0.462000000000000299,-1.501458152523043710
0.463000000000000300,-1.501880210533817372
0.464000000000000301,-1.502100264374694794
0.465000000000000302,-1.502123626202875428
0.466000000000000303,-1.501955515432416011
0.467000000000000304,-1.501601059107645852
0.468000000000000305,-1.501065292326683620
0.469000000000000306,-1.500353158712832702
0.470000000000000306,-1.499469510931653593
0.471000000000000307,-1.498419111251400482
0.472000000000000308,-1.497206632144808314
0.473000000000000309,-1.495836656930051412
0.474000000000000310,-1.494313680448817294
0.475000000000000311,-1.492642109779507731
0.476000000000000312,-1.490826264983583505
0.477000000000000313,-1.488870379883154849
0.478000000000000314,-1.486778602867889543
0.479000000000000314,-1.484554997729516268
0.480000000000000315,-1.482203544522030736
0.481000000000000316,-1.479728140445995210
0.482000000000000317,-1.477132600755143965
0.483000000000000318,-1.474420659683758128
0.484000000000000319,-1.471595971393173219
0.485000000000000320,-1.468662110935897491
0.486000000000000321,-1.465622575235883129
0.487000000000000322,-1.462480784083480145
0.488000000000000322,-1.459240081143668544
0.489000000000000323,-1.455903734976295327
0.490000000000000324,-1.452474940066942555
0.491000000000000325,-1.448956817867213420
0.492000000000000326,-1.445352417843194015
0.493000000000000327,-1.441664718530992539
0.494000000000000328,-1.437896628598145377
0.495000000000000329,-1.434050987909895936
0.496000000000000330,-1.430130568599234042
0.497000000000000330,-1.426138076139797262
0.498000000000000331,-1.422076150420533036
0.499000000000000332,-1.417947366821379118
0.500000000000000333,-1.413754237288970428
0.501000000000000334,-1.409499211411528119
0.502000000000000335,-1.405184677492223866
0.503000000000000336,-1.400812963620154949
0.504000000000000337,-1.396386338738264232
0.505000000000000338,-1.391907013707468277
0.506000000000000338,-1.387377142366368998
0.507000000000000339,-1.382798822585897147
0.508000000000000340,-1.378174097318262792
0.509000000000000341,-1.373504955639757386
0.510000000000000342,-1.368793333786702870
0.511000000000000343,-1.364041116184217639
0.512000000000000344,-1.359250136467170522
0.513000000000000345,-1.354422178492975304
0.514000000000000346,-1.349558977345789668
0.515000000000000346,-1.344662220331652502
0.516000000000000347,-1.339733547964259808
0.517000000000000348,-1.334774554941039693
0.518000000000000349,-1.329786791109118349
0.519000000000000350,-1.324771762420981158
0.520000000000000351,-1.319730931879457891
0.521000000000000352,-1.314665720471874133
0.522000000000000353,-1.309577508093020537
0.523000000000000353,-1.304467634456809799
0.524000000000000354,-1.299337399996409737
0.525000000000000355,-1.294188066752627542
0.526000000000000356,-1.289020859250430640
0.527000000000000357,-1.283836965363458038
0.528000000000000358,-1.278637537166359639
0.529000000000000359,-1.273423691774909550
0.530000000000000360,-1.268196512173718205
0.531000000000000361,-1.262957048031548624
0.532000000000000361,-1.257706316504105803
0.533000000000000362,-1.252445303024271261
0.534000000000000363,-1.247174962079731442
0.535000000000000364,-1.241896217977991324
0.536000000000000365,-1.236609965598713723
0.537000000000000366,-1.231317071133439356
0.538000000000000367,-1.226018372812600621
0.539000000000000368,-1.220714681619976094
0.540000000000000369,-1.215406781994446961
0.541000000000000369,-1.210095432519260772
0.542000000000000370,-1.204781366598673520
0.543000000000000371,-1.199465293122168985
0.544000000000000372,-1.194147897116211166
0.545000000000000373,-1.188829840383653913
0.546000000000000374,-1.183511762130844858
0.547000000000000375,-1.178194279582513326
0.548000000000000376,-1.172877988584549058
0.549000000000000377,-1.167563464194725453
0.550000000000000377,-1.162251261261499469
0.551000000000000378,-1.156941914990943898
0.552000000000000379,-1.151635941501990557
0.553000000000000380,-1.146333838370019231
0.554000000000000381,-1.141036085158936952
0.555000000000000382,-1.135743143941920996
0.556000000000000383,-1.130455459810823182
0.557000000000000384,-1.125173461374511907
0.558000000000000385,-1.119897561246146811
0.559000000000000385,-1.114628156519615221
0.560000000000000386,-1.109365629235215422
0.561000000000000387,-1.104110346834738188
0.562000000000000388,-1.098862662606061802
0.563000000000000389,-1.093622916117475752
0.564000000000000390,-1.088391433641765493
0.565000000000000391,-1.083168528570296330
0.566000000000000392,-1.077954501817189215
0.567000000000000393,-1.072749642213773669
0.568000000000000393,-1.067554226893411062
0.569000000000000394,-1.062368521666894772
0.570000000000000395,-1.057192781388550884
0.571000000000000396,-1.052027250313159579
0.572000000000000397,-1.046872162443921672
0.573000000000000398,-1.041727741871530721
0.574000000000000399,-1.036594203104581613
0.575000000000000400,-1.031471751391395797
0.576000000000000401,-1.026360583033449903
0.577000000000000401,-1.021260885690594922
0.578000000000000402,-1.016172838678111479
0.579000000000000403,-1.011096613255832111
0.580000000000000404,-1.006032372909490658
0.581000000000000405,-1.000980273624348049
0.582000000000000406,-0.995940464151366278
0.583000000000000407,-0.990913086265956644
0.584000000000000408,-0.985898275019550296
0.585000000000000409,-0.980896158984059907
0.586000000000000409,-0.975906860489399675
0.587000000000000410,-0.970930495854232634
0.588000000000000411,-0.965967175610014550
0.589000000000000412,-0.961017004718577761
0.590000000000000413,-0.956080082783264729
0.591000000000000414,-0.951156504253855895
0.592000000000000415,-0.946246358625386086
0.593000000000000416,-0.941349730630943626
0.594000000000000417,-0.936466700428643994
0.595000000000000417,-0.931597343782905818
0.596000000000000418,-0.926741732240068727
0.597000000000000419,-0.921899933298621077
0.598000000000000420,-0.917072010574023211
0.599000000000000421,-0.912258023958356423
0.600000000000000422,-0.907458029774856234
0.601000000000000423,-0.902672080927456655
0.602000000000000424,-0.897900227045504096
0.603000000000000425,-0.893142514623716521
0.604000000000000425,-0.888398987157500430
0.605000000000000426,-0.883669685273764549
0.606000000000000427,-0.878954646857362576
0.607000000000000428,-0.874253907173144440
0.608000000000000429,-0.869567498983963127
0.609000000000000430,-0.864895452664449893
0.610000000000000431,-0.860237796310936886
0.611000000000000432,-0.855594555847433824
0.612000000000000433,-0.850965755127833567
0.613000000000000433,-0.846351416034483606
0.614000000000000434,-0.841751558573144876
