# Montmorillonite-001-NaCEC108_BSAI22
# h[nm],U(h)[kJ/mol]
0.149999999999999994,136.000694188868436640
0.150999999999999995,134.197361390175160523
0.151999999999999996,132.549589829032413490
0.152999999999999997,130.865394717487959042
0.153999999999999998,129.110247887145732193
0.154999999999999999,127.310050981919147262
0.156000000000000000,125.503433786059645172
0.157000000000000001,123.721586928955986195
0.158000000000000002,121.982495903092370781
0.159000000000000002,120.291930738113293842
0.160000000000000003,118.646952457197315312
0.161000000000000004,117.039756766748567429
0.162000000000000005,115.460876199635734451
0.163000000000000006,113.901426725352166613
0.164000000000000007,112.354423797592659184
0.165000000000000008,110.815340697938196968
0.166000000000000009,109.282123598293566147
0.167000000000000010,107.754864948264597047
0.168000000000000010,106.235300347287378031
0.169000000000000011,104.726251293216932936
0.170000000000000012,103.231096093366005562
0.171000000000000013,101.753317774615425151
0.172000000000000014,100.296152174844905858
0.173000000000000015,98.862341159287794312
0.174000000000000016,97.453983998809860623
0.175000000000000017,96.072473059185540478
0.176000000000000018,94.718496797957996591
0.177000000000000018,93.392092522442311520
0.178000000000000019,92.092732508103651412
0.179000000000000020,90.819429198712811058
0.180000000000000021,89.570847785002456476
0.181000000000000022,88.345417122878387772
0.182000000000000023,87.141432468831823144
0.183000000000000024,85.957145739712956356
0.184000000000000025,84.790840878485965959
0.185000000000000026,83.640893408861117564
0.186000000000000026,82.505814404492781478
0.187000000000000027,81.384279917310706765
0.188000000000000028,80.275147449440368064
0.189000000000000029,79.177461362628505981
0.190000000000000030,78.090449245848617466
0.191000000000000031,77.013511249879769593
0.192000000000000032,75.946204285989182381
0.193000000000000033,74.888222807361927380
0.194000000000000034,73.839377673613185493
0.195000000000000034,72.799574361951556511
0.196000000000000035,71.768791549598091706
0.197000000000000036,70.747060862755006383
0.198000000000000037,69.734448375867742698
0.199000000000000038,68.731038256207014570
0.200000000000000039,67.736918785572228785
0.201000000000000040,66.752170853982249810
0.202000000000000041,65.776858909013455445
0.203000000000000042,64.811024257440550400
0.204000000000000042,63.854680550876608436
0.205000000000000043,62.907811241676014902
0.206000000000000044,61.970368766776502412
0.207000000000000045,61.042275202729378236
0.208000000000000046,60.123424132318803004
0.209000000000000047,59.213683469502541357
0.210000000000000048,58.312899002743300514
0.211000000000000049,57.420898435224742684
0.212000000000000050,56.537495722298714895
0.213000000000000050,55.662495530391467469
0.214000000000000051,54.795697666349063581
0.215000000000000052,53.936901350897002771
0.216000000000000053,53.085909233799213780
0.217000000000000054,52.242531070883352129
0.218000000000000055,51.406587003960886761
0.219000000000000056,50.577910403560181862
0.220000000000000057,49.756350251156661102
0.221000000000000058,48.941773052179080139
0.222000000000000058,48.134064283504109483
0.223000000000000059,47.333129389501294781
0.224000000000000060,46.538894349067916778
0.225000000000000061,45.751305842642935318
0.226000000000000062,44.970331053072527538
0.227000000000000063,44.195957137591811659
0.228000000000000064,43.428190410263994181
0.229000000000000065,42.667055275154112337
0.230000000000000066,41.912592950482881804
0.231000000000000066,41.164860023163882374
0.232000000000000067,40.423926871628616198
0.233000000000000068,39.689875992822607031
0.234000000000000069,38.962800266839735741
0.235000000000000070,38.242801189959820363
0.236000000000000071,37.529987103964984385
0.237000000000000072,36.824471446616449555
0.238000000000000073,36.126371045149447525
0.239000000000000073,35.435804471648125968
0.240000000000000074,34.752890476244076012
0.241000000000000075,34.077746511284075837
0.242000000000000076,33.410487356961745320
0.243000000000000077,32.751223856430520698
0.244000000000000078,32.100061766125648433
0.245000000000000079,31.457100724932153923
0.246000000000000080,30.822433343949803941
0.247000000000000081,30.196144416922493292
0.248000000000000081,29.578310249920370723
0.249000000000000082,28.968998107578546097
0.250000000000000111,28.368265772100393463
0.251000000000000112,27.776161210316566041
0.252000000000000113,27.192722343340214763
0.253000000000000114,26.617976912765620057
0.254000000000000115,26.051942436904944600
0.255000000000000115,25.494626250237370613
0.256000000000000116,24.946025619040057109
0.257000000000000117,24.406127926071413015
0.258000000000000118,23.874910917170332425
0.259000000000000119,23.352343002708654041
0.260000000000000120,22.838383606976869089
0.261000000000000121,22.332983558785961975
0.262000000000000122,21.836085516818489083
0.263000000000000123,21.347624423553948958
0.264000000000000123,20.867527981915841906
0.265000000000000124,20.395717149134799939
0.266000000000000125,19.932106642686392206
0.267000000000000126,19.476605453537903401
0.268000000000000127,19.029117362318430651
0.269000000000000128,18.589541454410081656
0.270000000000000129,18.157772630336026509
0.271000000000000130,17.733702108193750036
0.272000000000000131,17.317217915244619064
0.273000000000000131,16.908205366121134006
0.274000000000000132,16.506547525449800418
0.275000000000000133,16.112125653007868920
0.276000000000000134,15.724819629835584678
0.277000000000000135,15.344508364011877788
0.278000000000000136,14.971070175067399788
0.279000000000000137,14.604383156257819465
0.280000000000000138,14.244325514149542400
0.281000000000000139,13.890775885179866833
0.282000000000000139,13.543613629046143743
0.283000000000000140,13.202719098951714471
0.284000000000000141,12.867973888892782597
0.285000000000000142,12.539261058309401520
0.286000000000000143,12.216465334546597887
0.287000000000000144,11.899473293679340813
0.288000000000000145,11.588173520347240242
0.289000000000000146,11.282456747324797419
0.290000000000000147,10.982215975618007775
0.291000000000000147,10.687346575933194259
0.292000000000000148,10.397746372406034610
0.293000000000000149,10.113315709511951468
0.294000000000000150,9.833957503101967035
0.295000000000000151,9.559577276522814415
0.296000000000000152,9.290083182786883498
0.297000000000000153,9.025386013757634274
0.298000000000000154,8.765399197309315937
0.299000000000000155,8.510038783408168328
0.300000000000000155,8.259223420045129771
0.301000000000000156,8.012874319929228051
0.302000000000000157,7.770915218825470205
0.303000000000000158,7.533272326393714025
0.304000000000000159,7.299874270353841510
0.305000000000000160,7.070652034770167127
0.306000000000000161,6.845538893213491960
0.307000000000000162,6.624470337523275631
0.308000000000000163,6.407384002855950555
0.309000000000000163,6.194219589667958381
0.310000000000000164,5.984918783244364882
0.311000000000000165,5.779425171346407097
0.312000000000000166,5.577684160513628697
0.313000000000000167,5.379642891519297976
0.314000000000000168,5.185250154441237491
0.315000000000000169,4.994456303774411410
0.316000000000000170,4.807213173976697007
0.317000000000000171,4.623473995805506220
0.318000000000000171,4.443193313770089858
0.319000000000000172,4.266326904992661539
0.320000000000000173,4.092831699741322105
0.321000000000000174,3.922665703868714271
0.322000000000000175,3.755787923362478686
0.323000000000000176,3.592158291187481645
0.324000000000000177,3.431737596574683469
0.325000000000000178,3.274487416888141045
0.326000000000000179,3.120370052179184395
0.327000000000000179,2.969348462516349318
0.328000000000000180,2.821386208159938569
0.329000000000000181,2.676447392632069544
0.330000000000000182,2.534496608716285238
0.331000000000000183,2.395498887405076882
0.332000000000000184,2.259419649799549124
0.333000000000000185,2.126224661952186068
0.334000000000000186,1.995879992631643729
0.335000000000000187,1.868351973977706137
0.336000000000000187,1.743607165004481319
0.337000000000000188,1.621612317901403255
0.338000000000000189,1.502334347073315923
0.339000000000000190,1.385740300854098717
0.340000000000000191,1.271797335822335562
0.341000000000000192,1.160472693641867448
0.342000000000000193,1.051733680345765531
0.343000000000000194,0.945547647978231209
0.344000000000000195,0.841881978506109463
0.345000000000000195,0.740704069908532547
0.346000000000000196,0.641981324351989291
0.347000000000000197,0.545681138356078788
0.348000000000000198,0.451770894854637173
0.349000000000000199,0.360217957056362448
0.350000000000000200,0.270989664008936093
0.351000000000000201,0.184053327771125902
0.352000000000000202,0.099376232097989986
0.353000000000000203,0.016925632545252346
0.354000000000000203,-0.063331242099722920
0.355000000000000204,-0.141427187151284356
0.356000000000000205,-0.217395018212482138
0.357000000000000206,-0.291267566303033576
0.358000000000000207,-0.363077672013116914
0.359000000000000208,-0.432858178765943236
0.360000000000000209,-0.500641925269426968
0.361000000000000210,-0.566461737234561835
0.362000000000000210,-0.630350418435802196
0.363000000000000211,-0.692340741185685116
0.364000000000000212,-0.752465436293390799
0.365000000000000213,-0.810757182573981661
0.366000000000000214,-0.867248595972267666
0.367000000000000215,-0.921972218362328122
0.368000000000000216,-0.974960506081011813
0.369000000000000217,-1.026245818250570263
0.370000000000000218,-1.075860404943138393
0.371000000000000218,-1.123836395236558428
0.372000000000000219,-1.170205785208605631
0.373000000000000220,-1.215000425913749904
0.374000000000000221,-1.258252011383949931
0.375000000000000222,-1.299992066692232218
0.376000000000000223,-1.340251936115600895
0.377000000000000224,-1.379062771430787482
0.378000000000000225,-1.416455520374359622
0.379000000000000226,-1.452460915296023503
0.380000000000000226,-1.487109462031968032
0.381000000000000227,-1.520431429022490510
0.382000000000000228,-1.552456836696376019
0.383000000000000229,-1.583215447142206189
0.384000000000000230,-1.612736754084791668
0.385000000000000231,-1.641049973183209998
0.386000000000000232,-1.668184032664785432
0.387000000000000233,-1.694167564307974327
0.388000000000000234,-1.719028894785024963
0.389000000000000234,-1.742796037374134244
0.390000000000000235,-1.765496684048922349
0.391000000000000236,-1.787158197951888905
0.392000000000000237,-1.807807606256956579
0.393000000000000238,-1.827471593425099128
0.394000000000000239,-1.846176494855615413
0.395000000000000240,-1.863948290934741125
0.396000000000000241,-1.880812601481947510
0.397000000000000242,-1.896794680593431037
0.398000000000000242,-1.911919411881357389
0.399000000000000243,-1.926211304106396183
0.400000000000000244,-1.939694487200465556
0.401000000000000245,-1.952392708675751321
0.402000000000000246,-1.964329330415231611
0.403000000000000247,-1.975527325839615544
0.404000000000000248,-1.986009277444696908
0.405000000000000249,-1.995797374702740212
0.406000000000000250,-2.004913412320996624
0.407000000000000250,-2.013378788850002543
0.408000000000000251,-2.021214505633907699
0.409000000000000252,-2.028441166094714365
0.410000000000000253,-2.035078975342016427
0.411000000000000254,-2.041147740099539476
0.412000000000000255,-2.046666868939491124
0.413000000000000256,-2.051655372815683442
0.414000000000000257,-2.056131865885947541
0.415000000000000258,-2.060114566614564602
0.416000000000000258,-2.063621299144944299
0.417000000000000259,-2.066669494933087936
0.418000000000000260,-2.069276194631960220
0.419000000000000261,-2.071458050217146685
0.420000000000000262,-2.073231327343953545
0.421000000000000263,-2.074611907926295462
0.422000000000000264,-2.075615292927573741
0.423000000000000265,-2.076256605353929530
0.424000000000000266,-2.076550593440351200
0.425000000000000266,-2.076511634019974295
0.426000000000000267,-2.076153736067344546
0.427000000000000268,-2.075490544406238147
0.428000000000000269,-2.074535343572901258
0.429000000000000270,-2.073301061825751912
0.430000000000000271,-2.071800275292537297
0.431000000000000272,-2.070045212246362176
0.432000000000000273,-2.068047757501941142
0.433000000000000274,-2.065819456923737807
0.434000000000000274,-2.063371522037766859
0.435000000000000275,-2.060714834739067136
0.436000000000000276,-2.057859952087016442
0.437000000000000277,-2.054817111180830214
0.438000000000000278,-2.051596234107863737
0.439000000000000279,-2.048206932957465032
0.440000000000000280,-2.044658514893350265
0.441000000000000281,-2.040959987277684906
0.442000000000000282,-2.037120062840323431
0.443000000000000282,-2.033147164886683900
0.444000000000000283,-2.029049432538213349
0.445000000000000284,-2.024834725999364871
0.446000000000000285,-2.020510631845300331
0.447000000000000286,-2.016084468324892853
0.448000000000000287,-2.011563290673463289
0.449000000000000288,-2.006953896430300865
0.450000000000000289,-2.002262830755855205
0.451000000000000290,-1.997496391743933675
0.452000000000000290,-1.992660635724377682
0.453000000000000291,-1.987761382551736844
0.454000000000000292,-1.982804220875933554
0.455000000000000293,-1.977794513390822129
0.456000000000000294,-1.972737402056906619
0.457000000000000295,-1.967637813294633276
0.458000000000000296,-1.962500463144756679
0.459000000000000297,-1.957329862392622744
0.460000000000000298,-1.952130321653211098
0.461000000000000298,-1.946905956414088479
0.462000000000000299,-1.941660692033496449
0.463000000000000300,-1.936398268690968205
0.464000000000000301,-1.931122246288116129
0.465000000000000302,-1.925836009297251294
0.466000000000000303,-1.920542771555713513
0.467000000000000304,-1.915245581003979680
0.468000000000000305,-1.909947324365640187
0.469000000000000306,-1.904650731767564498
0.470000000000000306,-1.899358381298734910
0.471000000000000307,-1.894072703506177957
0.472000000000000308,-1.888795985826781543
0.473000000000000309,-1.883530376953753471
0.474000000000000310,-1.878277891136613587
0.475000000000000311,-1.873040412413751410
0.476000000000000312,-1.867819698776718385
0.477000000000000313,-1.862617386265426944
0.478000000000000314,-1.857434992993608258
0.479000000000000314,-1.852273923104001740
0.480000000000000315,-1.847135470652713662
0.481000000000000316,-1.842020823422452436
0.482000000000000317,-1.836931066664233114
0.483000000000000318,-1.831867186767410116
0.484000000000000319,-1.826830074857841879
0.485000000000000320,-1.821820530324132381
0.486000000000000321,-1.816839264271951304
0.487000000000000322,-1.811886902906508112
0.488000000000000322,-1.806963990843233336
0.489000000000000323,-1.802070994347019894
0.490000000000000324,-1.797208304500098608
0.491000000000000325,-1.792376240298982237
0.492000000000000326,-1.787575051680751148
0.493000000000000327,-1.782804922479168441
0.494000000000000328,-1.778065973311007131
0.495000000000000329,-1.773358264393144257
0.496000000000000330,-1.768681798290911988
0.497000000000000330,-1.764036522598387391
0.498000000000000331,-1.759422332551057622
0.499000000000000332,-1.754839073571732744
0.500000000000000333,-1.750286543750249724
0.501000000000000334,-1.745764496257673715
0.502000000000000335,-1.741272641695857271
0.503000000000000336,-1.736810650383001420
0.504000000000000337,-1.732378154576097673
0.505000000000000338,-1.727974750631010581
0.506000000000000338,-1.723600001101085244
0.507000000000000339,-1.719253436775093791
0.508000000000000340,-1.714934558655390351
0.509000000000000341,-1.710642839877238419
0.510000000000000342,-1.706377727570068004
0.511000000000000343,-1.702138644661738809
0.512000000000000344,-1.697924991626580393
0.513000000000000345,-1.693736148178233147
0.514000000000000346,-1.689571474908239113
0.515000000000000346,-1.685430314871245727
0.516000000000000347,-1.681311995117830138
0.517000000000000348,-1.677215828175931067
0.518000000000000349,-1.673141113481753095
0.519000000000000350,-1.669087138761206734
0.520000000000000351,-1.665053181362735391
0.521000000000000352,-1.661038509542630992
0.522000000000000353,-1.657042383703641208
0.523000000000000353,-1.653064057587946278
0.524000000000000354,-1.649102779425410059
0.525000000000000355,-1.645157793038068972
0.526000000000000356,-1.641228338901777217
0.527000000000000357,-1.637313655166030113
0.528000000000000358,-1.633412978632787116
0.529000000000000359,-1.629525545695361899
0.530000000000000360,-1.625650593238156416
0.531000000000000361,-1.621787359498297221
0.532000000000000361,-1.617935084889982722
0.533000000000000362,-1.614093012792496395
0.534000000000000363,-1.610260390302745703
0.535000000000000364,-1.606436468953253538
0.536000000000000365,-1.602620505396416872
0.537000000000000366,-1.598811762055968089
0.538000000000000367,-1.595009507746394828
0.539000000000000368,-1.591213018261305567
0.540000000000000369,-1.587421576931401734
0.541000000000000369,-1.583634475153048005
0.542000000000000370,-1.579851012888090711
0.543000000000000371,-1.576070499135866054
0.544000000000000372,-1.572292252378076016
0.545000000000000373,-1.568515600997385517
0.546000000000000374,-1.564739883670451359
0.547000000000000375,-1.560964449736136794
0.548000000000000376,-1.557188659539718856
0.549000000000000377,-1.553411884753701511
0.550000000000000377,-1.549633508676063531
0.551000000000000378,-1.545852926506546599
0.552000000000000379,-1.542069545601744140
0.553000000000000380,-1.538282785709633504
0.554000000000000381,-1.534492079184191393
0.555000000000000382,-1.530696871180838636
0.556000000000000383,-1.526896619833203683
0.557000000000000384,-1.523090796411996628
0.558000000000000385,-1.519278885466456508
0.559000000000000385,-1.515460384949093298
0.560000000000000386,-1.511634806324237079
0.561000000000000387,-1.507801674661008340
0.562000000000000388,-1.503960528711234979
0.563000000000000389,-1.500110920972946627
0.564000000000000390,-1.496252417739877716
0.565000000000000391,-1.492384599137600798
0.566000000000000392,-1.488507059146739975
0.567000000000000393,-1.484619405613840648
0.568000000000000393,-1.480721260250287052
0.569000000000000394,-1.476812258619841778
0.570000000000000395,-1.472892050115242712
0.571000000000000396,-1.468960297924271963
0.572000000000000397,-1.465016678985842535
0.573000000000000398,-1.461060883936420085
0.574000000000000399,-1.457092617047307526
0.575000000000000400,-1.453111596153132457
0.576000000000000401,-1.449117552571963952
0.577000000000000401,-1.445110231017500801
0.578000000000000402,-1.441089389503620533
0.579000000000000403,-1.437054799241703984
0.580000000000000404,-1.433006244531166207
0.581000000000000405,-1.428943522643393083
0.582000000000000406,-1.424866443699585483
0.583000000000000407,-1.420774830542722800
0.584000000000000408,-1.416668518604043969
0.585000000000000409,-1.412547355764317558
0.586000000000000409,-1.408411202210220203
0.587000000000000410,-1.404259930286141378
0.588000000000000411,-1.400093424341624537
0.589000000000000412,-1.395911580574848987
0.590000000000000413,-1.391714306872277707
0.591000000000000414,-1.387501522644851937
0.592000000000000415,-1.383273158660923485
0.593000000000000416,-1.379029156876164119
0.594000000000000417,-1.374769470260724935
0.595000000000000417,-1.370494062623883069
0.596000000000000418,-1.366202908436302099
0.597000000000000419,-1.361895992650279164
0.598000000000000420,-1.357573310518016552
0.599000000000000421,-1.353234867408262376
0.600000000000000422,-1.348880678621414475
0.601000000000000423,-1.344510769203312472
0.602000000000000424,-1.340125173757910515
0.603000000000000425,-1.335723936258990552
0.604000000000000425,-1.331307109861050275
0.605000000000000426,-1.326874756709590653
0.606000000000000427,-1.322426947750937165
0.607000000000000428,-1.317963762541649153
0.608000000000000429,-1.313485289057882088
0.609000000000000430,-1.308991623504547563
0.610000000000000431,-1.304482870124685556
0.611000000000000432,-1.299959141008977470
0.612000000000000433,-1.295420555905589133
0.613000000000000433,-1.290867242030509177
