# Montmorillonite-001-NaCEC108_GLN-AC
# h[nm],U(h)[kJ/mol]
0.149999999999999994,137.643666674114797388
0.150999999999999995,135.492985810030802440
0.151999999999999996,133.789229402053621243
0.152999999999999997,132.151867382291243302
0.153999999999999998,130.456019168619349102
0.154999999999999999,128.692306832321747834
0.156000000000000000,126.892471318865688090
0.157000000000000001,125.093382753260357276
0.158000000000000002,123.322451531409299719
0.159000000000000002,121.594165604365528566
0.160000000000000003,119.911758532564434176
0.161000000000000004,118.270682354044680551
0.162000000000000005,116.662180492328232617
0.163000000000000006,115.076205336863523598
0.164000000000000007,113.503452659052186391
0.165000000000000008,111.936554484508718588
0.166000000000000009,110.370589169774845573
0.167000000000000010,108.803099191654126798
0.168000000000000010,107.233794910721911720
0.169000000000000011,105.664091016279741098
0.170000000000000012,104.096585544287563607
0.171000000000000013,102.534556673133010918
0.172000000000000014,100.981523303246731871
0.173000000000000015,99.440892737409100732
0.174000000000000016,97.915702356310902132
0.175000000000000017,96.408451180938953939
0.176000000000000018,94.921010568008640007
0.177000000000000018,93.454599939490393012
0.178000000000000019,92.009812459378196081
0.179000000000000020,90.586676156924212933
0.180000000000000021,89.184737539375731785
0.181000000000000022,87.803156776913141357
0.182000000000000023,86.440805748611609260
0.183000000000000024,85.096362389260306713
0.184000000000000025,83.768396735203012327
0.185000000000000026,82.455445758263223865
0.186000000000000026,81.156075470590224086
0.187000000000000027,79.868929880894654616
0.188000000000000028,78.592767204620571420
0.189000000000000029,77.326484308918693955
0.190000000000000030,76.069130744846503944
0.191000000000000031,74.819913922030167441
0.192000000000000032,73.578197051364298886
0.193000000000000033,72.343491452086965410
0.194000000000000034,71.115444719398027473
0.195000000000000034,69.893826101772361881
0.196000000000000035,68.678510262867547453
0.197000000000000036,67.469460416869452501
0.198000000000000037,66.266711639967823544
0.199000000000000038,65.070354982896617457
0.200000000000000039,63.880522845901438700
0.201000000000000040,62.697375931698317686
0.202000000000000041,61.521091965817809921
0.203000000000000042,60.351856267692916447
0.204000000000000042,59.189854169477406742
0.205000000000000043,58.035265211698025212
0.206000000000000044,56.888258993820478793
0.207000000000000045,55.748992521751006279
0.208000000000000046,54.617608871187997011
0.209000000000000047,53.494236973561626769
0.210000000000000048,52.378992328108303411
0.211000000000000049,51.271978447609306784
0.212000000000000050,50.173288854822615690
0.213000000000000050,49.083009460200834440
0.214000000000000051,48.001221167834998482
0.215000000000000052,46.928002574619114284
0.216000000000000053,45.863432646493563993
0.217000000000000054,44.807593274568361608
0.218000000000000055,43.760571632371757289
0.219000000000000056,42.722462272983889875
0.220000000000000057,41.693368921070110389
0.221000000000000058,40.673405929620088273
0.222000000000000058,39.662699384383259371
0.223000000000000059,38.661387850521251153
0.224000000000000060,37.669622765861348057
0.225000000000000061,36.687568493381924384
0.226000000000000062,35.715402052262618326
0.227000000000000063,34.753312552093447607
0.228000000000000064,33.801500358776912947
0.229000000000000065,32.860176023400399004
0.230000000000000066,31.929559007043042840
0.231000000000000066,31.009876235239108411
0.232000000000000067,30.101360515786097949
0.233000000000000068,29.204248852882198406
0.234000000000000069,28.318780689324238864
0.235000000000000070,27.445196106804377933
0.236000000000000071,26.583734012310486605
0.237000000000000072,25.734630336350797108
0.238000000000000073,24.898116266270360342
0.239000000000000073,24.074416535374218995
0.240000000000000074,23.263747785976718774
0.241000000000000075,22.466317021916996310
0.242000000000000076,21.682320163552549985
0.243000000000000077,20.911940715805112490
0.244000000000000078,20.155348557512688501
0.245000000000000079,19.412698858159394888
0.246000000000000080,18.684131126027590852
0.247000000000000081,17.969768389953159726
0.248000000000000081,17.269716515173364257
0.249000000000000082,16.584063652239173337
0.250000000000000111,15.912879816618646700
0.251000000000000112,15.256216595443632400
0.252000000000000113,14.614106976840748331
0.253000000000000114,13.986565296436697992
0.254000000000000115,13.373587294922913316
0.255000000000000115,12.775150280002030456
0.256000000000000116,12.191213385604909192
0.257000000000000117,11.621717920952466585
0.258000000000000118,11.066587801832612925
0.259000000000000119,10.525730056355325104
0.260000000000000120,9.999035397430473537
0.261000000000000121,9.486378854272782490
0.262000000000000122,8.987620455365490812
0.263000000000000123,8.502605955500978752
0.264000000000000123,8.031167599752867758
0.265000000000000124,7.573124917512576992
0.266000000000000125,7.128285540035852463
0.267000000000000126,6.696446035284691511
0.268000000000000127,6.277392754210040060
0.269000000000000128,5.870902682996814725
0.270000000000000129,5.476744296177428417
0.271000000000000130,5.094678405909805363
0.272000000000000131,4.724459003107203792
0.273000000000000131,4.365834086494604804
0.274000000000000132,4.018546476048753924
0.275000000000000133,3.682334607651791547
0.276000000000000134,3.356933306150614360
0.277000000000000135,3.042074534363827798
0.278000000000000136,2.737488115912170450
0.279000000000000137,2.442902430067829922
0.280000000000000138,2.158045077120566813
0.281000000000000139,1.882643513043344541
0.282000000000000139,1.616425652507974320
0.283000000000000140,1.359120439550483672
0.284000000000000141,1.110458385417627536
0.285000000000000142,0.870172073339425700
0.286000000000000143,0.637996630168721213
0.287000000000000144,0.413670165007758661
0.288000000000000145,0.196934175103257531
0.289000000000000146,-0.012466080561724092
0.290000000000000147,-0.214781239421568682
0.291000000000000147,-0.410257524553576558
0.292000000000000148,-0.599136464200779928
0.293000000000000149,-0.781654640729158912
0.294000000000000150,-0.958043468081683613
0.295000000000000151,-1.128528996728087819
0.296000000000000152,-1.293331745057088700
0.297000000000000153,-1.452666556116102070
0.298000000000000154,-1.606742478571012267
0.299000000000000155,-1.755762670735468989
0.300000000000000155,-1.899924326503560135
0.301000000000000156,-2.039418622012006299
0.302000000000000157,-2.174430681856925673
0.303000000000000158,-2.305139563694976523
0.304000000000000159,-2.431718260069270166
0.305000000000000160,-2.554333716315554614
0.306000000000000161,-2.673146863423925268
0.307000000000000162,-2.788312664754649006
0.308000000000000163,-2.899980175533343640
0.309000000000000163,-3.008292614080299465
0.310000000000000164,-3.113387443760744500
0.311000000000000165,-3.215396464676635535
0.312000000000000166,-3.314445914156318285
0.313000000000000167,-3.410656575135078583
0.314000000000000168,-3.504143891557556234
0.315000000000000169,-3.595018089971437458
0.316000000000000170,-3.683384306520982587
0.317000000000000171,-3.769342718587808783
0.318000000000000171,-3.852988680365646790
0.319000000000000172,-3.934412861694791097
0.320000000000000173,-4.013701389520247353
0.321000000000000174,-4.090935991375734382
0.322000000000000175,-4.166194140333027818
0.323000000000000176,-4.239549200892557046
0.324000000000000177,-4.311070575326982457
0.325000000000000178,-4.380823850023915611
0.326000000000000179,-4.448870941407928825
0.327000000000000179,-4.515270241054232692
0.328000000000000180,-4.580076759637874417
0.329000000000000181,-4.643342269392746857
0.330000000000000182,-4.705115444783213974
0.331000000000000183,-4.765442001119552629
0.332000000000000184,-4.824364830874300125
0.333000000000000185,-4.881924137482367421
0.334000000000000186,-4.938157566431546464
0.335000000000000187,-4.993100333472930252
0.336000000000000187,-5.046785349802482834
0.337000000000000188,-5.099243344084984031
0.338000000000000189,-5.150502981211337428
0.339000000000000190,-5.200590977697912010
0.340000000000000191,-5.249532213653511192
0.341000000000000192,-5.297349841255657665
0.342000000000000193,-5.344065389692405077
0.343000000000000194,-5.389698866539871958
0.344000000000000195,-5.434268855558056721
0.345000000000000195,-5.477792610899959058
0.346000000000000196,-5.520286147739108529
0.347000000000000197,-5.561764329331314372
0.348000000000000198,-5.602240950535216868
0.349000000000000199,-5.641728817824633424
0.350000000000000200,-5.680239825833476530
0.351000000000000201,-5.717785030480665220
0.352000000000000202,-5.754374718728695548
0.353000000000000203,-5.790018475035179080
0.354000000000000203,-5.824725244561432369
0.355000000000000204,-5.858503393206458298
0.356000000000000205,-5.891360764538617900
0.357000000000000206,-5.923304733700539337
0.358000000000000207,-5.954342258365237228
0.359000000000000208,-5.984479926824195495
0.360000000000000209,-6.013724003289843800
0.361000000000000210,-6.042080470496197897
0.362000000000000210,-6.069555069682937010
0.363000000000000211,-6.096153338048580395
0.364000000000000212,-6.121880643759286755
0.365000000000000213,-6.146742218599629659
0.366000000000000214,-6.170743188351922370
0.367000000000000215,-6.193888600990112181
0.368000000000000216,-6.216183452773937468
0.369000000000000217,-6.237632712328055717
0.370000000000000218,-6.258241342790179296
0.371000000000000218,-6.278014322110847978
0.372000000000000219,-6.296956661586566639
0.373000000000000220,-6.315073422706402262
0.374000000000000221,-6.332369732390743522
0.375000000000000222,-6.348850796699219146
0.376000000000000223,-6.364521913083371452
0.377000000000000224,-6.379388481257491250
0.378000000000000225,-6.393456012759549445
0.379000000000000226,-6.406730139272026392
0.380000000000000226,-6.419216619770750754
0.381000000000000227,-6.430921346567546770
0.382000000000000228,-6.441850350310899032
0.383000000000000229,-6.452009804006470617
0.384000000000000230,-6.461406026117455959
0.385000000000000231,-6.470045482802805559
0.386000000000000232,-6.477934789349044209
0.387000000000000233,-6.485080710849683960
0.388000000000000234,-6.491490162183987778
0.389000000000000234,-6.497170207345050130
0.390000000000000235,-6.502128058164943880
0.391000000000000236,-6.506371072483004170
0.392000000000000237,-6.509906751801125324
0.393000000000000238,-6.512742738468340065
0.394000000000000239,-6.514886812434779628
0.395000000000000240,-6.516346887613606143
0.396000000000000241,-6.517131007887511096
0.397000000000000242,-6.517247342794679987
0.398000000000000242,-6.516704182927544942
0.399000000000000243,-6.515509935075762371
0.400000000000000244,-6.513673117143492064
0.401000000000000245,-6.511202352869328358
0.402000000000000246,-6.508106366375706386
0.403000000000000247,-6.504393976573270564
0.404000000000000248,-6.500074091444085767
0.405000000000000249,-6.495155702226379724
0.406000000000000250,-6.489647877521951713
0.407000000000000250,-6.483559757346290198
0.408000000000000251,-6.476900547140127529
0.409000000000000252,-6.469679511759878210
0.410000000000000253,-6.461905969463430210
0.411000000000000254,-6.453589285906476292
0.412000000000000255,-6.444738868163599754
0.413000000000000256,-6.435364158787376887
0.414000000000000257,-6.425474629917528269
0.415000000000000258,-6.415079777451599519
0.416000000000000258,-6.404189115287342915
0.417000000000000259,-6.392812169646477471
0.418000000000000260,-6.380958473488408167
0.419000000000000261,-6.368637561021913918
0.420000000000000262,-6.355858962321920380
0.421000000000000263,-6.342632198057926551
0.422000000000000264,-6.328966774339763290
0.423000000000000265,-6.314872177685948884
0.424000000000000266,-6.300357870119242421
0.425000000000000266,-6.285433284393263875
0.426000000000000267,-6.270107819353777145
0.427000000000000268,-6.254390835437510177
0.428000000000000269,-6.238291650310980430
0.429000000000000270,-6.221819534651406691
0.430000000000000271,-6.204983708071187820
0.431000000000000272,-6.187793335187281585
0.432000000000000273,-6.170257521836123082
0.433000000000000274,-6.152385311434733772
0.434000000000000274,-6.134185681487994479
0.435000000000000275,-6.115667540241991773
0.436000000000000276,-6.096839723482998075
0.437000000000000277,-6.077710991481275471
0.438000000000000278,-6.058290026078813284
0.439000000000000279,-6.038585427919796800
0.440000000000000280,-6.018605713822335446
0.441000000000000281,-5.998359314289908539
0.442000000000000282,-5.977854571160792219
0.443000000000000282,-5.957099735393382112
0.444000000000000283,-5.936102964985518149
0.445000000000000284,-5.914872323025437417
0.446000000000000285,-5.893415775872076878
0.447000000000000286,-5.871741191462346521
0.448000000000000287,-5.849856337742671109
0.449000000000000288,-5.827768881222382902
0.450000000000000289,-5.805486385646053904
0.451000000000000290,-5.783016310782165270
0.452000000000000290,-5.760366011325237956
0.453000000000000291,-5.737542735908531810
0.454000000000000292,-5.714553626224475380
0.455000000000000293,-5.691405716249837710
0.456000000000000294,-5.668105931572730682
0.457000000000000295,-5.644661088818471839
0.458000000000000296,-5.621077895171300298
0.459000000000000297,-5.597362947989013904
0.460000000000000298,-5.573522734507504239
0.461000000000000298,-5.549563631632271843
0.462000000000000299,-5.525491905813948001
0.463000000000000300,-5.501313713004854833
0.464000000000000301,-5.477035098693745496
0.465000000000000302,-5.452661998015825517
0.466000000000000303,-5.428200235935139339
0.467000000000000304,-5.403655527496595390
0.468000000000000305,-5.379033478144735980
0.469000000000000306,-5.354339584106562633
0.470000000000000306,-5.329579232835747860
0.471000000000000307,-5.304757703515400102
0.472000000000000308,-5.279880167616968656
0.473000000000000309,-5.254951689512567192
0.474000000000000310,-5.229977227138225437
0.475000000000000311,-5.204961632705597196
0.476000000000000312,-5.179909653459740859
0.477000000000000313,-5.154825932480497919
0.478000000000000314,-5.129715009525202873
0.479000000000000314,-5.104581321910503178
0.480000000000000315,-5.079429205430960437
0.481000000000000316,-5.054262895312390036
0.482000000000000317,-5.029086527197725864
0.483000000000000318,-5.003904138163461468
0.484000000000000319,-4.978719667764571533
0.485000000000000320,-4.953536959106063620
0.486000000000000321,-4.928359759939219487
0.487000000000000322,-4.903191723780709665
0.488000000000000322,-4.878036411052778298
0.489000000000000323,-4.852897290242854211
0.490000000000000324,-4.827777739080834074
0.491000000000000325,-4.802681045732472676
0.492000000000000326,-4.777610410007280706
0.493000000000000327,-4.752568944579474319
0.494000000000000328,-4.727559676220456808
0.495000000000000329,-4.702585547041502778
0.496000000000000330,-4.677649415745157135
0.497000000000000330,-4.652754058884244870
0.498000000000000331,-4.627902172126972857
0.499000000000000332,-4.603096371527174213
0.500000000000000333,-4.578339194798358491
0.501000000000000334,-4.553633102590472603
0.502000000000000335,-4.528980479768377698
0.503000000000000336,-4.504383636690934445
0.504000000000000337,-4.479844810489753471
0.505000000000000338,-4.455366166346633960
0.506000000000000338,-4.430949798768841319
0.507000000000000339,-4.406597732861302852
0.508000000000000340,-4.382311925594912339
0.509000000000000341,-4.358094267070247163
0.510000000000000342,-4.333946581775793838
0.511000000000000343,-4.309870629840137468
0.512000000000000344,-4.285868108277297139
0.513000000000000345,-4.261940652224668113
0.514000000000000346,-4.238089836172979297
0.515000000000000346,-4.214317175187570541
0.516000000000000347,-4.190624126120566117
0.517000000000000348,-4.167012088813434545
0.518000000000000349,-4.143482407289354796
0.519000000000000350,-4.120036370935069137
0.520000000000000351,-4.096675215671667480
0.521000000000000352,-4.073400125114075010
0.522000000000000353,-4.050212231718679945
0.523000000000000353,-4.027112617918915838
0.524000000000000354,-4.004102317248431575
0.525000000000000355,-3.981182315451516907
0.526000000000000356,-3.958353551580549468
0.527000000000000357,-3.935616919080254572
0.528000000000000358,-3.912973266858432275
0.529000000000000359,-3.890423400343114402
0.530000000000000360,-3.867968082525778506
0.531000000000000361,-3.845608034990619650
0.532000000000000361,-3.823343938929625097
0.533000000000000362,-3.801176436143365756
0.534000000000000363,-3.779106130027361843
0.535000000000000364,-3.757133586543990766
0.536000000000000365,-3.735259335179750284
0.537000000000000366,-3.713483869887933331
0.538000000000000367,-3.691807650016520448
0.539000000000000368,-3.670231101221436809
0.540000000000000369,-3.648754616364928260
0.541000000000000369,-3.627378556399276199
0.542000000000000370,-3.606103251235634133
0.543000000000000371,-3.584929000598155113
0.544000000000000372,-3.563856074863360313
0.545000000000000373,-3.542884715884817126
0.546000000000000374,-3.522015137803107709
0.547000000000000375,-3.501247527841203411
0.548000000000000376,-3.480582047085304165
0.549000000000000377,-3.460018831251173488
0.550000000000000377,-3.439557991436061002
0.551000000000000378,-3.419199614856297753
0.552000000000000379,-3.398943765570708653
0.553000000000000380,-3.378790485189836712
0.554000000000000381,-3.358739793571150933
0.555000000000000382,-3.338791689500406168
0.556000000000000383,-3.318946151359097207
0.557000000000000384,-3.299203137778346839
0.558000000000000385,-3.279562588279171020
0.559000000000000385,-3.260024423899367640
0.560000000000000386,-3.240588547807112807
0.561000000000000387,-3.221254845901437847
0.562000000000000388,-3.202023187399669180
0.563000000000000389,-3.182893425412075761
0.564000000000000390,-3.163865397503777821
0.565000000000000391,-3.144938926244128741
0.566000000000000392,-3.126113819743695732
0.567000000000000393,-3.107389872179045831
0.568000000000000393,-3.088766864305406479
0.569000000000000394,-3.070244563957447603
0.570000000000000395,-3.051822726538344188
0.571000000000000396,-3.033501095497184163
0.572000000000000397,-3.015279402795052910
0.573000000000000398,-2.997157369359790824
0.574000000000000399,-2.979134705529735250
0.575000000000000400,-2.961211111486504954
0.576000000000000401,-2.943386277677050078
0.577000000000000401,-2.925659885225183832
0.578000000000000402,-2.908031606332632801
0.579000000000000403,-2.890501104669901178
0.580000000000000404,-2.873068035757083916
0.581000000000000405,-2.855732047334748280
0.582000000000000406,-2.838492779725135584
0.583000000000000407,-2.821349866183762600
0.584000000000000408,-2.804302933241683782
0.585000000000000409,-2.787351601038502213
0.586000000000000409,-2.770495483646338464
0.587000000000000410,-2.753734189384933195
0.588000000000000411,-2.737067321127983455
0.589000000000000412,-2.720494476600986200
0.590000000000000413,-2.704015248670634808
0.591000000000000414,-2.687629225625992824
0.592000000000000415,-2.671335991451650127
0.593000000000000416,-2.655135126092880604
0.594000000000000417,-2.639026205713094875
0.595000000000000417,-2.623008802943739948
0.596000000000000418,-2.607082487126627157
0.597000000000000419,-2.591246824549126693
0.598000000000000420,-2.575501378672091501
0.599000000000000421,-2.559845710350881376
0.600000000000000422,-2.544279378049501439
0.601000000000000423,-2.528801938048058418
0.602000000000000424,-2.513412944643679925
0.603000000000000425,-2.498111950345022869
0.604000000000000425,-2.482898506060504218
0.605000000000000426,-2.467772161280418430
0.606000000000000427,-2.452732464253112088
0.607000000000000428,-2.437778962155174867
0.608000000000000429,-2.422911201256120250
0.609000000000000430,-2.408128727077257114
0.610000000000000431,-2.393431084545293075
0.611000000000000432,-2.378817818140505302
0.612000000000000433,-2.364288472039724365
