# Montmorillonite-001-NaCEC108_PHOSPHORICACID-AC
# h[nm],U(h)[kJ/mol]
0.149999999999999994,113.768572560947831107
0.150999999999999995,112.566101729145387367
0.151999999999999996,111.085994894668857569
0.152999999999999997,109.522424807762604360
0.153999999999999998,107.959061204873961515
0.154999999999999999,106.424269898537176005
0.156000000000000000,104.921668414031756811
0.157000000000000001,103.446028182042894628
0.158000000000000002,101.990779196663879702
0.159000000000000002,100.550944503429676047
0.160000000000000003,99.123776442370484574
0.161000000000000004,97.708388985196094723
0.162000000000000005,96.305080648369269625
0.163000000000000006,94.914685827675313590
0.164000000000000007,93.538089475637320902
0.165000000000000008,92.175931970010466898
0.166000000000000009,90.828479648887054054
0.167000000000000010,89.495617528891131087
0.168000000000000010,88.176919068569389992
0.169000000000000011,86.871754374014670930
0.170000000000000012,85.579407701260294061
0.171000000000000013,84.299184641929258532
0.172000000000000014,83.030497613980884353
0.173000000000000015,81.772924713857179313
0.174000000000000016,80.526241594337861329
0.175000000000000017,79.290429026862739192
0.176000000000000018,78.065660495661077789
0.177000000000000018,76.852274874798794713
0.178000000000000019,75.650739250287116988
0.179000000000000020,74.461606512272481950
0.180000000000000021,73.285471649547304196
0.181000000000000022,72.122929873532328315
0.182000000000000023,70.974538882258286776
0.183000000000000024,69.840786812712906340
0.184000000000000025,68.722066761164143145
0.185000000000000026,67.618658194539861483
0.186000000000000026,66.530715136207746241
0.187000000000000027,65.458260681594637731
0.188000000000000028,64.401187172193530728
0.189000000000000029,63.359261216695429653
0.190000000000000030,62.332132680162530391
0.191000000000000031,61.319346751429883113
0.192000000000000032,60.320358231435704965
0.193000000000000033,59.334547248627565352
0.194000000000000034,58.361235691445713769
0.195000000000000034,57.399703743438102777
0.196000000000000035,56.449206006860137563
0.197000000000000036,55.508986800300078812
0.198000000000000037,54.578294311000490779
0.199000000000000038,53.656393370377053031
0.200000000000000039,52.742576700022041791
0.201000000000000040,51.836174544280211762
0.202000000000000041,50.936562663988198096
0.203000000000000042,50.043168714338840175
0.204000000000000042,49.155477068573404154
0.205000000000000043,48.273032179060571423
0.206000000000000044,47.395440589173794876
0.207000000000000045,46.522371724190648479
0.208000000000000046,45.653557598187077815
0.209000000000000047,44.788791577546007261
0.210000000000000048,43.927926341152875978
0.211000000000000049,43.070871173453440406
0.212000000000000050,42.217588720056745899
0.213000000000000050,41.368091327160144033
0.214000000000000051,40.522437076330255934
0.215000000000000052,39.680725615600422884
0.216000000000000053,38.843093876856499946
0.217000000000000054,38.009711758421438788
0.218000000000000055,37.180777840890030461
0.219000000000000056,36.356515193821564935
0.220000000000000057,35.537167321027162359
0.221000000000000058,34.722994283007921013
0.222000000000000058,33.914269026677629881
0.223000000000000059,33.111273944887798848
0.224000000000000060,32.314297681471558121
0.225000000000000061,31.523632191534403546
0.226000000000000062,30.739570061516776178
0.227000000000000063,29.962402089101981773
0.228000000000000064,29.192415119296356352
0.229000000000000065,28.429890129914401342
0.230000000000000066,27.675100557206427254
0.231000000000000066,26.928310850409548749
0.232000000000000067,26.189775242530792809
0.233000000000000068,25.459736723623471732
0.234000000000000069,24.738426202143791954
0.235000000000000070,24.026061839620656002
0.236000000000000071,23.322848543790708931
0.237000000000000072,22.628977605497091474
0.238000000000000073,21.944626464985564240
0.239000000000000073,21.269958593718499174
0.240000000000000074,20.605123478429860029
0.241000000000000075,19.950256694840053484
0.242000000000000076,19.305480059206509225
0.243000000000000077,18.670901846685733716
0.244000000000000078,18.046617066306428256
0.245000000000000079,17.432707783182575412
0.246000000000000080,16.829243479421055696
0.247000000000000081,16.236281445984140248
0.248000000000000081,15.653867198549979989
0.249000000000000082,15.082034911162441659
0.250000000000000111,14.520807862173302993
0.251000000000000112,13.970198887649249997
0.252000000000000113,13.430210838041238830
0.253000000000000114,12.900837034495427957
0.254000000000000115,12.382061721717644076
0.255000000000000115,11.873860514793310728
0.256000000000000116,11.376200837807976640
0.257000000000000117,10.889042352514087142
0.258000000000000118,10.412337375648872850
0.259000000000000119,9.946031283827052150
0.260000000000000120,9.490062905213431321
0.261000000000000121,9.044364897427843886
0.262000000000000122,8.608864111348257353
0.263000000000000123,8.183481940662378662
0.264000000000000123,7.768134657174313062
0.265000000000000124,7.362733732004111964
0.266000000000000125,6.967186142926772519
0.267000000000000126,6.581394668185384766
0.268000000000000127,6.205258167182529760
0.269000000000000128,5.838671848508361073
0.270000000000000129,5.481527525802702527
0.271000000000000130,5.133713861975384596
0.272000000000000131,4.795116602325458999
0.273000000000000131,4.465618797106476023
0.274000000000000132,4.145101014084314528
0.275000000000000133,3.833441541626291915
0.276000000000000134,3.530516582847307294
0.277000000000000135,3.236200441321892107
0.278000000000000136,2.950365698849723550
0.279000000000000137,2.672883385739031947
0.280000000000000138,2.403623144047339899
0.281000000000000139,2.142453384191901566
0.282000000000000139,1.889241435315503592
0.283000000000000140,1.643853689765373272
0.284000000000000141,1.406155742015946730
0.285000000000000142,1.176012522339133559
0.286000000000000143,0.953288425499681402
0.287000000000000144,0.737847434728348794
0.288000000000000145,0.529553241201072500
0.289000000000000146,0.328269359230427549
0.290000000000000147,0.133859237353567723
0.291000000000000147,-0.053813634518300103
0.292000000000000148,-0.234885621742795037
0.293000000000000149,-0.409492845251808291
0.294000000000000150,-0.577771085405421991
0.295000000000000151,-0.739855689293943408
0.296000000000000152,-0.895881481400117030
0.297000000000000153,-1.045982677544628370
0.298000000000000154,-1.190292802047736576
0.299000000000000155,-1.328944608048318710
0.300000000000000155,-1.462070000928864522
0.301000000000000156,-1.589799964800974852
0.302000000000000157,-1.712264492011305705
0.303000000000000158,-1.829592515631645044
0.304000000000000159,-1.941911844900446438
0.305000000000000160,-2.049349103585231369
0.306000000000000161,-2.152029671237282393
0.307000000000000162,-2.250077627311006356
0.308000000000000163,-2.343615698120742774
0.309000000000000163,-2.432765206607917285
0.310000000000000164,-2.517646024890929368
0.311000000000000165,-2.598376529569198290
0.312000000000000166,-2.675073559751821151
0.313000000000000167,-2.747852377779655075
0.314000000000000168,-2.816826632608067538
0.315000000000000169,-2.882108325815686989
0.316000000000000170,-2.943807780202722491
0.317000000000000171,-3.002033610940010977
0.318000000000000171,-3.056892699228145993
0.319000000000000172,-3.108490168423806210
0.320000000000000173,-3.156929362588244636
0.321000000000000174,-3.202311827410790901
0.322000000000000175,-3.244737293458308525
0.323000000000000176,-3.284303661699439658
0.324000000000000177,-3.321106991250730722
0.325000000000000178,-3.355241489289781498
0.326000000000000179,-3.386799503079239937
0.327000000000000179,-3.415871514043623769
0.328000000000000180,-3.442546133839676337
0.329000000000000181,-3.466910102359987977
0.330000000000000182,-3.489048287608003562
0.331000000000000183,-3.509043687382218391
0.332000000000000184,-3.526977432706031035
0.333000000000000185,-3.542928792939493032
0.334000000000000186,-3.556975182508465227
0.335000000000000187,-3.569192169186484964
0.336000000000000187,-3.579653483864476016
0.337000000000000188,-3.588431031743169797
0.338000000000000189,-3.595594904883544274
0.339000000000000190,-3.601213396050563453
0.340000000000000191,-3.605353013785825844
0.341000000000000192,-3.608078498645413301
0.342000000000000193,-3.609452840539572716
0.343000000000000194,-3.609537297111843568
0.344000000000000195,-3.608391413095567657
0.345000000000000195,-3.606073040587277401
0.346000000000000196,-3.602638360176731336
0.347000000000000197,-3.598141902874950837
0.348000000000000198,-3.592636572782505588
0.349000000000000199,-3.586173670441491712
0.350000000000000200,-3.578802916816054225
0.351000000000000201,-3.570572477847446358
0.352000000000000202,-3.561528989531105971
0.353000000000000203,-3.551717583464640171
0.354000000000000203,-3.541181912816993904
0.355000000000000204,-3.529964178670558450
0.356000000000000205,-3.518105156689554036
0.357000000000000206,-3.505644224069583093
0.358000000000000207,-3.492619386724523878
0.359000000000000208,-3.479067306668872650
0.360000000000000209,-3.465023329554938414
0.361000000000000210,-3.450521512325916085
0.362000000000000210,-3.435594650947502604
0.363000000000000211,-3.420274308182145173
0.364000000000000212,-3.404590841371734289
0.365000000000000213,-3.388573430195881198
0.366000000000000214,-3.372250104374657553
0.367000000000000215,-3.355647771285963810
0.368000000000000216,-3.338792243469403509
0.369000000000000217,-3.321708265989783193
0.370000000000000218,-3.304419543634986134
0.371000000000000218,-3.286948767924178672
0.372000000000000219,-3.269317643903913329
0.373000000000000220,-3.251546916710861268
0.374000000000000221,-3.233656397881356614
0.375000000000000222,-3.215664991389032501
0.376000000000000223,-3.197590719393432313
0.377000000000000224,-3.179450747683282508
0.378000000000000225,-3.161261410799629967
0.379000000000000226,-3.143038236824986509
0.380000000000000226,-3.124795971825934604
0.381000000000000227,-3.106548603937465458
0.382000000000000228,-3.088309387078657764
0.383000000000000229,-3.070090864290094590
0.384000000000000230,-3.051904890684420835
0.385000000000000231,-3.033762656002545022
0.386000000000000232,-3.015674706768609159
0.387000000000000233,-2.997650968037974817
0.388000000000000234,-2.979700764733079321
0.389000000000000234,-2.961832842563032919
0.390000000000000235,-2.944055388523328709
0.391000000000000236,-2.926376050973015897
0.392000000000000237,-2.908801959287139027
0.393000000000000238,-2.891339743083112701
0.394000000000000239,-2.873995551020130712
0.395000000000000240,-2.856775069171466619
0.396000000000000241,-2.839683538969976162
0.397000000000000242,-2.822725774727644854
0.398000000000000242,-2.805906180730628030
0.399000000000000243,-2.789228767911548168
0.400000000000000244,-2.772697170101354303
0.401000000000000245,-2.756314659863534189
0.402000000000000246,-2.740084163913601767
0.403000000000000247,-2.724008278127489469
0.404000000000000248,-2.708089282142525089
0.405000000000000249,-2.692329153555196086
0.406000000000000250,-2.676729581719999196
0.407000000000000250,-2.661291981154179087
0.408000000000000251,-2.646017504553170863
0.409000000000000252,-2.630907055421991547
0.410000000000000253,-2.615961300327873218
0.411000000000000254,-2.601180680779751953
0.412000000000000255,-2.586565424740284946
0.413000000000000256,-2.572115557776345707
0.414000000000000257,-2.557830913853920585
0.415000000000000258,-2.543711145783670080
0.416000000000000258,-2.529755735323277133
0.417000000000000259,-2.515964002943021693
0.418000000000000260,-2.502335117260937380
0.419000000000000261,-2.488868104154067229
0.420000000000000262,-2.475561855552328439
0.421000000000000263,-2.462415137921611485
0.422000000000000264,-2.449426600442645263
0.423000000000000265,-2.436594782892286482
0.424000000000000266,-2.423918123233944844
0.425000000000000266,-2.411394964923612605
0.426000000000000267,-2.399023563938279757
0.427000000000000268,-2.386802095533254953
0.428000000000000269,-2.374728660734976682
0.429000000000000270,-2.362801292575919199
0.430000000000000271,-2.351017962077999179
0.431000000000000272,-2.339376583991072511
0.432000000000000273,-2.327875022292779761
0.433000000000000274,-2.316511095456243119
0.434000000000000274,-2.305282581491763239
0.435000000000000275,-2.294187222768845125
0.436000000000000276,-2.283222730624622443
0.437000000000000277,-2.272386789764786030
0.438000000000000278,-2.261677062462994492
0.439000000000000279,-2.251091192564696364
0.440000000000000280,-2.240626809301139666
0.441000000000000281,-2.230281530919325128
0.442000000000000282,-2.220052968133585214
0.443000000000000282,-2.209938727404213488
0.444000000000000283,-2.199936414048762057
0.445000000000000284,-2.190043635191208260
0.446000000000000285,-2.180258002554300134
0.447000000000000286,-2.170577135100318689
0.448000000000000287,-2.160998661525129982
0.449000000000000288,-2.151520222610682875
0.450000000000000289,-2.142139473440628716
0.451000000000000290,-2.132854085483911533
0.452000000000000290,-2.123661748550977002
0.453000000000000291,-2.114560172627049095
0.454000000000000292,-2.105547089587042731
0.455000000000000293,-2.096620254796331739
0.456000000000000294,-2.087777448601674912
0.457000000000000295,-2.079016477716441269
0.458000000000000296,-2.070335176504086494
0.459000000000000297,-2.061731408163910206
0.460000000000000298,-2.053203065822844842
0.461000000000000298,-2.044748073537067778
0.462000000000000299,-2.036364387207029392
0.463000000000000300,-2.028049995409440420
0.464000000000000301,-2.019802920149678549
0.465000000000000302,-2.011621217537961748
0.466000000000000303,-2.003502978392481815
0.467000000000000304,-1.995446328772755962
0.468000000000000305,-1.987449430446185161
0.469000000000000306,-1.979510481290810642
0.470000000000000306,-1.971627715637237488
0.471000000000000307,-1.963799404552390104
0.472000000000000308,-1.956023856067954370
0.473000000000000309,-1.948299415356067543
0.474000000000000310,-1.940624464854818765
0.475000000000000311,-1.932997424346043713
0.476000000000000312,-1.925416750987820169
0.477000000000000313,-1.917880939303947985
0.478000000000000314,-1.910388521132654560
0.479000000000000314,-1.902938065536751822
0.480000000000000315,-1.895528178677225339
0.481000000000000316,-1.888157503652415414
0.482000000000000317,-1.880824720304595576
0.483000000000000318,-1.873528544995956224
0.484000000000000319,-1.866267730355723131
0.485000000000000320,-1.859041065000218484
0.486000000000000321,-1.851847373227521132
0.487000000000000322,-1.844685514688366723
0.488000000000000322,-1.837554384034816524
0.489000000000000323,-1.830452910548287404
0.490000000000000324,-1.823380057748296590
0.491000000000000325,-1.816334822983375785
0.492000000000000326,-1.809316237005454742
0.493000000000000327,-1.802323363529048761
0.494000000000000328,-1.795355298776431852
0.495000000000000329,-1.788411171010029888
0.496000000000000330,-1.781490140053110238
0.497000000000000330,-1.774591396799954257
0.498000000000000331,-1.767714162716407911
0.499000000000000332,-1.760857689331976728
0.500000000000000333,-1.754021257724308835
0.501000000000000334,-1.747204177996987795
0.502000000000000335,-1.740405788751565153
0.503000000000000336,-1.733625456554612088
0.504000000000000337,-1.726862575400620159
0.505000000000000338,-1.720116566171472128
0.506000000000000338,-1.713386876093250022
0.507000000000000339,-1.706672978191034362
0.508000000000000340,-1.699974370742338037
0.509000000000000341,-1.693290576729877372
0.510000000000000342,-1.686621143294140479
0.511000000000000343,-1.679965641186439651
0.512000000000000344,-1.673323664222879925
0.513000000000000345,-1.666694828739809342
0.514000000000000346,-1.660078773051217427
0.515000000000000346,-1.653475156908490007
0.516000000000000347,-1.646883660962971119
0.517000000000000348,-1.640303986231774092
0.518000000000000349,-1.633735853567113594
0.519000000000000350,-1.627179003129617385
0.520000000000000351,-1.620633193865865351
0.521000000000000352,-1.614098202990543074
0.522000000000000353,-1.607573825473414431
0.523000000000000353,-1.601059873531441413
0.524000000000000354,-1.594556176126304736
0.525000000000000355,-1.588062578467508867
0.526000000000000356,-1.581578941521319948
0.527000000000000357,-1.575105141525760200
0.528000000000000358,-1.568641069511767183
0.529000000000000359,-1.562186630830782352
0.530000000000000360,-1.555741744688817096
0.531000000000000361,-1.549306343687230303
0.532000000000000361,-1.542880373370274949
0.533000000000000362,-1.536463791779563381
0.534000000000000363,-1.530056569015529222
0.535000000000000364,-1.523658686805997364
0.536000000000000365,-1.517270138081906916
0.537000000000000366,-1.510890926560296332
0.538000000000000367,-1.504521066334541635
0.539000000000000368,-1.498160581471992048
0.540000000000000369,-1.491809505618920895
0.541000000000000369,-1.485467881612938301
0.542000000000000370,-1.479135761102776669
0.543000000000000371,-1.472813204175547508
0.544000000000000372,-1.466500278991424988
0.545000000000000373,-1.460197061425770881
0.546000000000000374,-1.453903634718676674
0.547000000000000375,-1.447620089131921972
0.548000000000000376,-1.441346521613322995
0.549000000000000377,-1.435083035468441626
0.550000000000000377,-1.428829740039609941
0.551000000000000378,-1.422586750392242916
0.552000000000000379,-1.416354187008406207
0.553000000000000380,-1.410132175487564199
0.554000000000000381,-1.403920846254461008
0.555000000000000382,-1.397720334274125120
0.556000000000000383,-1.391530778773835575
0.557000000000000384,-1.385352322972116301
0.558000000000000385,-1.379185113814558772
0.559000000000000385,-1.373029301716521600
0.560000000000000386,-1.366885040312537880
0.561000000000000387,-1.360752486212426948
0.562000000000000388,-1.354631798763965334
0.563000000000000389,-1.348523139822121575
0.564000000000000390,-1.342426673524675040
0.565000000000000391,-1.336342566074212312
0.566000000000000392,-1.330270985526374350
0.567000000000000393,-1.324212101584289369
0.568000000000000393,-1.318166085399078646
0.569000000000000394,-1.312133109376361073
0.570000000000000395,-1.306113346988681645
0.571000000000000396,-1.300106972593715327
0.572000000000000397,-1.294114161258239193
0.573000000000000398,-1.288135088587692767
0.574000000000000399,-1.282169930561298354
0.575000000000000400,-1.276218863372600598
0.576000000000000401,-1.270282063275350648
0.577000000000000401,-1.264359706434676767
0.578000000000000402,-1.258451968783358854
0.579000000000000403,-1.252559025883178467
0.580000000000000404,-1.246681052791269284
0.581000000000000405,-1.240818223931274833
0.582000000000000406,-1.234970712969338136
0.583000000000000407,-1.229138692694729640
0.584000000000000408,-1.223322334905093678
0.585000000000000409,-1.217521810296159801
0.586000000000000409,-1.211737288355873243
0.587000000000000410,-1.205968937262827501
0.588000000000000411,-1.200216923788899548
0.589000000000000412,-1.194481413206036402
0.590000000000000413,-1.188762569197039820
0.591000000000000414,-1.183060553770310941
0.592000000000000415,-1.177375527178468051
0.593000000000000416,-1.171707647840683597
0.594000000000000417,-1.166057072268731565
0.595000000000000417,-1.160423954996638862
0.596000000000000418,-1.154808448513784613
0.597000000000000419,-1.149210703201493988
0.598000000000000420,-1.143630867272908302
0.599000000000000421,-1.138069086716142042
0.600000000000000422,-1.132525505240601582
0.601000000000000423,-1.127000264226393433
0.602000000000000424,-1.121493502676747633
0.603000000000000425,-1.116005357173380785
0.604000000000000425,-1.110535961834704155
0.605000000000000426,-1.105085448276801774
0.606000000000000427,-1.099653945577163672
0.607000000000000428,-1.094241580240953748
0.608000000000000429,-1.088848476169962387
0.609000000000000430,-1.083474754633905857
0.610000000000000431,-1.078120534244259909
0.611000000000000432,-1.072785930930368226
0.612000000000000433,-1.067471057917834809
0.613000000000000433,-1.062176025709159921
