# Montmorillonite-001-NaCEC108_PROPANAL-AC
# h[nm],U(h)[kJ/mol]
0.149999999999999994,111.654479404989814384
0.150999999999999995,110.462881588268146515
0.151999999999999996,109.251432748832527864
0.152999999999999997,108.052945804324011192
0.153999999999999998,106.875544744768291139
0.154999999999999999,105.717183199338663258
0.156000000000000000,104.573050577392379523
0.157000000000000001,103.438893770099227254
0.158000000000000002,102.312125197616481387
0.159000000000000002,101.191837717337733693
0.160000000000000003,100.078369381922627213
0.161000000000000004,98.972764169475411222
0.162000000000000005,97.876295909981664067
0.163000000000000006,96.790119412185731562
0.164000000000000007,95.715057039529597205
0.165000000000000008,94.651502119208089425
0.166000000000000009,93.599410568402447552
0.167000000000000010,92.558351361063643026
0.168000000000000010,91.527590234651626133
0.169000000000000011,90.506186558229586581
0.170000000000000012,89.493088987513914390
0.171000000000000013,88.487220623263226571
0.172000000000000014,87.487548535957870399
0.173000000000000015,86.493135658920181186
0.174000000000000016,85.503175262974579596
0.175000000000000017,84.517009652381503315
0.176000000000000018,83.534135526967332908
0.177000000000000018,82.554198795396018795
0.178000000000000019,81.576981636441388446
0.179000000000000020,80.602384401877799291
0.180000000000000021,79.630404624810708469
0.181000000000000022,78.661115007225362206
0.182000000000000023,77.694641857520167605
0.183000000000000024,76.731145064538864631
0.184000000000000025,75.770800348702692872
0.185000000000000026,74.813784233690853398
0.186000000000000026,73.860261937526260567
0.187000000000000027,72.910378189140629956
0.188000000000000028,71.964250831820180565
0.189000000000000029,71.021966972964690967
0.190000000000000030,70.083581374103644634
0.191000000000000031,69.149116739711459445
0.192000000000000032,68.218565551900127275
0.193000000000000033,67.291893104913086177
0.194000000000000034,66.369041413531860485
0.195000000000000034,65.449933698800037973
0.196000000000000035,64.534479189340075322
0.197000000000000036,63.622578014169945959
0.198000000000000037,62.714126001103124963
0.199000000000000038,61.809019231886949797
0.200000000000000039,60.907158240016030959
0.201000000000000040,60.008451768857113962
0.202000000000000041,59.112820035869994229
0.203000000000000042,58.220197473088504125
0.204000000000000042,57.330534934613339715
0.205000000000000043,56.443801378788961642
0.206000000000000044,55.559985046213363091
0.207000000000000045,54.679094165057790633
0.208000000000000046,53.801157222683613668
0.209000000000000047,52.926222847589521336
0.210000000000000048,52.054359348652020856
0.211000000000000049,51.185653959780843536
0.212000000000000050,50.320211837813516809
0.213000000000000050,49.458154860020542287
0.214000000000000051,48.599620265243402173
0.215000000000000052,47.744759179681878436
0.216000000000000053,46.893735064885490260
0.217000000000000054,46.046722121760517155
0.218000000000000055,45.203903680525186815
0.219000000000000056,44.365470602650574961
0.220000000000000057,43.531619717005646919
0.221000000000000058,42.702552308763394251
0.222000000000000058,41.878472676166040856
0.223000000000000059,41.059586767042205224
0.224000000000000060,40.246100904033873746
0.225000000000000061,39.438220604846215167
0.226000000000000062,38.636149501481511948
0.227000000000000063,37.840088360357775343
0.228000000000000064,37.050234203434676772
0.229000000000000065,36.266779528959816048
0.230000000000000066,35.489911629193713338
0.231000000000000066,34.719812001449369632
0.232000000000000067,33.956655847976108475
0.233000000000000068,33.200611659603922021
0.234000000000000069,32.451840877623354231
0.235000000000000070,31.710497628088216260
0.236000000000000071,30.976728522572965829
0.237000000000000072,30.250672519373267733
0.238000000000000073,29.532460839193610980
0.239000000000000073,28.822216929499784754
0.240000000000000074,28.120056471911787810
0.241000000000000075,27.426087427264537411
0.242000000000000076,26.740410113252938373
0.243000000000000077,26.063117309895989848
0.244000000000000078,25.394294388393262807
0.245000000000000079,24.734019459294810162
0.246000000000000080,24.082363536259993708
0.247000000000000081,23.439390712030792940
0.248000000000000081,22.805158343590793635
0.249000000000000082,22.179717243815055383
0.250000000000000111,21.563111877236558200
0.251000000000000112,20.955380557859541568
0.252000000000000113,20.356555647235587969
0.253000000000000114,19.766663751286813522
0.254000000000000115,19.185725914606457820
0.255000000000000115,18.613757811194819425
0.256000000000000116,18.050769930794466234
0.257000000000000117,17.496767760175202966
0.258000000000000118,16.951751958886379867
0.259000000000000119,16.415718529141976489
0.260000000000000120,15.888658979633884627
0.261000000000000121,15.370560483182151401
0.262000000000000122,14.861406028227850840
0.263000000000000123,14.361174564256902642
0.264000000000000123,13.869841141311235688
0.265000000000000124,13.387377043800261944
0.266000000000000125,12.913749918869843469
0.267000000000000126,12.448923899620535138
0.268000000000000127,11.992859723491347879
0.269000000000000128,11.545514846142701515
0.270000000000000129,11.106843551181384555
0.271000000000000130,10.676797056073512593
0.272000000000000131,10.255323614589418213
0.273000000000000131,9.842368616117393998
0.274000000000000132,9.437874682172420648
0.275000000000000133,9.041781760412124669
0.276000000000000134,8.654027216455146387
0.277000000000000135,8.274545923779378143
0.278000000000000136,7.903270351956353856
0.279000000000000137,7.540130653457448595
0.280000000000000138,7.185054749245850303
0.281000000000000139,6.837968413345487662
0.282000000000000139,6.498795356556582803
0.283000000000000140,6.167457309465175896
0.284000000000000141,5.843874104872921471
0.285000000000000142,5.527963759752499762
0.286000000000000143,5.219642556814335421
0.287000000000000144,4.918825125751486560
0.288000000000000145,4.625424524211442900
0.289000000000000146,4.339352318527575747
0.290000000000000147,4.060518664226800745
0.291000000000000147,3.788832386316538958
0.292000000000000148,3.524201059340388298
0.293000000000000149,3.266531087180993609
0.294000000000000150,3.015727782577485527
0.295000000000000151,2.771695446316064793
0.296000000000000152,2.534337446043966935
0.297000000000000153,2.303556294650481728
0.298000000000000154,2.079253728152433034
0.299000000000000155,1.861330783017231427
0.300000000000000155,1.649687872852506842
0.301000000000000156,1.444224864388781615
0.302000000000000157,1.244841152679288854
0.303000000000000158,1.051435735440416908
0.304000000000000159,0.863907286455319889
0.305000000000000160,0.682154227963997051
0.306000000000000161,0.506074801963692145
0.307000000000000162,0.335567140345138903
0.308000000000000163,0.170529333792128840
0.309000000000000163,0.010859499374334013
0.310000000000000164,-0.143544153233950478
0.311000000000000165,-0.292783256973121797
0.312000000000000166,-0.436959224116303946
0.313000000000000167,-0.576173184542975170
0.314000000000000168,-0.710525925621045551
0.315000000000000169,-0.840117833746287901
0.316000000000000170,-0.965048837583778463
0.317000000000000171,-1.085418353051557538
0.318000000000000171,-1.201325230082497253
0.319000000000000172,-1.312867701195986614
0.320000000000000173,-1.420143331906537298
0.321000000000000174,-1.523248972992084616
0.322000000000000175,-1.622280714640587762
0.323000000000000176,-1.717333842489052298
0.324000000000000177,-1.808502795565237076
0.325000000000000178,-1.895881126137884065
0.326000000000000179,-1.979561461477870932
0.327000000000000179,-2.059635467528438735
0.328000000000000180,-2.136193814479200093
0.329000000000000181,-2.209326144235278289
0.330000000000000182,-2.279121039769168799
0.331000000000000183,-2.345665996340273729
0.332000000000000184,-2.409047394563526012
0.333000000000000185,-2.469350475306081982
0.334000000000000186,-2.526659316388140120
0.335000000000000187,-2.581056811061583023
0.336000000000000187,-2.632624648237832155
0.337000000000000188,-2.681443294433931701
0.338000000000000189,-2.727591977404260959
0.339000000000000190,-2.771148671423217635
0.340000000000000191,-2.812190084182551786
0.341000000000000192,-2.850791645265733809
0.342000000000000193,-2.887027496160231355
0.343000000000000194,-2.920970481767619642
0.344000000000000195,-2.952692143370013511
0.345000000000000195,-2.982262713011070154
0.346000000000000196,-3.009751109248385070
0.347000000000000197,-3.035224934234018068
0.348000000000000198,-3.058750472079131644
0.349000000000000199,-3.080392688458442052
0.350000000000000200,-3.100215231410001326
0.351000000000000201,-3.118280433285548714
0.352000000000000202,-3.134649313806787685
0.353000000000000203,-3.149381584182914473
0.354000000000000203,-3.162535652245007434
0.355000000000000204,-3.174168628552902049
0.356000000000000205,-3.184336333430744403
0.357000000000000206,-3.193093304887793416
0.358000000000000207,-3.200492807381260185
0.359000000000000208,-3.206586841378839203
0.360000000000000209,-3.211426153679032502
0.361000000000000210,-3.215060248447927815
0.362000000000000210,-3.217537398932022175
0.363000000000000211,-3.218904659807148683
0.364000000000000212,-3.219207880124657528
0.365000000000000213,-3.218491716816509918
0.366000000000000214,-3.216799648722079130
0.367000000000000215,-3.214173991100088390
0.368000000000000216,-3.210655910590264561
0.369000000000000217,-3.206285440589977220
0.370000000000000218,-3.201101497012297070
0.371000000000000218,-3.195141894392630633
0.372000000000000219,-3.188443362312310292
0.373000000000000220,-3.181041562108315901
0.374000000000000221,-3.172971103839374418
0.375000000000000222,-3.164265563479532695
0.376000000000000223,-3.154957500311597052
0.377000000000000224,-3.145078474493443021
0.378000000000000225,-3.134659064771418979
0.379000000000000226,-3.123728886315974673
0.380000000000000226,-3.112316608655659955
0.381000000000000227,-3.100449973686458804
0.382000000000000228,-3.088155813734584587
0.383000000000000229,-3.075460069651637429
0.384000000000000230,-3.062387808921955390
0.385000000000000231,-3.048963243763060049
0.386000000000000232,-3.035209749200766804
0.387000000000000233,-3.021149881101608425
0.388000000000000234,-3.006805394145894983
0.389000000000000234,-2.992197259725801750
0.390000000000000235,-2.977345683753453986
0.391000000000000236,-2.962270124365011803
0.392000000000000237,-2.946989309507333843
0.393000000000000238,-2.931521254394799936
0.394000000000000239,-2.915883278824344504
0.395000000000000240,-2.900092024337749042
0.396000000000000241,-2.884163471220777986
0.397000000000000242,-2.868112955329428893
0.398000000000000242,-2.851955184734376481
0.399000000000000243,-2.835704256175143101
0.400000000000000244,-2.819373671316260932
0.401000000000000245,-2.802976352798358661
0.402000000000000246,-2.786524660077438931
0.403000000000000247,-2.770030405046504107
0.404000000000000248,-2.753504867433941072
0.405000000000000249,-2.736958809973792484
0.406000000000000250,-2.720402493343395456
0.407000000000000250,-2.703845690864490781
0.408000000000000251,-2.687297702964231760
0.409000000000000252,-2.670767371393075962
0.410000000000000253,-2.654263093196888690
0.411000000000000254,-2.637792834441051060
0.412000000000000255,-2.621364143684663084
0.413000000000000256,-2.604984165203489077
0.414000000000000257,-2.588659651960340202
0.415000000000000258,-2.572396978322315952
0.416000000000000258,-2.556202152524218896
0.417000000000000259,-2.540080828878180430
0.418000000000000260,-2.524038319729461577
0.419000000000000261,-2.508079607158928859
0.420000000000000262,-2.492209354432797674
0.421000000000000263,-2.476431917200611732
0.422000000000000264,-2.460751354442495931
0.423000000000000265,-2.445171439167088234
0.424000000000000266,-2.429695668861759028
0.425000000000000266,-2.414327275696697583
0.426000000000000267,-2.399069236484971945
0.427000000000000268,-2.383924282400527339
0.428000000000000269,-2.368894908456400827
0.429000000000000270,-2.353983382745609365
0.430000000000000271,-2.339191755447105781
0.431000000000000272,-2.324521867599601777
0.432000000000000273,-2.309975359645904724
0.433000000000000274,-2.295553679750731657
0.434000000000000274,-2.281258091894883488
0.435000000000000275,-2.267089683748921836
0.436000000000000276,-2.253049374329426424
0.437000000000000277,-2.239137921441060719
0.438000000000000278,-2.225355928907712499
0.439000000000000279,-2.211703853596071578
0.440000000000000280,-2.198182012234968674
0.441000000000000281,-2.184790588033929115
0.442000000000000282,-2.171529637104451016
0.443000000000000282,-2.158399094687366571
0.444000000000000283,-2.145398781189981285
0.445000000000000284,-2.132528408036378220
0.446000000000000285,-2.119787583334484804
0.447000000000000286,-2.107175817363555304
0.448000000000000287,-2.094692527885467559
0.449000000000000288,-2.082337045283570998
0.450000000000000289,-2.070108617532530726
0.451000000000000290,-2.058006415002779477
0.452000000000000290,-2.046029535103158103
0.453000000000000291,-2.034177006765180984
0.454000000000000292,-2.022447794772556762
0.455000000000000293,-2.010840803939372812
0.456000000000000294,-1.999354883140464834
0.457000000000000295,-1.987988829197423257
0.458000000000000296,-1.976741390623598660
0.459000000000000297,-1.965611271231583856
0.460000000000000298,-1.954597133606430504
0.461000000000000298,-1.943697602448019479
0.462000000000000299,-1.932911267785793585
0.463000000000000300,-1.922236688069113297
0.464000000000000301,-1.911672393136482295
0.465000000000000302,-1.901216887066784267
0.466000000000000303,-1.890868650915604077
0.467000000000000304,-1.880626145339807209
0.468000000000000305,-1.870487813113340891
0.469000000000000306,-1.860452081537242064
0.470000000000000306,-1.850517364746880888
0.471000000000000307,-1.840682065919197585
0.472000000000000308,-1.830944579382902004
0.473000000000000309,-1.821303292634369964
0.474000000000000310,-1.811756588262005696
0.475000000000000311,-1.802302845781741825
0.476000000000000312,-1.792940443386405791
0.477000000000000313,-1.783667759611452741
0.478000000000000314,-1.774483174919668560
0.479000000000000314,-1.765385073207383471
0.480000000000000315,-1.756371843234537211
0.481000000000000316,-1.747441879981145307
0.482000000000000317,-1.738593585932357133
0.483000000000000318,-1.729825372294553798
0.484000000000000319,-1.721135660144640145
0.485000000000000320,-1.712522881514779272
0.486000000000000321,-1.703985480414718312
0.487000000000000322,-1.695521913793819335
0.488000000000000322,-1.687130652444793766
0.489000000000000323,-1.678810181851269956
0.490000000000000324,-1.670559002981041541
0.491000000000000325,-1.662375633026971444
0.492000000000000326,-1.654258606097402051
0.493000000000000327,-1.646206473857916963
0.494000000000000328,-1.638217806126205378
0.495000000000000329,-1.630291191421785246
0.496000000000000330,-1.622425237472248316
0.497000000000000330,-1.614618571677739256
0.498000000000000331,-1.606869841535137677
0.499000000000000332,-1.599177715023683222
0.500000000000000333,-1.591540880953424164
0.501000000000000334,-1.583958049277994995
0.502000000000000335,-1.576427951373224445
0.503000000000000336,-1.568949340282890903
0.504000000000000337,-1.561520990933039643
0.505000000000000338,-1.554141700316147956
0.506000000000000338,-1.546810287646453341
0.507000000000000339,-1.539525594487651805
0.508000000000000340,-1.532286484854194608
0.509000000000000341,-1.525091845287397163
0.510000000000000342,-1.517940584907405244
0.511000000000000343,-1.510831635442230425
0.512000000000000344,-1.503763951234824869
0.513000000000000345,-1.496736509229308121
0.514000000000000346,-1.489748308937345112
0.515000000000000346,-1.482798372385582875
0.516000000000000347,-1.475885744045164039
0.517000000000000348,-1.469009490744220603
0.518000000000000349,-1.462168701564168005
0.519000000000000350,-1.455362487720747389
0.520000000000000351,-1.448589982430556367
0.521000000000000352,-1.441850340763947802
0.522000000000000353,-1.435142739484997376
0.523000000000000353,-1.428466376879318656
0.524000000000000354,-1.421820472570473726
0.525000000000000355,-1.415204267325619103
0.526000000000000356,-1.408617022851079481
0.527000000000000357,-1.402058021578547420
0.528000000000000358,-1.395526566442419902
0.529000000000000359,-1.389021980649021604
0.530000000000000360,-1.382543607438143862
0.531000000000000361,-1.376090809837575701
0.532000000000000361,-1.369662970411098302
0.533000000000000362,-1.363259491000492041
0.534000000000000363,-1.356879792462024836
0.535000000000000364,-1.350523314397939156
0.536000000000000365,-1.344189514883356029
0.537000000000000366,-1.337877870189079221
0.538000000000000367,-1.331587874500660629
0.539000000000000368,-1.325319039634237361
0.540000000000000369,-1.319070894749398537
0.541000000000000369,-1.312842986059591155
0.542000000000000370,-1.306634876540299750
0.543000000000000371,-1.300446145635438366
0.544000000000000372,-1.294276388962227520
0.545000000000000373,-1.288125218014902540
0.546000000000000374,-1.281992259867517081
0.547000000000000375,-1.275877156876160878
0.548000000000000376,-1.269779566380866420
0.549000000000000377,-1.263699160407430355
0.550000000000000377,-1.257635625369438070
0.551000000000000378,-1.251588661770693278
0.552000000000000379,-1.245557983908317068
0.553000000000000380,-1.239543319576696945
0.554000000000000381,-1.233544409772480588
0.555000000000000382,-1.227561008400880782
0.556000000000000383,-1.221592881983351253
0.557000000000000384,-1.215639809366944712
0.558000000000000385,-1.209701581435386419
0.559000000000000385,-1.203778000822124827
0.560000000000000386,-1.197868881625436810
0.561000000000000387,-1.191974049125756885
0.562000000000000388,-1.186093339505327471
0.563000000000000389,-1.180226599570358914
0.564000000000000390,-1.174373686475719936
0.565000000000000391,-1.168534467452345016
0.566000000000000392,-1.162708819537398686
0.567000000000000393,-1.156896629307353930
0.568000000000000393,-1.151097792613991588
0.569000000000000394,-1.145312214323460420
0.570000000000000395,-1.139539808058462667
0.571000000000000396,-1.133780495943590205
0.572000000000000397,-1.128034208353946299
0.573000000000000398,-1.122300883667029181
0.574000000000000399,-1.116580468018002481
0.575000000000000400,-1.110872915058334076
0.576000000000000401,-1.105178185717881956
0.577000000000000401,-1.099496247970492835
0.578000000000000402,-1.093827076603057336
0.579000000000000403,-1.088170652988126541
0.580000000000000404,-1.082526964860116125
0.581000000000000405,-1.076896006095043434
0.582000000000000406,-1.071277776493918754
0.583000000000000407,-1.065672281569701951
0.584000000000000408,-1.060079532337915076
0.585000000000000409,-1.054499545110871850
0.586000000000000409,-1.048932341295538695
0.587000000000000410,-1.043377947195046618
0.588000000000000411,-1.037836393813802216
0.589000000000000412,-1.032307716666272634
0.590000000000000413,-1.026791955589345218
0.591000000000000414,-1.021289154558318257
0.592000000000000415,-1.015799361506508403
0.593000000000000416,-1.010322628148399016
0.594000000000000417,-1.004859009806380099
0.595000000000000417,-0.999408565241072466
0.596000000000000418,-0.993971356485091939
0.597000000000000419,-0.988547448680426655
0.598000000000000420,-0.983136909919215540
0.599000000000000421,-0.977739811088031319
0.600000000000000422,-0.972356225715581113
0.601000000000000423,-0.966986229823810328
0.602000000000000424,-0.961629901782388385
0.603000000000000425,-0.956287322166541331
0.604000000000000425,-0.950958573618187253
0.605000000000000426,-0.945643740710353287
0.606000000000000427,-0.940342909814880890
0.607000000000000428,-0.935056168973247281
0.608000000000000429,-0.929783607770708231
0.609000000000000430,-0.924525317213424125
0.610000000000000431,-0.919281389608826549
0.611000000000000432,-0.914051918448976819
0.612000000000000433,-0.908836998296957743
0.613000000000000433,-0.903636724676297853
