# Montmorillonite-001-NaCEC108_HYDROGENSULFITE-AC
# h[nm],U(h)[kJ/mol]
0.149999999999999994,100.302407103587995607
0.150999999999999995,99.111313033073287215
0.151999999999999996,97.830875145720042951
0.152999999999999997,96.500119319095475134
0.153999999999999998,95.152090293564924650
0.154999999999999999,93.810087967515713103
0.156000000000000000,92.487888728483625300
0.157000000000000001,91.191640558443509690
0.158000000000000002,89.922178625291763865
0.159000000000000002,88.677144803346394042
0.160000000000000003,87.452662681783891685
0.161000000000000004,86.244520071463597333
0.162000000000000005,85.048909721750902690
0.163000000000000006,83.862818268269975874
0.164000000000000007,82.684160027769422641
0.165000000000000008,81.511742501097245395
0.166000000000000009,80.345134018318930202
0.167000000000000010,79.184486287001149663
0.168000000000000010,78.030348470307160369
0.169000000000000011,76.883496023626221927
0.170000000000000012,75.744787145750876789
0.171000000000000013,74.615052159402551979
0.172000000000000014,73.495016010635339399
0.173000000000000015,72.385250882852531618
0.174000000000000016,71.286154189561514727
0.175000000000000017,70.197946527873028799
0.176000000000000018,69.120684201696661830
0.177000000000000018,68.054281392545675544
0.178000000000000019,66.998537766585272379
0.179000000000000020,65.953168115629964063
0.180000000000000021,64.917831439887649481
0.181000000000000022,63.892157629848462363
0.182000000000000023,62.875770559137563964
0.183000000000000024,61.868306943982886992
0.184000000000000025,60.869430756021209561
0.185000000000000026,59.878843299850203152
0.186000000000000026,58.896289296425564430
0.187000000000000027,57.921559461972243810
0.188000000000000028,56.954490154087423548
0.189000000000000029,55.994960686249328319
0.190000000000000030,55.042888901890783870
0.191000000000000031,54.098225560842635673
0.192000000000000032,53.160948033847354566
0.193000000000000033,52.231053732786257626
0.194000000000000034,51.308553631428779340
0.195000000000000034,50.393466158586697645
0.196000000000000035,49.485811675963148559
0.197000000000000036,48.585607689065810177
0.198000000000000037,47.692864882764347101
0.199000000000000038,46.807584024176563275
0.200000000000000039,45.929753734784867447
0.201000000000000040,45.059349100832676527
0.202000000000000041,44.196331065663969184
0.203000000000000042,43.340646529096574113
0.204000000000000042,42.492229066392020798
0.205000000000000043,41.651000172091016793
0.206000000000000044,40.816870931096900676
0.207000000000000045,39.989744020121236190
0.208000000000000046,39.169515946209159551
0.209000000000000047,38.356079434863339372
0.210000000000000048,37.549325887678392633
0.211000000000000049,36.749147837862061294
0.212000000000000050,35.955441341101462172
0.213000000000000050,35.168108248565225438
0.214000000000000051,34.387058318107186494
0.215000000000000052,33.612211128714690744
0.216000000000000053,32.843497771743031421
0.217000000000000054,32.080862300359122230
0.218000000000000055,31.324262925794283063
0.219000000000000056,30.573672955422068753
0.220000000000000057,29.829081473304437822
0.221000000000000058,29.090493768695033339
0.222000000000000058,28.357931522061392116
0.223000000000000059,27.631432761531300457
0.224000000000000060,26.911051605320899682
0.225000000000000061,26.196857807719545974
0.226000000000000062,25.488936127644315377
0.227000000000000063,24.787385539696803249
0.228000000000000064,24.092318308116496439
0.229000000000000065,23.403858944087076566
0.230000000000000066,22.722143066575419823
0.231000000000000066,22.047316186317637232
0.232000000000000067,21.379532431769007417
0.233000000000000068,20.718953234847443667
0.234000000000000069,20.065745993168945915
0.235000000000000070,19.420082724236401361
0.236000000000000071,18.782138725734313311
0.237000000000000072,18.152091254731058001
0.238000000000000073,17.530118237224229460
0.239000000000000073,16.916397018106597017
0.240000000000000074,16.311103160294834424
0.241000000000000075,15.714409300472183872
0.242000000000000076,15.126484067656523536
0.243000000000000077,14.547491069629609584
0.244000000000000078,13.977587951158252366
0.245000000000000079,13.416925526908647370
0.246000000000000080,12.865646991005807109
0.247000000000000081,12.323887204319778021
0.248000000000000081,11.791772059773510506
0.249000000000000082,11.269417925259755719
0.250000000000000111,10.756931163125807771
0.251000000000000112,10.254407724633120225
0.252000000000000113,9.761932817318889732
0.253000000000000114,9.279580642778501698
0.254000000000000115,8.807414202042039619
0.255000000000000115,8.345485165436306474
0.256000000000000116,7.893833803596928433
0.257000000000000117,7.452488976121445674
0.258000000000000118,7.021468174228752801
0.259000000000000119,6.600777613707569103
0.260000000000000120,6.190412374393126527
0.261000000000000121,5.790356582403708430
0.262000000000000122,5.400583631390788675
0.263000000000000123,5.021056439107228542
0.264000000000000123,4.651727735671208563
0.265000000000000124,4.292540379997931588
0.266000000000000125,3.943427700982188533
0.267000000000000126,3.604313860140581305
0.268000000000000127,3.275114232558786309
0.269000000000000128,2.955735803136085416
0.270000000000000129,2.646077575272361759
0.271000000000000130,2.346030989300548875
0.272000000000000131,2.055480348129405943
0.273000000000000131,1.774303247723723942
0.274000000000000132,1.502371010212412816
0.275000000000000133,1.239549117576405957
0.276000000000000134,0.985697644027837105
0.277000000000000135,0.740671685348801567
0.278000000000000136,0.504321783609834706
0.279000000000000137,0.276494345836465705
0.280000000000000138,0.057032055334920020
0.281000000000000139,-0.154225725475181485
0.282000000000000139,-0.357442561741816656
0.283000000000000140,-0.552784563271262686
0.284000000000000141,-0.740420012805806826
0.285000000000000142,-0.920519006153818653
0.286000000000000143,-1.093253104732037739
0.287000000000000144,-1.258795000980754919
0.288000000000000145,-1.417318197020559944
0.289000000000000146,-1.568996696832496429
0.290000000000000147,-1.714004712164449939
0.291000000000000147,-1.852516382292121566
0.292000000000000148,-1.984705507695793347
0.293000000000000149,-2.110745297651452912
0.294000000000000150,-2.230808131678646777
0.295000000000000151,-2.345065334736013973
0.296000000000000152,-2.453686966009168025
0.297000000000000153,-2.556841621094179562
0.298000000000000154,-2.654696247343002913
0.299000000000000155,-2.747415972104578330
0.300000000000000155,-2.835163943566782585
0.301000000000000156,-2.918101183879554306
0.302000000000000157,-2.996386454218546103
0.303000000000000158,-3.070176131430501609
0.304000000000000159,-3.139624095887037392
0.305000000000000160,-3.204881630161330541
0.306000000000000161,-3.266097328133230171
0.307000000000000162,-3.323417014121255786
0.308000000000000163,-3.376983671635481077
0.309000000000000163,-3.426937381342682443
0.310000000000000164,-3.473415267834612852
0.311000000000000165,-3.516551454790999287
0.312000000000000166,-3.556477028131761919
0.313000000000000167,-3.593320006756542284
0.314000000000000168,-3.627205320474939931
0.315000000000000169,-3.658254794737016535
0.316000000000000170,-3.686587141780900190
0.317000000000000171,-3.712317957822123926
0.318000000000000171,-3.735559725918287999
0.319000000000000172,-3.756421824151867206
0.320000000000000173,-3.775010538783943215
0.321000000000000174,-3.791429082041749332
0.322000000000000175,-3.805777614213887716
0.323000000000000176,-3.818153269737705635
0.324000000000000177,-3.828650186974651426
0.325000000000000178,-3.837359541380499284
0.326000000000000179,-3.844369581788979584
0.327000000000000179,-3.849765669538432356
0.328000000000000180,-3.853630320182529267
0.329000000000000181,-3.856043247537711327
0.330000000000000182,-3.857081409830613872
0.331000000000000183,-3.856819057720465960
0.332000000000000184,-3.855327783981822076
0.333000000000000185,-3.852676574644039675
0.334000000000000186,-3.848931861394268683
0.335000000000000187,-3.844157575061014853
0.336000000000000187,-3.838415200005464101
0.337000000000000188,-3.831763829257261111
0.338000000000000189,-3.824260220241268549
0.339000000000000190,-3.815958850950775805
0.340000000000000191,-3.806911976431580857
0.341000000000000192,-3.797169685450102694
0.342000000000000193,-3.786779957226818372
0.343000000000000194,-3.775788718124561516
0.344000000000000195,-3.764239898188527000
0.345000000000000195,-3.752175487442792168
0.346000000000000196,-3.739635591854674423
0.347000000000000197,-3.726658488885468579
0.348000000000000198,-3.713280682552409839
0.349000000000000199,-3.699536957932937131
0.350000000000000200,-3.685460435048322658
0.351000000000000201,-3.671082622069293588
0.352000000000000202,-3.656433467791638581
0.353000000000000203,-3.641541413334989929
0.354000000000000203,-3.626433443022668790
0.355000000000000204,-3.611135134405094593
0.356000000000000205,-3.595670707393652243
0.357000000000000206,-3.580063072475978991
0.358000000000000207,-3.564333877987345911
0.359000000000000208,-3.548503556416666704
0.360000000000000209,-3.532591369728938613
0.361000000000000210,-3.516615453689096338
0.362000000000000210,-3.500592861175403581
0.363000000000000211,-3.484539604473157137
0.364000000000000212,-3.468470696542238496
0.365000000000000213,-3.452400191254370920
0.366000000000000214,-3.436341222598351841
0.367000000000000215,-3.420306042853479056
0.368000000000000216,-3.404306059733545275
0.369000000000000217,-3.388351872505377393
0.370000000000000218,-3.372453307087776686
0.371000000000000218,-3.356619450138004002
0.372000000000000219,-3.340858682134645541
0.373000000000000220,-3.325178709466747762
0.374000000000000221,-3.309586595540408016
0.375000000000000222,-3.294088790914961429
0.376000000000000223,-3.278691162482068933
0.377000000000000224,-3.263399021701597569
0.378000000000000225,-3.248217151909186917
0.379000000000000226,-3.233149834710921766
0.380000000000000226,-3.218200875481298517
0.381000000000000227,-3.203373627980960148
0.382000000000000228,-3.188671018111401079
0.383000000000000229,-3.174095566824039594
0.384000000000000230,-3.159649412201370300
0.385000000000000231,-3.145334330728416283
0.386000000000000232,-3.131151757772523414
0.387000000000000233,-3.117102807290081490
0.388000000000000234,-3.103188290778563729
0.389000000000000234,-3.089408735492572333
0.390000000000000235,-3.075764401942414850
0.391000000000000236,-3.062255300693890625
0.392000000000000237,-3.048881208487753458
0.393000000000000238,-3.035641683697401838
0.394000000000000239,-3.022536081143078146
0.395000000000000240,-3.009563566280859526
0.396000000000000241,-2.996723128784459345
0.397000000000000242,-2.984013595537725383
0.398000000000000242,-2.971433643055507723
0.399000000000000243,-2.958981809350329506
0.400000000000000244,-2.946656505262041925
0.401000000000000245,-2.934456025267492940
0.402000000000000246,-2.922378557786752928
0.403000000000000247,-2.910422195002426271
0.404000000000000248,-2.898584942208048965
0.405000000000000249,-2.886864726701476869
0.406000000000000250,-2.875259406238650950
0.407000000000000250,-2.863766777063031732
0.408000000000000251,-2.852384581525483576
0.409000000000000252,-2.841110515309210882
0.410000000000000253,-2.829942234273915780
0.411000000000000254,-2.818877360933099041
0.412000000000000255,-2.807913490578015647
0.413000000000000256,-2.797048197061583252
0.414000000000000257,-2.786279038255016882
0.415000000000000258,-2.775603561189905921
0.416000000000000258,-2.765019306897787299
0.417000000000000259,-2.754523814959290995
0.418000000000000260,-2.744114627774293158
0.419000000000000261,-2.733789294564421546
0.420000000000000262,-2.723545375118797018
0.421000000000000263,-2.713380443293671007
0.422000000000000264,-2.703292090276203652
0.423000000000000265,-2.693277927622408807
0.424000000000000266,-2.683335590079017230
0.425000000000000266,-2.673462738198504329
0.426000000000000267,-2.663657060756525752
0.427000000000000268,-2.653916276980490263
0.428000000000000269,-2.644238138597782672
0.429000000000000270,-2.634620431711950150
0.430000000000000271,-2.625060978514724752
0.431000000000000272,-2.615557638841677246
0.432000000000000273,-2.606108311578864800
0.433000000000000274,-2.596710935927712072
0.434000000000000274,-2.587363492535014409
0.435000000000000275,-2.578064004494778683
0.436000000000000276,-2.568810538228343265
0.437000000000000277,-2.559601204248966866
0.438000000000000278,-2.550434157816908076
0.439000000000000279,-2.541307599490747915
0.440000000000000280,-2.532219775580485166
0.441000000000000281,-2.523168978507758453
0.442000000000000282,-2.514153547078367801
0.443000000000000282,-2.505171866671923375
0.444000000000000283,-2.496222369353509496
0.445000000000000284,-2.487303533911798592
0.446000000000000285,-2.478413885828013363
0.447000000000000286,-2.469551997180023939
0.448000000000000287,-2.460716486485442278
0.449000000000000288,-2.451906018487740369
0.450000000000000289,-2.443119303888956928
0.451000000000000290,-2.434355099032596392
0.452000000000000290,-2.425612205540131239
0.453000000000000291,-2.416889469904273557
0.454000000000000292,-2.408185783042193773
0.455000000000000293,-2.399500079811611730
0.456000000000000294,-2.390831338492591662
0.457000000000000295,-2.382178580237784615
0.458000000000000296,-2.373540868493626554
0.459000000000000297,-2.364917308395041218
0.460000000000000298,-2.356307046135913907
0.461000000000000298,-2.347709268317637488
0.462000000000000299,-2.339123201277818254
0.463000000000000300,-2.330548110401163608
0.464000000000000301,-2.321983299414514867
0.465000000000000302,-2.313428109667831301
0.466000000000000303,-2.304881919402838264
0.467000000000000304,-2.296344143011044281
0.468000000000000305,-2.287814230282640082
0.469000000000000306,-2.279291665647769971
0.470000000000000306,-2.270775967411633012
0.471000000000000307,-2.262266686984623298
0.472000000000000308,-2.253763408108889088
0.473000000000000309,-2.245265746082413916
0.474000000000000310,-2.236773346981744570
0.475000000000000311,-2.228285886884440625
0.476000000000000312,-2.219803071092233182
0.477000000000000313,-2.211324633355787661
0.478000000000000314,-2.202850335101962820
0.479000000000000314,-2.194379964664415539
0.480000000000000315,-2.185913336518241934
0.481000000000000316,-2.177450290519460374
0.482000000000000317,-2.168990691149914163
0.483000000000000318,-2.160534426768290661
0.484000000000000319,-2.152081408867768886
0.485000000000000320,-2.143631571340900877
0.486000000000000321,-2.135184869752152714
0.487000000000000322,-2.126741280618625218
0.488000000000000322,-2.118300800699299380
0.489000000000000323,-2.109863446293291034
0.490000000000000324,-2.101429252547386994
0.491000000000000325,-2.092998272773218815
0.492000000000000326,-2.084570577774350397
0.493000000000000327,-2.076146255183569433
0.494000000000000328,-2.067725408810593191
0.495000000000000329,-2.059308158000404454
0.496000000000000330,-2.050894637002398380
0.497000000000000330,-2.042484994350550753
0.498000000000000331,-2.034079392254630303
0.499000000000000332,-2.025678006002727738
0.500000000000000333,-2.017281023375093962
0.501000000000000334,-2.008888644069378504
0.502000000000000335,-2.000501079137380511
0.503000000000000336,-1.992118550433315871
0.504000000000000337,-1.983741290073651964
0.505000000000000338,-1.975369539908500283
0.506000000000000338,-1.967003551004609552
0.507000000000000339,-1.958643583139906053
0.508000000000000340,-1.950289904309559619
0.509000000000000341,-1.941942790243609052
0.510000000000000342,-1.933602523935979534
0.511000000000000343,-1.925269395184947330
0.512000000000000344,-1.916943700144906115
0.513000000000000345,-1.908625740889404288
0.514000000000000346,-1.900315824985373769
0.515000000000000346,-1.892014265078407309
0.516000000000000347,-1.883721378489027654
0.517000000000000348,-1.875437486819863775
0.518000000000000349,-1.867162915573545634
0.519000000000000350,-1.858897993781283287
0.520000000000000351,-1.850643053641946256
0.521000000000000352,-1.842398430171562795
0.522000000000000353,-1.834164460863067614
0.523000000000000353,-1.825941485356173732
0.524000000000000354,-1.817729845117263654
0.525000000000000355,-1.809529883129101346
0.526000000000000356,-1.801341943590242689
0.527000000000000357,-1.793166371624030919
0.528000000000000358,-1.785003512996954811
0.529000000000000359,-1.776853713846299643
0.530000000000000360,-1.768717320416851368
0.531000000000000361,-1.760594678806581825
0.532000000000000361,-1.752486134721090494
0.533000000000000362,-1.744392033236694006
0.534000000000000363,-1.736312718571963787
0.535000000000000364,-1.728248533867598358
0.536000000000000365,-1.720199820974424254
0.537000000000000366,-1.712166920249411417
0.538000000000000367,-1.704150170359482575
0.539000000000000368,-1.696149908093059766
0.540000000000000369,-1.688166468179054247
0.541000000000000369,-1.680200183113283119
0.542000000000000370,-1.672251382992025359
0.543000000000000371,-1.664320395352662629
0.544000000000000372,-1.656407545021190586
0.545000000000000373,-1.648513153966476796
0.546000000000000374,-1.640637541161077850
0.547000000000000375,-1.632781022448497765
0.548000000000000376,-1.624943910416731585
0.549000000000000377,-1.617126514277920535
0.550000000000000377,-1.609329139753993498
0.551000000000000378,-1.601552088968140053
0.552000000000000379,-1.593795660341976728
0.553000000000000380,-1.586060148498254829
0.554000000000000381,-1.578345844168955070
0.555000000000000382,-1.570653034108691726
0.556000000000000383,-1.562982001013180078
0.557000000000000384,-1.555333023442754037
0.558000000000000385,-1.547706375750687258
0.559000000000000385,-1.540102328016281108
0.560000000000000386,-1.532521145982514543
0.561000000000000387,-1.524963090998184168
0.562000000000000388,-1.517428419964345521
0.563000000000000389,-1.509917385285024505
0.564000000000000390,-1.502430234821966248
0.565000000000000391,-1.494967211853388545
0.566000000000000392,-1.487528555036576217
0.567000000000000393,-1.480114498374225374
0.568000000000000393,-1.472725271184394558
0.569000000000000394,-1.465361098073979962
0.570000000000000395,-1.458022198915595924
0.571000000000000396,-1.450708788827724360
0.572000000000000397,-1.443421078158101833
0.573000000000000398,-1.436159272470134196
0.574000000000000399,-1.428923572532345698
0.575000000000000400,-1.421714174310670931
0.576000000000000401,-1.414531268963551636
0.577000000000000401,-1.407375042839742019
0.578000000000000402,-1.400245677478674455
0.579000000000000403,-1.393143349613346960
0.580000000000000404,-1.386068231175647814
0.581000000000000405,-1.379020489303967478
0.582000000000000406,-1.372000286353093790
0.583000000000000407,-1.365007779906231233
0.584000000000000408,-1.358043122789125423
0.585000000000000409,-1.351106463086163556
0.586000000000000409,-1.344197944158402880
0.587000000000000410,-1.337317704663450790
0.588000000000000411,-1.330465878577080208
0.589000000000000412,-1.323642595216590667
0.590000000000000413,-1.316847979265741042
0.591000000000000414,-1.310082150801266110
0.592000000000000415,-1.303345225320887035
0.593000000000000416,-1.296637313772716293
0.594000000000000417,-1.289958522586025058
0.595000000000000417,-1.283308953703348410
0.596000000000000418,-1.276688704613743175
0.597000000000000419,-1.270097868387303208
0.598000000000000420,-1.263536533710729159
0.599000000000000421,-1.257004784923992924
0.600000000000000422,-1.250502702057989968
0.601000000000000423,-1.244030360873149998
0.602000000000000424,-1.237587832898946694
0.603000000000000425,-1.231175185474258083
0.604000000000000425,-1.224792481788523624
0.605000000000000426,-1.218439780923646021
0.606000000000000427,-1.212117137896639774
0.607000000000000428,-1.205824603702857711
0.608000000000000429,-1.199562225359951384
0.609000000000000430,-1.193330045952282426
0.610000000000000431,-1.187128104675972740
0.611000000000000432,-1.180956436884388783
0.612000000000000433,-1.174815074134087256
0.613000000000000433,-1.168704044231205996
