# grapheneoxide_GANSCA-AC
# h[nm],U(h)[kJ/mol]
0.149999999999999994,109.524177796120170569
0.150999999999999995,107.235558822420557590
0.151999999999999996,105.584390595186704331
0.152999999999999997,104.108411288533801553
0.153999999999999998,102.623736526254560886
0.154999999999999999,101.083508642948501688
0.156000000000000000,99.499270268294054631
0.157000000000000001,97.900033721928508612
0.158000000000000002,96.313202864286679983
0.159000000000000002,94.757533205251149866
0.160000000000000003,93.242218957602460705
0.161000000000000004,91.768679421388640094
0.162000000000000005,90.333163997410707680
0.163000000000000006,88.929231896321653039
0.164000000000000007,87.549708469561124957
0.165000000000000008,86.188020652366901686
0.166000000000000009,84.838964778477816253
0.167000000000000010,83.499022671584967270
0.168000000000000010,82.166355493179750624
0.169000000000000011,80.840593437933733867
0.170000000000000012,79.522517388854225828
0.171000000000000013,78.213704219821309493
0.172000000000000014,76.916184814590749852
0.173000000000000015,75.632144953003489718
0.174000000000000016,74.363684525900680455
0.175000000000000017,73.112639872627553927
0.176000000000000018,71.880466832465330640
0.177000000000000018,70.668177687740708848
0.178000000000000019,69.476322884293907123
0.179000000000000020,68.305007650384837348
0.180000000000000021,67.153933903603572730
0.181000000000000022,66.022458746177363764
0.182000000000000023,64.909662107252614760
0.183000000000000024,63.814417483661465269
0.184000000000000025,62.735461113093641927
0.185000000000000026,61.671456193012865299
0.186000000000000026,60.621049882447245238
0.187000000000000027,59.582921768193536138
0.188000000000000028,58.555823238283494447
0.189000000000000029,57.538607793126871570
0.190000000000000030,56.530252755775052265
0.191000000000000031,55.529873138447399583
0.192000000000000032,54.536728605331191488
0.193000000000000033,53.550224563694044377
0.194000000000000034,52.569908436867834212
0.195000000000000034,51.595462141718577698
0.196000000000000035,50.626691725276103284
0.197000000000000036,49.663515023127217773
0.198000000000000037,48.705948096357019494
0.199000000000000038,47.754091092379063355
0.200000000000000039,46.808114064065783566
0.201000000000000040,45.868243175610821538
0.202000000000000041,44.934747625557058370
0.203000000000000042,44.007927529288970447
0.204000000000000042,43.088102925995052317
0.205000000000000043,42.175604008945455803
0.206000000000000044,41.270762622671199438
0.207000000000000045,40.373905025692785387
0.208000000000000046,39.485345881994291517
0.209000000000000047,38.605383417506132560
0.210000000000000048,37.734295658405770268
0.211000000000000049,36.872337655024900016
0.212000000000000050,36.019739587542851211
0.213000000000000050,35.176705646498668045
0.214000000000000051,34.343413581586098360
0.215000000000000052,33.520014815422491949
0.216000000000000053,32.706635024310251936
0.217000000000000054,31.903375094839113046
0.218000000000000055,31.110312373000851949
0.219000000000000056,30.327502130884642639
0.220000000000000057,29.554979184640529866
0.221000000000000058,28.792759605974907799
0.222000000000000058,28.040842477751152018
0.223000000000000059,27.299211652163251074
0.224000000000000060,26.567837477307641336
0.225000000000000061,25.846678464730267422
0.226000000000000062,25.135682876626066928
0.227000000000000063,24.434790216801474116
0.228000000000000064,23.743932614280584659
0.229000000000000065,23.063036092560086132
0.230000000000000066,22.392021721032186576
0.231000000000000066,21.730806648032842787
0.232000000000000067,21.079305017385518539
0.233000000000000068,20.437428772241823083
0.234000000000000069,19.805088351523274071
0.235000000000000070,19.182193285390130910
0.236000000000000071,18.568652696954025316
0.237000000000000072,17.964375717954190748
0.238000000000000073,17.369271826378898993
0.239000000000000073,16.783251114072562871
0.240000000000000074,16.206224492259632797
0.241000000000000075,15.638103842676169819
0.242000000000000076,15.078802121653904322
0.243000000000000077,14.528233424077736657
0.244000000000000078,13.986313013658255855
0.245000000000000079,13.452957325444634407
0.246000000000000080,12.928083945968159796
0.247000000000000081,12.411611575863524592
0.248000000000000081,11.903459979278903091
0.249000000000000082,11.403549923862893678
0.250000000000000111,10.911803114614759380
0.251000000000000112,10.428142124410346270
0.252000000000000113,9.952490323571055342
0.253000000000000114,9.484771810434324379
0.254000000000000115,9.024911344506996613
0.255000000000000115,8.572834283443956593
0.256000000000000116,8.128466524789478953
0.257000000000000117,7.691734453148946216
0.258000000000000118,7.262564893222831941
0.259000000000000119,6.840885068930464108
0.260000000000000120,6.426622568676751079
0.261000000000000121,6.019705316669713646
0.262000000000000122,5.620061550075981849
0.263000000000000123,5.227619801705512437
0.264000000000000123,4.842308887841427989
0.265000000000000124,4.464057900775229903
0.266000000000000125,4.092796205568785872
0.267000000000000126,3.728453440540703490
0.268000000000000127,3.370959520963333400
0.269000000000000128,3.020244645457351940
0.270000000000000129,2.676239304580035672
0.271000000000000130,2.338874291120342175
0.272000000000000131,2.008080711637923788
0.273000000000000131,1.683789998811156874
0.274000000000000132,1.365933924191852666
0.275000000000000133,1.054444610999031973
0.276000000000000134,0.749254546620693906
0.277000000000000135,0.450296594530691874
0.278000000000000136,0.157504005364961230
0.279000000000000137,-0.129189573060798146
0.280000000000000138,-0.409850086973073569
0.281000000000000139,-0.684543069248468861
0.282000000000000139,-0.953333633519729107
0.283000000000000140,-1.216286469860653252
0.284000000000000141,-1.473465842100725620
0.285000000000000142,-1.724935586793149067
0.286000000000000143,-1.970759113834854803
0.287000000000000144,-2.210999408714239944
0.288000000000000145,-2.445719036342761221
0.289000000000000146,-2.674980146407759385
0.290000000000000147,-2.898844480169455728
0.291000000000000147,-3.117373378610939660
0.292000000000000148,-3.330627791839779750
0.293000000000000149,-3.538668289630154895
0.294000000000000150,-3.741555072988076436
0.295000000000000151,-3.939347986616732467
0.296000000000000152,-4.132106532155738421
0.297000000000000153,-4.319889882066016540
0.298000000000000154,-4.502756894031817225
0.299000000000000155,-4.680766125752024109
0.300000000000000155,-4.853975849995036285
0.301000000000000156,-5.022444069794363308
0.302000000000000157,-5.186228533666366047
0.303000000000000158,-5.345386750735833026
0.304000000000000159,-5.499976005660881739
0.305000000000000160,-5.650053373254278810
0.306000000000000161,-5.795675732704909322
0.307000000000000162,-5.936899781309778135
0.308000000000000163,-6.073782047633860870
0.309000000000000163,-6.206378904022431087
0.310000000000000164,-6.334746578397776773
0.311000000000000165,-6.458941165279466823
0.312000000000000166,-6.579018635974779095
0.313000000000000167,-6.695034847893087893
0.314000000000000168,-6.807045552945031552
0.315000000000000169,-6.915106404994401323
0.316000000000000170,-7.019272966337356756
0.317000000000000171,-7.119600713189973007
0.318000000000000171,-7.216145040171447533
0.319000000000000172,-7.308961263776370565
0.320000000000000173,-7.398104624834802578
0.321000000000000174,-7.483630289964383842
0.322000000000000175,-7.565593352023782359
0.323000000000000176,-7.644048829581156390
0.324000000000000177,-7.719051665415955554
0.325000000000000178,-7.790656724075873285
0.326000000000000179,-7.858918788514965392
0.327000000000000179,-7.923892555841670848
0.328000000000000180,-7.985632632208698567
0.329000000000000181,-8.044193526879421796
0.330000000000000182,-8.099629645507370412
0.331000000000000183,-8.151995282667900966
0.332000000000000184,-8.201344613682270079
0.333000000000000185,-8.247731685776223287
0.334000000000000186,-8.291210408615997451
0.335000000000000187,-8.331834544265701581
0.336000000000000187,-8.369657696610705244
0.337000000000000188,-8.404733300291718834
0.338000000000000189,-8.437114609194980019
0.339000000000000190,-8.466854684543504206
0.340000000000000191,-8.494006382634234242
0.341000000000000192,-8.518622342265720349
0.342000000000000193,-8.540754971900190284
0.343000000000000194,-8.560456436603381292
0.344000000000000195,-8.577778644804364916
0.345000000000000195,-8.592773234917135738
0.346000000000000196,-8.605491561864116790
0.347000000000000197,-8.615984683541022093
0.348000000000000198,-8.624303347261029984
0.349000000000000199,-8.630497976214961398
0.350000000000000200,-8.634618655982858826
0.351000000000000201,-8.636715121130777106
0.352000000000000202,-8.636836741925204564
0.353000000000000203,-8.635032511196039096
0.354000000000000203,-8.631351031377484162
0.355000000000000204,-8.625840501754527878
0.356000000000000205,-8.618548705941288191
0.357000000000000206,-8.609522999615958128
0.358000000000000207,-8.598810298535129348
0.359000000000000208,-8.586457066849158437
0.360000000000000209,-8.572509305738487129
0.361000000000000210,-8.557012542389117016
0.362000000000000210,-8.540011819324268671
0.363000000000000211,-8.521551684107366853
0.364000000000000212,-8.501676179430441849
0.365000000000000213,-8.480428833600168304
0.366000000000000214,-8.457852651432743230
0.367000000000000215,-8.433990105567149342
0.368000000000000216,-8.408883128205278723
0.369000000000000217,-8.382573103285867688
0.370000000000000218,-8.355100859098206101
0.371000000000000218,-8.326506661340150828
0.372000000000000219,-8.296830206624004944
0.373000000000000220,-8.266110616432689184
0.374000000000000221,-8.234386431527553896
0.375000000000000222,-8.201695606808080186
0.376000000000000223,-8.168075506623065252
0.377000000000000224,-8.133562900531636330
0.378000000000000225,-8.098193959511769791
0.379000000000000226,-8.062004252613133914
0.380000000000000226,-8.025028744050432650
0.381000000000000227,-7.987301790732336926
0.382000000000000228,-7.948857140220994211
0.383000000000000229,-7.909727929115939915
0.384000000000000230,-7.869946681855938486
0.385000000000000231,-7.829545309931742914
0.386000000000000232,-7.788555111502124539
0.387000000000000233,-7.747006771405200887
0.388000000000000234,-7.704930361556556306
0.389000000000000234,-7.662355341725442415
0.390000000000000235,-7.619310560679764421
0.391000000000000236,-7.575824257690508823
0.392000000000000237,-7.531924064385774997
0.393000000000000238,-7.487637006944543927
0.394000000000000239,-7.442989508619871408
0.395000000000000240,-7.398007392581286368
0.396000000000000241,-7.352715885065828516
0.397000000000000242,-7.307139618827070748
0.398000000000000242,-7.261302636871562299
0.399000000000000243,-7.215228396471755623
0.400000000000000244,-7.168939773444684249
0.401000000000000245,-7.122459066685633111
0.402000000000000246,-7.075808002945852770
0.403000000000000247,-7.029007741843557255
0.404000000000000248,-6.982078881097514511
0.405000000000000249,-6.935041461972471843
0.406000000000000250,-6.887914974925789302
0.407000000000000250,-6.840718365444812932
0.408000000000000251,-6.793470040064519821
0.409000000000000252,-6.746187872555195142
0.410000000000000253,-6.698889210269930672
0.411000000000000254,-6.651590880641994552
0.412000000000000255,-6.604309197822135324
0.413000000000000256,-6.557059969446266123
0.414000000000000257,-6.509858503523853202
0.415000000000000258,-6.462719615437838350
0.416000000000000258,-6.415657635046832397
0.417000000000000259,-6.368686413880760178
0.418000000000000260,-6.321819332421106274
0.419000000000000261,-6.275069307457329160
0.420000000000000262,-6.228448799511062006
0.421000000000000263,-6.181969820320069253
0.422000000000000264,-6.135643940374007066
0.423000000000000265,-6.089482296494341362
0.424000000000000266,-6.043495599451101263
0.425000000000000266,-5.997694141609064999
0.426000000000000267,-5.952087804596560616
0.427000000000000268,-5.906686066990033623
0.428000000000000269,-5.861498012007874792
0.429000000000000270,-5.816532335207227788
0.430000000000000271,-5.771797352177618912
0.431000000000000272,-5.727301006225642865
0.432000000000000273,-5.683050876045002475
0.433000000000000274,-5.639054183366515538
0.434000000000000274,-5.595317800582871648
0.435000000000000275,-5.551848258343168752
0.436000000000000276,-5.508651753112483007
0.437000000000000277,-5.465734154691839208
0.438000000000000278,-5.423101013694309636
0.439000000000000279,-5.380757568973068672
0.440000000000000280,-5.338708754997412598
0.441000000000000281,-5.296959209173039973
0.442000000000000282,-5.255513279103056767
0.443000000000000282,-5.214375029786236126
0.444000000000000283,-5.173548250749485433
0.445000000000000284,-5.133036463111420034
0.446000000000000285,-5.092842926574201456
0.447000000000000286,-5.052970646341153227
0.448000000000000287,-5.013422379957421349
0.449000000000000288,-4.974200644071617106
0.450000000000000289,-4.935307721116066304
0.451000000000000290,-4.896745665903820210
0.452000000000000290,-4.858516312140514160
0.453000000000000291,-4.820621278849335667
0.454000000000000292,-4.783061976707640994
0.455000000000000293,-4.745839614293700492
0.456000000000000294,-4.708955204242331938
0.457000000000000295,-4.672409569308292987
0.458000000000000296,-4.636203348336313645
0.459000000000000297,-4.600337002136972941
0.460000000000000298,-4.564810819267514752
0.461000000000000298,-4.529624921717017472
0.462000000000000299,-4.494779270495298462
0.463000000000000300,-4.460273671125059458
0.464000000000000301,-4.426107779036985157
0.465000000000000302,-4.392281104867490349
0.466000000000000303,-4.358793019658890877
0.467000000000000304,-4.325642759961993988
0.468000000000000305,-4.292829432841061887
0.469000000000000306,-4.260352020781224880
0.470000000000000306,-4.228209386498567035
0.471000000000000307,-4.196400277652991839
0.472000000000000308,-4.164923331464324363
0.473000000000000309,-4.133777079231913731
0.474000000000000310,-4.102959950758228835
0.475000000000000311,-4.072470278676879829
0.476000000000000312,-4.042306302685782171
0.477000000000000313,-4.012466173685838911
0.478000000000000314,-3.982947957826015628
0.479000000000000314,-3.953749640455423986
0.480000000000000315,-3.924869129983166172
0.481000000000000316,-3.896304261646811540
0.482000000000000317,-3.868052801190275058
0.483000000000000318,-3.840112448452033700
0.484000000000000319,-3.812480840864571174
0.485000000000000320,-3.785155556866039550
0.486000000000000321,-3.758134119225074787
0.487000000000000322,-3.731413998279839994
0.488000000000000322,-3.704992615092240982
0.489000000000000323,-3.678867344518514049
0.490000000000000324,-3.653035518197158549
0.491000000000000325,-3.627494427455382642
0.492000000000000326,-3.602241326135144472
0.493000000000000327,-3.577273433339995368
0.494000000000000328,-3.552587936103835720
0.495000000000000329,-3.528181991982761723
0.496000000000000330,-3.504052731571197565
0.497000000000000330,-3.480197260943533877
0.498000000000000331,-3.456612664022374215
0.499000000000000332,-3.433296004874763607
0.500000000000000333,-3.410244329937473395
0.501000000000000334,-3.387454670172596938
0.502000000000000335,-3.364924043154739142
0.503000000000000336,-3.342649455090962896
0.504000000000000337,-3.320627902774741180
0.505000000000000338,-3.298856375475137437
0.506000000000000338,-3.277331856762454976
0.507000000000000339,-3.256051326271550472
0.508000000000000340,-3.235011761404038566
0.509000000000000341,-3.214210138970658104
0.510000000000000342,-3.193643436774903144
0.511000000000000343,-3.173308635139238554
0.512000000000000344,-3.153202718374992664
0.513000000000000345,-3.133322676197203727
0.514000000000000346,-3.113665505085582375
0.515000000000000346,-3.094228209592702505
0.516000000000000347,-3.075007803600667167
0.517000000000000348,-3.056001311527388076
0.518000000000000349,-3.037205769483560580
0.519000000000000350,-3.018618226381555303
0.520000000000000351,-3.000235744997286069
0.521000000000000352,-2.982055402986207859
0.522000000000000353,-2.964074293854515929
0.523000000000000353,-2.946289527886615023
0.524000000000000354,-2.928698233030010645
0.525000000000000355,-2.911297555738589615
0.526000000000000356,-2.894084661775373934
0.527000000000000357,-2.877056736975834639
0.528000000000000358,-2.860210987972656937
0.529000000000000359,-2.843544642883123696
0.530000000000000360,-2.827054951959949491
0.531000000000000361,-2.810739188206673234
0.532000000000000361,-2.794594647958471345
0.533000000000000362,-2.778618651429414221
0.534000000000000363,-2.762808543227037728
0.535000000000000364,-2.747161692835190294
0.536000000000000365,-2.731675495066030024
0.537000000000000366,-2.716347370482081303
0.538000000000000367,-2.701174765789173371
0.539000000000000368,-2.686155154201221862
0.540000000000000369,-2.671286035777542089
0.541000000000000369,-2.656564937733683074
0.542000000000000370,-2.641989414726450658
0.543000000000000371,-2.627557049114013665
0.544000000000000372,-2.613265451191833399
0.545000000000000373,-2.599112259405185643
0.546000000000000374,-2.585095140539016345
0.547000000000000375,-2.571211789885884613
0.548000000000000376,-2.557459931392719987
0.549000000000000377,-2.543837317787070340
0.550000000000000377,-2.530341730683550061
0.551000000000000378,-2.516970980671161762
0.552000000000000379,-2.503722907382176732
0.553000000000000380,-2.490595379543170562
0.554000000000000381,-2.477586295008889827
0.555000000000000382,-2.464693580779588444
0.556000000000000383,-2.451915193002350613
0.557000000000000384,-2.439249116957118879
0.558000000000000385,-2.426693367027880743
0.559000000000000385,-2.414245986659688370
0.560000000000000386,-2.401905048301977708
0.561000000000000387,-2.389668653338784754
0.562000000000000388,-2.377534932006342583
0.563000000000000389,-2.365502043298621793
0.564000000000000390,-2.353568174861249140
0.565000000000000391,-2.341731542874363914
0.566000000000000392,-2.329990391924821491
0.567000000000000393,-2.318342994868280105
0.568000000000000393,-2.306787652681544287
0.569000000000000394,-2.295322694305660605
0.570000000000000395,-2.283946476480195997
0.571000000000000396,-2.272657383569053557
0.572000000000000397,-2.261453827378339554
0.573000000000000398,-2.250334246966554375
0.574000000000000399,-2.239297108447600770
0.575000000000000400,-2.228340904786908716
0.576000000000000401,-2.217464155591058805
0.577000000000000401,-2.206665406891315850
0.578000000000000402,-2.195943230921308942
0.579000000000000403,-2.185296225889273192
0.580000000000000404,-2.174723015745169796
0.581000000000000405,-2.164222249942951315
0.582000000000000406,-2.153792603198337652
0.583000000000000407,-2.143432775242337662
0.584000000000000408,-2.133141490570871213
0.585000000000000409,-2.122917498190699526
0.586000000000000409,-2.112759571361987998
0.587000000000000410,-2.102666507337744406
0.588000000000000411,-2.092637127100360761
0.589000000000000412,-2.082670275095559909
0.590000000000000413,-2.072764818963918731
0.591000000000000414,-2.062919649270243294
0.592000000000000415,-2.053133679231016195
0.593000000000000416,-2.043405844440087105
0.594000000000000417,-2.033735102592852506
0.595000000000000417,-2.024120433209162684
0.596000000000000418,-2.014560837355011014
0.597000000000000419,-2.005055337363379930
0.598000000000000420,-1.995602976554253782
0.599000000000000421,-1.986202818954086569
0.600000000000000422,-1.976853949014830025
0.601000000000000423,-1.967555471332710582
0.602000000000000424,-1.958306510366901065
0.603000000000000425,-1.949106210158237928
0.604000000000000425,-1.939953734048121436
0.605000000000000426,-1.930848264397737823
0.606000000000000427,-1.921789002307785044
0.607000000000000428,-1.912775167338676585
0.608000000000000429,-1.903805997231606373
0.609000000000000430,-1.894880747630277584
0.610000000000000431,-1.885998691803697724
0.611000000000000432,-1.877159120369942924
0.612000000000000433,-1.868361341021076427
0.613000000000000433,-1.859604678249346721
