# grapheneoxide_VALSCA-AC
# h[nm],U(h)[kJ/mol]
0.149999999999999994,104.931944345200776070
0.150999999999999995,102.910751794878962073
0.151999999999999996,101.329556652057377164
0.152999999999999997,99.813952268849376992
0.153999999999999998,98.247180920937807969
0.154999999999999999,96.624670490591739735
0.156000000000000000,94.978950017967079589
0.157000000000000001,93.344781264096468476
0.158000000000000002,91.746093722787378510
0.159000000000000002,90.193814985269511908
0.160000000000000003,88.688392903400156797
0.161000000000000004,87.223686551481279139
0.162000000000000005,85.790612796590295375
0.163000000000000006,84.379907318943693895
0.164000000000000007,82.983876792932036892
0.165000000000000008,81.597265796981858443
0.166000000000000009,80.217454062579392371
0.167000000000000010,78.844208966936875527
0.168000000000000010,77.479188091979906972
0.169000000000000011,76.125342236821040842
0.170000000000000012,74.786324017324517399
0.171000000000000013,73.465967660297550879
0.172000000000000014,72.167874257297825125
0.173000000000000015,70.895113785233093040
0.174000000000000016,69.650039705234888743
0.175000000000000017,68.434202544036267568
0.176000000000000018,67.248344098349974729
0.177000000000000018,66.092452462980617156
0.178000000000000019,64.965858859225448896
0.179000000000000020,63.867359355780763508
0.180000000000000021,62.795347373720360906
0.181000000000000022,61.747945884079058487
0.182000000000000023,60.723131130191028149
0.183000000000000024,59.718842346854991376
0.184000000000000025,58.733074204063200341
0.185000000000000026,57.763950537711011179
0.186000000000000026,56.809779349640280088
0.187000000000000027,55.869090097690218499
0.188000000000000028,54.940655001144364178
0.189000000000000029,54.023496512414418191
0.190000000000000030,53.116883306806265352
0.191000000000000031,52.220317170317045452
0.192000000000000032,51.333513066698820637
0.193000000000000033,50.456374479068770711
0.194000000000000034,49.588965880933791652
0.195000000000000034,48.731483922866331682
0.196000000000000035,47.884228644468848302
0.197000000000000036,47.047575751675871913
0.198000000000000037,46.221950747369128010
0.199000000000000038,45.407805475529457340
0.200000000000000039,44.605597439573486440
0.201000000000000040,43.815772085676670144
0.202000000000000041,43.038748101610920571
0.203000000000000042,42.274905669533715979
0.204000000000000042,41.524577525040896830
0.205000000000000043,40.788042611920182878
0.206000000000000044,40.065522079443915970
0.207000000000000045,39.357177343690899818
0.208000000000000046,38.663109923336243412
0.209000000000000047,37.983362760822878101
0.210000000000000048,37.317922749296272400
0.211000000000000049,36.666724201886481183
0.212000000000000050,36.029653020892659754
0.213000000000000050,35.406551348488719100
0.214000000000000051,34.797222506325951485
0.215000000000000052,34.201436057722418127
0.216000000000000053,33.618932852097330510
0.217000000000000054,33.049429936240798611
0.218000000000000055,32.492625240396542097
0.219000000000000056,31.948201968626573688
0.220000000000000057,31.415832642302326860
0.221000000000000058,30.895182762715968749
0.222000000000000058,30.385914073702195992
0.223000000000000059,29.887687417851431348
0.224000000000000060,29.400165190472343113
0.225000000000000061,28.923013404060583298
0.226000000000000062,28.455903382808038771
0.227000000000000063,27.998513111818397192
0.228000000000000064,27.550528269360661682
0.229000000000000065,27.111642972875166890
0.230000000000000066,26.681560270726230044
0.231000000000000066,26.259992412040315202
0.232000000000000067,25.846660926540700132
0.233000000000000068,25.441296545235420723
0.234000000000000069,25.043638991269325800
0.235000000000000070,24.653436668333917225
0.236000000000000071,24.270446271845820263
0.237000000000000072,23.894432345748594315
0.238000000000000073,23.525166805342678344
0.239000000000000073,23.162428444071501588
0.240000000000000074,22.806002439741789090
0.241000000000000075,22.455679873280221415
0.242000000000000076,22.111257270859859148
0.243000000000000077,21.772536178096387971
0.244000000000000078,21.439322773035012659
0.245000000000000079,21.111427522837221460
0.246000000000000080,20.788664887440326368
0.247000000000000081,20.470853072003535544
0.248000000000000081,20.157813828673120327
0.249000000000000082,19.849372307090355605
0.250000000000000111,19.545356952123363214
0.251000000000000112,19.245599446519868536
0.252000000000000113,18.949934695540292751
0.253000000000000114,18.658200850131997584
0.254000000000000115,18.370239364830055706
0.255000000000000115,18.085895086309587754
0.256000000000000116,17.805016368355193634
0.257000000000000117,17.527455208943315768
0.258000000000000118,17.253067405142530788
0.259000000000000119,16.981712721612918671
0.260000000000000120,16.713255068619076837
0.261000000000000121,16.447562685652250991
0.262000000000000122,16.184508326976477122
0.263000000000000123,15.923969445662788047
0.264000000000000123,15.665828372948150005
0.265000000000000124,15.409972490043140070
0.266000000000000125,15.156294389811176160
0.267000000000000126,14.904692026043850461
0.268000000000000127,14.655068848359723788
0.269000000000000128,14.407333921052288161
0.270000000000000129,14.161402024503654928
0.271000000000000130,13.917193738061062191
0.272000000000000131,13.674635503541498593
0.273000000000000131,13.433659668783027641
0.274000000000000132,13.194204510899378846
0.275000000000000133,12.956214239114874687
0.276000000000000134,12.719638977259936752
0.277000000000000135,12.484434726192965570
0.278000000000000136,12.250563306580826151
0.279000000000000137,12.017992282619704980
0.280000000000000138,11.786694867409289955
0.281000000000000139,11.556649810807163803
0.282000000000000139,11.327841270687907027
0.283000000000000140,11.100258668612726254
0.284000000000000141,10.873896530981880915
0.285000000000000142,10.648754316794127206
0.286000000000000143,10.424836233176044686
0.287000000000000144,10.202151039870605231
0.288000000000000145,9.980711843888597556
0.289000000000000146,9.760535885531533395
0.290000000000000147,9.541644316988609376
0.291000000000000147,9.324061974697118060
0.292000000000000148,9.107817146633530925
0.293000000000000149,8.892941335674670711
0.294000000000000150,8.679469020133677049
0.295000000000000151,8.467437412536252594
0.296000000000000152,8.256886217658820470
0.297000000000000153,8.047857390802835909
0.298000000000000154,7.840394897229101545
0.299000000000000155,7.634544473623199323
0.300000000000000155,7.430353392408830970
0.301000000000000156,7.227870229670230628
0.302000000000000157,7.027144637388323289
0.303000000000000158,6.828227120639057901
0.304000000000000159,6.631168820345625825
0.305000000000000160,6.436021302120579435
0.306000000000000161,6.242836351678812790
0.307000000000000162,6.051665777248255829
0.308000000000000163,5.862561219352813602
0.309000000000000163,5.675573968291028670
0.310000000000000164,5.490754789584617157
0.311000000000000165,5.308153757623950142
0.312000000000000166,5.127820097692158186
0.313000000000000167,4.949802036506456560
0.314000000000000168,4.774146661374464529
0.315000000000000169,4.600899788024551462
0.316000000000000170,4.430105837132993329
0.317000000000000171,4.261807719536612638
0.318000000000000171,4.096046730088064969
0.319000000000000172,3.932862450081161310
0.320000000000000173,3.772292658146878530
0.321000000000000174,3.614373249495514528
0.322000000000000175,3.459138163357818652
0.323000000000000176,3.306619318457308054
0.324000000000000177,3.156846556327391973
0.325000000000000178,3.009847592270538996
0.326000000000000179,2.865647973741707766
0.327000000000000179,2.724271045925974022
0.328000000000000180,2.585737924268738830
0.329000000000000181,2.450067473707886023
0.330000000000000182,2.317276294349293497
0.331000000000000183,2.187378713320810242
0.332000000000000184,2.060386782535007733
0.333000000000000185,1.936310282087432721
0.334000000000000186,1.815156729014748560
0.335000000000000187,1.696931391136039746
0.336000000000000187,1.581637305700384744
0.337000000000000188,1.469275302564945651
0.338000000000000189,1.359844031629348304
0.339000000000000190,1.253339994254976331
0.340000000000000191,1.149757578401303437
0.341000000000000192,1.049089097215315292
0.342000000000000193,0.951324830814995082
0.343000000000000194,0.856453071013022038
0.344000000000000195,0.764460168732942535
0.345000000000000195,0.675330583875796364
0.346000000000000196,0.589046937402435078
0.347000000000000197,0.505590065403276445
0.348000000000000198,0.424939074934688521
0.349000000000000199,0.347071401408691971
0.350000000000000200,0.271962867330184821
0.351000000000000201,0.199587742183910788
0.352000000000000202,0.129918803281173917
0.353000000000000203,0.062927397384335171
0.354000000000000203,-0.001416497064866107
0.355000000000000204,-0.063144207278939296
0.356000000000000205,-0.122288303178168439
0.357000000000000206,-0.178882534313989622
0.358000000000000207,-0.232961766803972653
0.359000000000000208,-0.284561920412785330
0.360000000000000209,-0.333719905905517866
0.361000000000000210,-0.380473562792202402
0.362000000000000210,-0.424861597575029948
0.363000000000000211,-0.466923522602382846
0.364000000000000212,-0.506699595626800336
0.365000000000000213,-0.544230760156922067
0.366000000000000214,-0.579558586686866550
0.367000000000000215,-0.612725214879807467
0.368000000000000216,-0.643773296776372961
0.369000000000000217,-0.672745941092055433
0.370000000000000218,-0.699686658662278638
0.371000000000000218,-0.724639309087651506
0.372000000000000219,-0.747648048626801343
0.373000000000000220,-0.768757279378710967
0.374000000000000221,-0.788011599791479389
0.375000000000000222,-0.805455756529496747
0.376000000000000223,-0.821134597726666859
0.377000000000000224,-0.835093027648586173
0.378000000000000225,-0.847375962782569325
0.379000000000000226,-0.858028289370388109
0.380000000000000226,-0.867094822394898879
0.381000000000000227,-0.874620266027910986
0.382000000000000228,-0.880649175543615770
0.383000000000000229,-0.885225920698424096
0.384000000000000230,-0.888394650575175304
0.385000000000000231,-0.890199259886973238
0.386000000000000232,-0.890683356733041998
0.387000000000000233,-0.889890231796820030
0.388000000000000234,-0.887862828973925877
0.389000000000000234,-0.884643717415806385
0.390000000000000235,-0.880275064972689592
0.391000000000000236,-0.874798613017752524
0.392000000000000237,-0.868255652632738295
0.393000000000000238,-0.860687002133767365
0.394000000000000239,-0.852132985914567653
0.395000000000000240,-0.842633414583299656
0.396000000000000241,-0.832227566367871652
0.397000000000000242,-0.820954169763588815
0.398000000000000242,-0.808851387396328114
0.399000000000000243,-0.795956801073293252
0.400000000000000244,-0.782307397992997422
0.401000000000000245,-0.767939558085454221
0.402000000000000246,-0.752889042452934754
0.403000000000000247,-0.737190982881437695
0.404000000000000248,-0.720879872392573895
0.405000000000000249,-0.703989556805357908
0.406000000000000250,-0.686553227277185818
0.407000000000000250,-0.668603413793281698
0.408000000000000251,-0.650171979573722636
0.409000000000000252,-0.631290116367291598
0.410000000000000253,-0.611988340601425596
0.411000000000000254,-0.592296490357700156
0.412000000000000255,-0.572243723142428773
0.413000000000000256,-0.551858514422287949
0.414000000000000257,-0.531168656894981273
0.415000000000000258,-0.510201260465511841
0.416000000000000258,-0.488982752898729167
0.417000000000000259,-0.467538881119407557
0.418000000000000260,-0.445894713131399112
0.419000000000000261,-0.424074640527922209
0.420000000000000262,-0.402102381565452638
0.421000000000000263,-0.380000984774257256
0.422000000000000264,-0.357792833079027983
0.423000000000000265,-0.335499648403643658
0.424000000000000266,-0.313142496734720388
0.425000000000000266,-0.290741793618943700
0.426000000000000267,-0.268317310070032122
0.427000000000000268,-0.245888178861497109
0.428000000000000269,-0.223472901182137390
0.429000000000000270,-0.201089353631748485
0.430000000000000271,-0.178754795535016664
0.431000000000000272,-0.156485876552388381
0.432000000000000273,-0.134298644567085790
0.433000000000000274,-0.112208553828213958
0.434000000000000274,-0.090230473330396493
0.435000000000000275,-0.068378695411042606
0.436000000000000276,-0.046666944546966141
0.437000000000000277,-0.025108386332563230
0.438000000000000278,-0.003715636622506258
0.439000000000000279,0.017499229177602008
0.440000000000000280,0.038524666688599711
0.441000000000000281,0.059349653018491863
0.442000000000000282,0.079963677121335619
0.443000000000000282,0.100356730068580480
0.444000000000000283,0.120519295246480779
0.445000000000000284,0.140442338492771795
0.446000000000000285,0.160117298185264295
0.447000000000000286,0.179536075294294883
0.448000000000000287,0.198691023410807660
0.449000000000000288,0.217574938760940639
0.450000000000000289,0.236181050217835337
0.451000000000000290,0.254503009320670270
0.452000000000000290,0.272534880310543071
0.453000000000000291,0.290271130192409132
0.454000000000000292,0.307706618831682932
0.455000000000000293,0.324836589093859263
0.456000000000000294,0.341656657034920097
0.457000000000000295,0.358162802149950887
0.458000000000000296,0.374351357687012332
0.459000000000000297,0.390219001032827306
0.460000000000000298,0.405762744176563106
0.461000000000000298,0.420979924257521954
0.462000000000000299,0.435868194202259474
0.463000000000000300,0.450425513456301274
0.464000000000000301,0.464650138815210556
0.465000000000000302,0.478540615359516419
0.466000000000000303,0.492095767497693792
0.467000000000000304,0.505314690120999277
0.468000000000000305,0.518196739873747925
0.469000000000000306,0.530741526542335418
0.470000000000000306,0.542948904565919821
0.471000000000000307,0.554818964671617176
0.472000000000000308,0.566352025636584266
0.473000000000000309,0.577548626179279156
0.474000000000000310,0.588409516981880265
0.475000000000000311,0.598935652845652755
0.476000000000000312,0.609128184980760157
0.477000000000000313,0.618988453431945529
0.478000000000000314,0.628517979641176838
0.479000000000000314,0.637718459148190253
0.480000000000000315,0.646591754429777121
0.481000000000000316,0.655139887878315896
0.482000000000000317,0.663365034920058383
0.483000000000000318,0.671269517273384353
0.484000000000000319,0.678855796347170193
0.485000000000000320,0.686126466779234279
0.486000000000000321,0.693084250114691658
0.487000000000000322,0.699731988623921275
0.488000000000000322,0.706072639259772594
0.489000000000000323,0.712109267753373465
0.490000000000000324,0.717845042848008652
0.491000000000000325,0.723283230670233035
0.492000000000000326,0.728427189237431771
0.493000000000000327,0.733280363100824895
0.494000000000000328,0.737846278122937238
0.495000000000000329,0.742128536388387050
0.496000000000000330,0.746130811246834891
0.497000000000000330,0.749856842486784969
0.498000000000000331,0.753310431638990474
0.499000000000000332,0.756495437407969540
0.500000000000000333,0.759415771230260050
0.501000000000000334,0.762075392957915376
0.502000000000000335,0.764478306665613894
0.503000000000000336,0.766628556579878939
0.504000000000000337,0.768530223128706114
0.505000000000000338,0.770187419109956917
0.506000000000000338,0.771604285976787763
0.507000000000000339,0.772784990238392533
0.508000000000000340,0.773733719974286416
0.509000000000000341,0.774454681460312044
0.510000000000000342,0.774952095904607230
0.511000000000000343,0.775230196291642137
0.512000000000000344,0.775293224332526454
0.513000000000000345,0.775145427519705388
0.514000000000000346,0.774791056284151125
0.515000000000000346,0.774234361253212988
0.516000000000000347,0.773479590607217715
0.517000000000000348,0.772530987532902058
0.518000000000000349,0.771392787771848498
0.519000000000000350,0.770069217261967864
0.520000000000000351,0.768564489870186773
0.521000000000000352,0.766882805214407992
0.522000000000000353,0.765028346572919959
0.523000000000000353,0.763005278879319127
0.524000000000000354,0.760817746801127570
0.525000000000000355,0.758469872900214725
0.526000000000000356,0.755965755873220902
0.527000000000000357,0.753309468870081433
0.528000000000000358,0.750505057888922855
0.529000000000000359,0.747556540245424950
0.530000000000000360,0.744467903114963692
0.531000000000000361,0.741243102145665356
0.532000000000000361,0.737886060140695355
0.533000000000000362,0.734400665807985020
0.534000000000000363,0.730790772575726444
0.535000000000000364,0.727060197471894321
0.536000000000000365,0.723212720066154002
0.537000000000000366,0.719252081472468996
0.538000000000000367,0.715181983410802857
0.539000000000000368,0.711006087326253922
0.540000000000000369,0.706728013564099422
0.541000000000000369,0.702351340599102536
0.542000000000000370,0.697879604317615865
0.543000000000000371,0.693316297350895172
0.544000000000000372,0.688664868458158219
0.545000000000000373,0.683928721957907326
0.546000000000000374,0.679111217206067153
0.547000000000000375,0.674215668119513611
0.548000000000000376,0.669245342743576943
0.549000000000000377,0.664203462862174243
0.550000000000000377,0.659093203649180781
0.551000000000000378,0.653917693359751473
0.552000000000000379,0.648680013060259686
0.553000000000000380,0.643383196395588164
0.554000000000000381,0.638030229392532844
0.555000000000000382,0.632624050298054796
0.556000000000000383,0.627167549451225215
0.557000000000000384,0.621663569187626330
0.558000000000000385,0.616114903775126566
0.559000000000000385,0.610524299379822555
0.560000000000000386,0.604894454061094544
0.561000000000000387,0.599228017794678269
0.562000000000000388,0.593527592522689718
0.563000000000000389,0.587795732229566270
0.564000000000000390,0.582034943042922914
0.565000000000000391,0.576247683358330320
0.566000000000000392,0.570436363987054773
0.567000000000000393,0.564603348325790066
0.568000000000000393,0.558750952547511837
0.569000000000000394,0.552881445812506755
0.570000000000000395,0.546997050498730708
0.571000000000000396,0.541099942450638194
0.572000000000000397,0.535192251245621531
0.573000000000000398,0.529276060477306798
0.574000000000000399,0.523353408054848868
0.575000000000000400,0.517426286517503220
0.576000000000000401,0.511496643363718251
0.577000000000000401,0.505566381393980802
0.578000000000000402,0.499637359066750442
0.579000000000000403,0.493711390866792943
0.580000000000000404,0.487790247685175593
0.581000000000000405,0.481875657210365460
0.582000000000000406,0.475969304329721621
0.583000000000000407,0.470072831540794822
0.584000000000000408,0.464187839371850153
0.585000000000000409,0.458315886810992723
0.586000000000000409,0.452458491743376101
0.587000000000000410,0.446617131395902867
0.588000000000000411,0.440793242788935946
0.589000000000000412,0.434988223194451629
0.590000000000000413,0.429203430600188951
0.591000000000000414,0.423440184179269152
0.592000000000000415,0.417699764764851822
0.593000000000000416,0.411983415329349234
0.594000000000000417,0.406292341467783369
0.595000000000000417,0.400627711884832038
0.596000000000000418,0.394990658885203239
0.597000000000000419,0.389382278866881426
0.598000000000000420,0.383803632816925866
0.599000000000000421,0.378255746809399329
0.600000000000000422,0.372739612505099349
0.601000000000000423,0.367256187652760635
0.602000000000000424,0.361806396591356050
0.603000000000000425,0.356391130753209884
0.604000000000000425,0.351011249167622552
0.605000000000000426,0.345667578964681976
0.606000000000000427,0.340360915878978987
0.607000000000000428,0.335092024753022577
0.608000000000000429,0.329861640039945669
0.609000000000000430,0.324670466305436833
0.610000000000000431,0.319519178728482900
0.611000000000000432,0.314408423600800568
0.612000000000000433,0.309338818824704986
0.613000000000000433,0.304310954409166223
0.614000000000000434,0.299325392963908143
0.615000000000000435,0.294382670191309814
0.616000000000000436,0.289483295375955851
0.617000000000000437,0.284627751871612156
0.618000000000000438,0.279816497585508084
