# grapheneoxide_EST-JS
# h[nm],U(h)[kJ/mol]
0.200000000000000011,55.894720581306934548
0.201000000000000012,55.190106243034719569
0.202000000000000013,54.288479908337912150
0.203000000000000014,53.301870491005651331
0.204000000000000015,52.291878077459969631
0.205000000000000016,51.288932378634910947
0.206000000000000016,50.305125711174994763
0.207000000000000017,49.342544505357516016
0.208000000000000018,48.398494546426221063
0.209000000000000019,47.468622225168211060
0.210000000000000020,46.548643886539238679
0.211000000000000021,45.635182555563424955
0.212000000000000022,44.726056513078262356
0.213000000000000023,43.820252639111956228
0.214000000000000024,42.917737947491659156
0.215000000000000024,42.019206844536654444
0.216000000000000025,41.125822994599687377
0.217000000000000026,40.238988502538958869
0.218000000000000027,39.360155882261793181
0.219000000000000028,38.490687349056535993
0.220000000000000029,37.631759426742334540
0.221000000000000030,36.784307298254169893
0.222000000000000031,35.949001741762472761
0.223000000000000032,35.126251166834308037
0.224000000000000032,34.316221694598588954
0.225000000000000033,33.518869067955513685
0.226000000000000034,32.733977202294035180
0.227000000000000035,31.961199245476290542
0.228000000000000036,31.200098017307311693
0.229000000000000037,30.450183592706981273
0.230000000000000038,29.710946555859560902
0.231000000000000039,28.981886079058376993
0.232000000000000040,28.262532475255643050
0.233000000000000040,27.552464249392990325
0.234000000000000041,26.851319945591569649
0.235000000000000042,26.158805271476182952
0.236000000000000043,25.474696093251861129
0.237000000000000044,24.798837950469923896
0.238000000000000045,24.131142750944984954
0.239000000000000046,23.471583285466135038
0.240000000000000047,22.820186158417179456
0.241000000000000048,22.177023672099231533
0.242000000000000048,21.542205135764625368
0.243000000000000049,20.915868000060495291
0.244000000000000050,20.298169147479004693
0.245000000000000051,19.689276602225088908
0.246000000000000052,19.089361860522938485
0.247000000000000053,18.498592985976348047
0.248000000000000054,17.917128564833788573
0.249000000000000055,17.345112573126169053
0.250000000000000056,16.782670171570806872
0.251000000000000056,16.229904414572381199
0.252000000000000057,15.686893836148389170
0.253000000000000058,15.153690857613700160
0.254000000000000059,14.630320948770791034
0.255000000000000060,14.116782465549448489
0.256000000000000061,13.613047081904136704
0.257000000000000062,13.119060731720258772
0.258000000000000063,12.634744976949143336
0.259000000000000064,12.159998720680423645
0.260000000000000064,11.694700187915005429
0.261000000000000065,11.238709102020465025
0.262000000000000066,10.791868990882319324
0.263000000000000067,10.354009563312837727
0.264000000000000068,9.924949103090140667
0.265000000000000069,9.504496834867577348
0.266000000000000070,9.092455222950048821
0.267000000000000071,8.688622170446349102
0.268000000000000071,8.292793092475847061
0.269000000000000072,7.904762842859708982
0.270000000000000073,7.524327479011806652
0.271000000000000074,7.151285854532835273
0.272000000000000075,6.785441033288509338
0.273000000000000076,6.426601522519928444
0.274000000000000077,6.074582325800887972
0.275000000000000078,5.729205819442642955
0.276000000000000079,5.390302458276758912
0.277000000000000079,5.057711318649883658
0.278000000000000080,4.731280487975811688
0.279000000000000081,4.410867311341634789
0.280000000000000082,4.096338506494442200
0.281000000000000083,3.787570159076083520
0.282000000000000084,3.484447610261963924
0.283000000000000085,3.186865249028270952
0.284000000000000086,2.894726221151497469
0.285000000000000087,2.607942066766183675
0.286000000000000087,2.326432297896239731
0.287000000000000088,2.050123926859570567
0.288000000000000089,1.778950955846556159
0.289000000000000090,1.512853837311111560
0.290000000000000091,1.251778914107660068
0.291000000000000092,0.995677847572890018
0.292000000000000093,0.744507041003681036
0.293000000000000094,0.498227065232792365
0.294000000000000095,0.256802092262899351
0.295000000000000095,0.020199342195122049
0.296000000000000096,-0.211611452011085444
0.297000000000000097,-0.438658558080070371
0.298000000000000098,-0.660968733032646805
0.299000000000000099,-0.878567684235773028
0.300000000000000100,-1.091480500812905596
0.301000000000000101,-1.299732053855174652
0.302000000000000102,-1.503347364346504289
0.303000000000000103,-1.702351938147790289
0.304000000000000103,-1.896772067773752513
0.305000000000000104,-2.086635101044648444
0.306000000000000105,-2.271969677003311538
0.307000000000000106,-2.452805929757898795
0.308000000000000107,-2.629175661144698584
0.309000000000000108,-2.801112483304299072
0.310000000000000109,-2.968651932431806806
0.311000000000000110,-3.131831555097913000
0.312000000000000111,-3.290690968647410841
0.313000000000000111,-3.445271897264272631
0.314000000000000112,-3.595618185352690510
0.315000000000000113,-3.741775789921980788
0.316000000000000114,-3.883792753682828280
0.317000000000000115,-4.021719160564692253
0.318000000000000116,-4.155607075351714030
0.319000000000000117,-4.285510469108436027
0.320000000000000118,-4.411485132029342005
0.321000000000000119,-4.533588575299066115
0.322000000000000119,-4.651879923494608882
0.323000000000000120,-4.766419798998338564
0.324000000000000121,-4.877270199822982377
0.325000000000000122,-4.984494372177242560
0.326000000000000123,-5.088156679025196638
0.327000000000000124,-5.188322465814802165
0.328000000000000125,-5.285057924471816548
0.329000000000000126,-5.378429956675299550
0.330000000000000127,-5.468506037351628990
0.331000000000000127,-5.555354079244692933
0.332000000000000128,-5.639042299342566622
0.333000000000000129,-5.719639087865011184
0.334000000000000130,-5.797212880442304872
0.335000000000000131,-5.871832034045040061
0.336000000000000132,-5.943564707155556626
0.337000000000000133,-6.012478744606561953
0.338000000000000134,-6.078641567450087990
0.339000000000000135,-6.142120068160575208
0.340000000000000135,-6.202980511420595811
0.341000000000000136,-6.261288440685051526
0.342000000000000137,-6.317108590671073109
0.343000000000000138,-6.370504805875143894
0.344000000000000139,-6.421539965177212039
0.345000000000000140,-6.470275912552599706
0.346000000000000141,-6.516773393877149267
0.347000000000000142,-6.561091999778722261
0.348000000000000143,-6.603290114459042570
0.349000000000000143,-6.643424870383479508
0.350000000000000144,-6.681552108713131766
0.351000000000000145,-6.717726345332641458
0.352000000000000146,-6.752000742309323122
0.353000000000000147,-6.784427084603281699
0.354000000000000148,-6.815055761834983628
0.355000000000000149,-6.843935754905489333
0.356000000000000150,-6.871114627255407115
0.357000000000000151,-6.896638520541364059
0.358000000000000151,-6.920552154503321063
0.359000000000000152,-6.942898830792076481
0.360000000000000153,-6.963720440524187261
0.361000000000000154,-6.983057475330196162
0.362000000000000155,-7.000949041662598127
0.363000000000000156,-7.017432878131344864
0.364000000000000157,-7.032545375636873430
0.365000000000000158,-7.046321600074513469
0.366000000000000159,-7.058795317387678736
0.367000000000000159,-7.069999020752774754
0.368000000000000160,-7.079963959683820640
0.369000000000000161,-7.088720170851239288
0.370000000000000162,-7.096296510415635694
0.371000000000000163,-7.102720687684444201
0.372000000000000164,-7.108019299906649380
0.373000000000000165,-7.112217868028307244
0.374000000000000166,-7.115340873239439645
0.375000000000000167,-7.117411794150697801
0.376000000000000167,-7.118453144446322156
0.377000000000000168,-7.118486510867993111
0.378000000000000169,-7.117532591392119912
0.379000000000000170,-7.115611233471389241
0.380000000000000171,-7.112741472219239469
0.381000000000000172,-7.108941568423832180
0.382000000000000173,-7.104229046285955640
0.383000000000000174,-7.098620730782902122
0.384000000000000175,-7.092132784567743542
0.385000000000000175,-7.084780744320815060
0.386000000000000176,-7.076579556477284427
0.387000000000000177,-7.067543612261391495
0.388000000000000178,-7.057686781964870093
0.389000000000000179,-7.047022448413090778
0.390000000000000180,-7.035563539568931546
0.391000000000000181,-7.023322560230091938
0.392000000000000182,-7.010311622781250307
0.393000000000000183,-6.996542476967908541
0.394000000000000183,-6.982026538663783199
0.395000000000000184,-6.966774917608593576
0.396000000000000185,-6.950798444097600282
0.397000000000000186,-6.934107694608670158
0.398000000000000187,-6.916713016356706767
0.399000000000000188,-6.898624550769211439
0.400000000000000189,-6.879852255880211764
0.401000000000000190,-6.860405927643336454
0.402000000000000191,-6.840295220167848633
0.403000000000000191,-6.819529664884382392
0.404000000000000192,-6.798118688649855912
0.405000000000000193,-6.776071630803480517
0.406000000000000194,-6.753397759188080940
0.407000000000000195,-6.730106285153072854
0.408000000000000196,-6.706206377557174747
0.409000000000000197,-6.681707175790855047
0.410000000000000198,-6.656617801839930237
0.411000000000000199,-6.630947371412998947
0.412000000000000199,-6.604705004156864234
0.413000000000000200,-6.577899832984852146
0.414000000000000201,-6.550541012544151442
0.415000000000000202,-6.522637726848728335
0.416000000000000203,-6.494199196105356009
0.417000000000000204,-6.465234682760597096
0.418000000000000205,-6.435753496797035567
0.419000000000000206,-6.405765000307472867
0.420000000000000207,-6.375278611375757798
0.421000000000000207,-6.344303807293368180
0.422000000000000208,-6.312850127140471557
0.423000000000000209,-6.280927173760566973
0.424000000000000210,-6.248544615157317850
0.425000000000000211,-6.215712185342107787
0.426000000000000212,-6.182439684660733903
0.427000000000000213,-6.148736979626955090
0.428000000000000214,-6.114614002290687189
0.429000000000000214,-6.080080749167748877
0.430000000000000215,-6.045147279757967951
0.431000000000000216,-6.009823714677704487
0.432000000000000217,-5.974120233432364202
0.433000000000000218,-5.938047071853915782
0.434000000000000219,-5.901614519227782907
0.435000000000000220,-5.864832915132891955
0.436000000000000221,-5.827712646017939591
0.437000000000000222,-5.790264141536261455
0.438000000000000222,-5.752497870661159141
0.439000000000000223,-5.714424337602586945
0.440000000000000224,-5.676054077545629184
0.441000000000000225,-5.637397652230293765
0.442000000000000226,-5.598465645391641488
0.443000000000000227,-5.559268658078281966
0.444000000000000228,-5.519817303866851432
0.445000000000000229,-5.480122203989111540
0.446000000000000230,-5.440193982387707017
0.447000000000000230,-5.400043260715988502
0.448000000000000231,-5.359680653296456931
0.449000000000000232,-5.319116762051725011
0.450000000000000233,-5.278362171421376203
0.451000000000000234,-5.237427443277139716
0.452000000000000235,-5.196323111848444753
0.453000000000000236,-5.155059678669446477
0.454000000000000237,-5.113647607558373664
0.455000000000000238,-5.072097319638973367
0.456000000000000238,-5.030419188413630671
0.457000000000000239,-4.988623534896848177
0.458000000000000240,-4.946720622817437629
0.459000000000000241,-4.904720653896912808
0.460000000000000242,-4.862633763211404059
0.461000000000000243,-4.820470014643517764
0.462000000000000244,-4.778239396430364216
0.463000000000000245,-4.735951816813157578
0.464000000000000246,-4.693617099793672587
0.465000000000000246,-4.651244981002095713
0.466000000000000247,-4.608845103680453192
0.467000000000000248,-4.566427014785405802
0.468000000000000249,-4.524000161213786342
0.469000000000000250,-4.481573886153772612
0.470000000000000251,-4.439157425564303594
0.471000000000000252,-4.396759904784890871
0.472000000000000253,-4.354390335277810387
0.473000000000000254,-4.312057611504016563
0.474000000000000254,-4.269770507934156356
0.475000000000000255,-4.227537676195451510
0.476000000000000256,-4.185367642355154238
0.477000000000000257,-4.143268804340896949
0.478000000000000258,-4.101249429497973331
0.479000000000000259,-4.059317652283462863
0.480000000000000260,-4.017481472096764428
0.481000000000000261,-3.975748751245898660
0.482000000000000262,-3.934127213048834282
0.483000000000000262,-3.892624440068787717
0.484000000000000263,-3.851247872482265855
0.485000000000000264,-3.810004806578594749
0.486000000000000265,-3.768902393389306660
0.487000000000000266,-3.727947637445785833
0.488000000000000267,-3.687147395663350036
0.489000000000000268,-3.646508376349867575
0.490000000000000269,-3.606037138336799952
0.491000000000000270,-3.565740090230627768
0.492000000000000270,-3.525623489782288456
0.493000000000000271,-3.485693443372407163
0.494000000000000272,-3.445955905609844994
0.495000000000000273,-3.406416679041043949
0.496000000000000274,-3.367081413967741188
0.497000000000000275,-3.327955608370305463
0.498000000000000276,-3.289044607934131115
0.499000000000000277,-3.250353606176379806
0.500000000000000222,-3.211887644670279762
0.501000000000000334,-3.173651613364304236
0.502000000000000224,-3.135650250993399002
0.503000000000000336,-3.097888145579401620
0.504000000000000226,-3.060369735017989257
0.505000000000000338,-3.023099307749099740
0.506000000000000227,-2.986081003508274989
0.507000000000000339,-2.949318814155812873
0.508000000000000229,-2.912816584581168655
0.509000000000000341,-2.876578013679548462
0.510000000000000231,-2.840606655398177249
0.511000000000000343,-2.804905919849143281
0.512000000000000233,-2.769479074486364656
0.513000000000000345,-2.734329245343674053
0.514000000000000234,-2.699459418331592087
0.515000000000000346,-2.664872440589770353
0.516000000000000236,-2.630571021892823325
0.517000000000000348,-2.596557736106611003
0.518000000000000238,-2.562835022692651954
0.519000000000000350,-2.529405188257907611
0.520000000000000240,-2.496270408147620579
0.521000000000000352,-2.463432728078626788
0.522000000000000242,-2.430894065810799809
0.523000000000000353,-2.398656212854183956
0.524000000000000243,-2.366720836209574852
0.525000000000000355,-2.335089480140180918
0.526000000000000245,-2.303763567972244797
0.527000000000000357,-2.272744403922275502
0.528000000000000247,-2.242033174948972807
0.529000000000000359,-2.211630952627535951
0.530000000000000249,-2.181538695044518583
0.531000000000000361,-2.151757248711075210
0.532000000000000250,-2.122287350492837010
0.533000000000000362,-2.093129629554355553
0.534000000000000252,-2.064284609316451302
0.535000000000000364,-2.035752709424534235
0.536000000000000254,-2.007534247726344034
0.537000000000000366,-1.979629442257193173
0.538000000000000256,-1.952038413231376834
0.539000000000000368,-1.924761185037871858
0.540000000000000258,-1.897797688239091229
0.541000000000000369,-1.871147761570924883
0.542000000000000259,-1.844811153942931936
0.543000000000000371,-1.818787526437044999
0.544000000000000261,-1.793076454303654588
0.545000000000000373,-1.767677428953660312
0.546000000000000263,-1.742589859945374631
0.547000000000000375,-1.717813076964910923
0.548000000000000265,-1.693346331799193027
0.549000000000000377,-1.669188800300156483
0.550000000000000266,-1.645339584339408301
0.551000000000000378,-1.621797713752094694
0.552000000000000268,-1.598562148269170979
0.553000000000000380,-1.575631779437060453
0.554000000000000270,-1.553005432523904217
0.555000000000000382,-1.530681868411451152
0.556000000000000272,-1.508659785471957893
0.557000000000000384,-1.486937821429126672
0.558000000000000274,-1.465514555202605207
0.559000000000000385,-1.444388508735122700
0.560000000000000275,-1.423558148801835621
0.561000000000000387,-1.403021888801111228
0.562000000000000277,-1.382778090526277648
0.563000000000000389,-1.362825065917737222
0.564000000000000279,-1.343161078795004792
0.565000000000000391,-1.323784346568116721
0.566000000000000281,-1.304693041928057351
0.567000000000000393,-1.285885294515701105
0.568000000000000282,-1.267359192569009085
0.569000000000000394,-1.249112784547974808
0.570000000000000284,-1.231144080737167190
0.571000000000000396,-1.213451054825424258
0.572000000000000286,-1.196031645462572790
0.573000000000000398,-1.178883757792773768
0.574000000000000288,-1.162005264964439677
0.575000000000000400,-1.145394009616414355
0.576000000000000290,-1.129047805340306798
0.577000000000000401,-1.112964438118803745
0.578000000000000291,-1.097141667739872428
0.579000000000000403,-1.081577229186698963
0.580000000000000293,-1.066268834003354149
0.581000000000000405,-1.051214171636035477
0.582000000000000295,-1.036410910749949732
0.583000000000000407,-1.021856700521696526
0.584000000000000297,-1.007549171907254237
0.585000000000000409,-0.993485938885496744
0.586000000000000298,-0.979664599677330217
0.587000000000000410,-0.966082737940439529
0.588000000000000300,-0.952737923939765308
0.589000000000000412,-0.939627715693698740
0.590000000000000302,-0.926749660096173322
0.591000000000000414,-0.914101294014699972
0.592000000000000304,-0.901680145364461394
0.593000000000000416,-0.889483734158591388
0.594000000000000306,-0.877509573534812959
0.595000000000000417,-0.865755170758518156
0.596000000000000307,-0.854218028202497592
0.597000000000000419,-0.842895644303463420
0.598000000000000309,-0.831785514495568812
0.599000000000000421,-0.820885132121050298
0.600000000000000311,-0.810191989318279737
0.601000000000000423,-0.799703577887320716
0.602000000000000313,-0.789417390133317021
0.603000000000000425,-0.779330919687791557
0.604000000000000314,-0.769441662308239849
0.605000000000000426,-0.759747116656080079
0.606000000000000316,-0.750244785053348684
0.607000000000000428,-0.740932174218252859
0.608000000000000318,-0.731806795979934699
0.609000000000000430,-0.722866167972599505
0.610000000000000320,-0.714107814309357769
0.611000000000000432,-0.705529266235947139
0.612000000000000322,-0.697128062764675649
0.613000000000000433,-0.688901751288798270
0.614000000000000323,-0.680847888177622429
0.615000000000000435,-0.672964039352602850
0.616000000000000325,-0.665247780844707370
0.617000000000000437,-0.657696699333311652
0.618000000000000327,-0.650308392666934298
0.619000000000000439,-0.643080470366040435
0.620000000000000329,-0.636010554108247028
0.621000000000000441,-0.629096278196178971
0.622000000000000330,-0.622335290008265374
0.623000000000000442,-0.615725250432757720
0.624000000000000332,-0.609263834285256989
0.625000000000000444,-0.602948730710033964
0.626000000000000334,-0.596777643565416516
0.627000000000000446,-0.590748291793534608
0.628000000000000336,-0.584858409774704380
0.629000000000000448,-0.579105747666729620
0.630000000000000338,-0.573488071729411630
0.631000000000000449,-0.568003164634530155
0.632000000000000339,-0.562648825761591365
0.633000000000000451,-0.557422871479612558
0.634000000000000341,-0.552323135415219268
0.635000000000000453,-0.547347468707342411
0.636000000000000343,-0.542493740248756517
0.637000000000000455,-0.537759836914778355
0.638000000000000345,-0.533143663779360066
0.639000000000000457,-0.528643144318840519
0.640000000000000346,-0.524256220603664724
0.641000000000000458,-0.519980853478275273
0.642000000000000348,-0.515815022729492201
0.643000000000000460,-0.511756727243593557
0.644000000000000350,-0.507803985152394999
0.645000000000000462,-0.503954833968548233
0.646000000000000352,-0.500207330710334852
0.647000000000000464,-0.496559552016179961
0.648000000000000353,-0.493009594249171179
0.649000000000000465,-0.489555573591770987
0.650000000000000355,-0.486195626131024183
0.651000000000000467,-0.482927907934439848
0.652000000000000357,-0.479750595116838319
0.653000000000000469,-0.476661883898346406
0.654000000000000359,-0.473659990653810592
0.655000000000000471,-0.470743151953816441
0.656000000000000361,-0.467909624597579898
0.657000000000000473,-0.465157685637884399
0.658000000000000362,-0.462485632398328239
0.659000000000000474,-0.459891782483046963
0.660000000000000364,-0.457374473779175339
0.661000000000000476,-0.454932064452204798
0.662000000000000366,-0.452562932934475082
0.663000000000000478,-0.450265477906996892
