# grapheneoxide_BGLCNA-JS
# h[nm],U(h)[kJ/mol]
0.149999999999999994,156.880776923139819701
0.150999999999999995,155.091068492131569201
0.151999999999999996,152.179171218585224779
0.152999999999999997,149.046548802981988047
0.153999999999999998,146.023034997619475917
0.154999999999999999,143.170766888504857661
0.156000000000000000,140.447952421847503501
0.157000000000000001,137.790211466204027602
0.158000000000000002,135.145471776298364830
0.159000000000000002,132.484286996845582962
0.160000000000000003,129.798432108612843194
0.161000000000000004,127.094990355125077031
0.162000000000000005,124.389702609848470161
0.163000000000000006,121.701318929181027784
0.164000000000000007,119.047550296896972100
0.165000000000000008,116.442623444946661948
0.166000000000000009,113.896171388015233106
0.167000000000000010,111.413106124425283383
0.168000000000000010,108.994130505511947149
0.169000000000000011,106.636601091566447508
0.170000000000000012,104.335522764844611743
0.171000000000000013,102.084522832883564547
0.172000000000000014,99.876709729173114738
0.173000000000000015,97.705366586625530090
0.174000000000000016,95.564463040623721213
0.175000000000000017,93.448991076720488991
0.176000000000000018,91.355144555025773911
0.177000000000000018,89.280369250905067702
0.178000000000000019,87.223312690525730773
0.179000000000000020,85.183702275588032649
0.180000000000000021,83.162177410716935810
0.181000000000000022,81.160097496067351130
0.182000000000000023,79.179343393311086174
0.183000000000000024,77.222125768654407807
0.184000000000000025,75.290809847963004131
0.185000000000000026,73.387762746605048392
0.186000000000000026,71.515226729501577552
0.187000000000000027,69.675219521762969066
0.188000000000000028,67.869461093410862418
0.189000000000000029,66.099325125507832013
0.190000000000000030,64.365812560381669982
0.191000000000000031,62.669544173229596140
0.192000000000000032,61.010768906379226451
0.193000000000000033,59.389384716933001584
0.194000000000000034,57.804968847296095191
0.195000000000000034,56.256814688553276937
0.196000000000000035,54.743972729703294533
0.197000000000000036,53.265293440247546641
0.198000000000000037,51.819470295623752065
0.199000000000000038,50.405081506793663948
0.200000000000000039,49.020629344543465322
0.201000000000000040,47.664576247676492926
0.202000000000000041,46.335377167691888189
0.203000000000000042,45.031507828857868958
0.204000000000000042,43.751488771940486799
0.205000000000000043,42.493905203829868356
0.206000000000000044,41.257422796495667683
0.207000000000000045,40.040799670299939805
0.208000000000000046,38.842894862217313801
0.209000000000000047,37.662673622569613485
0.210000000000000048,36.499209908025605387
0.211000000000000049,35.351686447204258457
0.212000000000000050,34.219392751349239745
0.213000000000000050,33.101721429008755138
0.214000000000000051,31.998163142913380597
0.215000000000000052,30.908300521426564700
0.216000000000000053,29.831801307850234650
0.217000000000000054,28.768411000000053690
0.218000000000000055,27.717945201037895941
0.219000000000000056,26.680281871532827154
0.220000000000000057,25.655353642849160423
0.221000000000000058,24.643140323793456758
0.222000000000000058,23.643661706357328001
0.223000000000000059,22.656970752631355737
0.224000000000000060,21.683147223653993052
0.225000000000000061,20.722291792144137190
0.226000000000000062,19.774520664709907436
0.227000000000000063,18.839960725139199837
0.228000000000000064,17.918745198631832238
0.229000000000000065,17.011009827164624397
0.230000000000000066,16.116889538419705730
0.231000000000000066,15.236515584658434364
0.232000000000000067,14.370013123405424693
0.233000000000000068,13.517499208627956619
0.234000000000000069,12.679081159076762475
0.235000000000000070,11.854855269423307362
0.236000000000000071,11.044905829627333915
0.237000000000000072,10.249304418447239939
0.238000000000000073,9.468109438035346770
0.239000000000000073,8.701365858019755706
0.240000000000000074,7.949105139255192576
0.241000000000000075,7.211345309441665741
0.242000000000000076,6.488091164976303560
0.243000000000000077,5.779334575654634598
0.244000000000000078,5.085054871117084652
0.245000000000000079,4.405219290195815596
0.246000000000000080,3.739783476519857430
0.247000000000000081,3.088692005850957933
0.248000000000000081,2.451878932628267727
0.249000000000000082,1.829268345078705948
0.250000000000000111,1.220774919989961349
0.251000000000000112,0.626304469839880418
0.252000000000000113,0.045754476422528258
0.253000000000000114,-0.520985393585447598
0.254000000000000115,-1.074032794521169620
0.255000000000000115,-1.613512231479126813
0.256000000000000116,-2.139554615405315552
0.257000000000000117,-2.652296844287811428
0.258000000000000118,-3.151881410549804308
0.259000000000000119,-3.638456034220540314
0.260000000000000120,-4.112173321028143036
0.261000000000000121,-4.573190444215506467
0.262000000000000122,-5.021668848620361558
0.263000000000000123,-5.457773975370156627
0.264000000000000123,-5.881675005416751034
0.265000000000000124,-6.293544620063725503
0.266000000000000125,-6.693558776615086359
0.267000000000000126,-7.081896497288892256
0.268000000000000127,-7.458739669588896781
0.269000000000000128,-7.824272856402004095
0.270000000000000129,-8.178683114187183634
0.271000000000000130,-8.522159817735724729
0.272000000000000131,-8.854894490108261351
0.273000000000000131,-9.177080636489069576
0.274000000000000132,-9.488913580836811690
0.275000000000000133,-9.790590304352798867
0.276000000000000134,-10.082309284927958970
0.277000000000000135,-10.364270336867225097
0.278000000000000136,-10.636674450323933883
0.279000000000000137,-10.899723630003563812
0.280000000000000138,-11.153620732816015959
0.281000000000000139,-11.398569304268406199
0.282000000000000139,-11.634773413492856875
0.283000000000000140,-11.862437486899011674
0.284000000000000141,-12.081766140525312281
0.285000000000000142,-12.292964011239325473
0.286000000000000143,-12.496235587003598155
0.287000000000000144,-12.691785036480661475
0.288000000000000145,-12.879816038299733094
0.289000000000000146,-13.060531610346819420
0.290000000000000147,-13.234133939472689789
0.291000000000000147,-13.400824212036464900
0.292000000000000148,-13.560802445720756992
0.293000000000000149,-13.714267323063580761
0.294000000000000150,-13.861416027157778430
0.295000000000000151,-14.002444079966974044
0.296000000000000152,-14.137545183701215379
0.297000000000000153,-14.266911065684968918
0.298000000000000154,-14.390731327135608097
0.299000000000000155,-14.509193296252789196
0.300000000000000155,-14.622481885998315221
0.301000000000000156,-14.730779456922487469
0.302000000000000157,-14.834265685368313470
0.303000000000000158,-14.933117437357173785
0.304000000000000159,-15.027508648432121419
0.305000000000000160,-15.117610209705279800
0.306000000000000161,-15.203589860326474081
0.307000000000000162,-15.285612086560339762
0.308000000000000163,-15.363838027628977656
0.309000000000000163,-15.438425388447555520
0.310000000000000164,-15.509528359351273608
0.311000000000000165,-15.577297542883107084
0.312000000000000166,-15.641879887684250861
0.313000000000000167,-15.703418629502163384
0.314000000000000168,-15.762053239305405583
0.315000000000000169,-15.817919378469762037
0.316000000000000170,-15.871148860977152495
0.317000000000000171,-15.921869622546271472
0.318000000000000171,-15.970205696593765765
0.319000000000000172,-16.016277196905395641
0.320000000000000173,-16.060200306878677168
0.321000000000000174,-16.102087275182480397
0.322000000000000175,-16.142046417663898694
0.323000000000000176,-16.180182125319433339
0.324000000000000177,-16.216594878135509816
0.325000000000000178,-16.251381264592403397
0.326000000000000179,-16.284634006616943935
0.327000000000000179,-16.316441989760612330
0.328000000000000180,-16.346890298373686790
0.329000000000000181,-16.376060255540071608
0.330000000000000182,-16.404029467533234765
0.331000000000000183,-16.430871872550746104
0.332000000000000184,-16.456657793482321495
0.333000000000000185,-16.481453994465304902
0.334000000000000186,-16.505323740981555858
0.335000000000000187,-16.528326863249649392
0.336000000000000187,-16.550519822668853465
0.337000000000000188,-16.571955781072311709
0.338000000000000189,-16.592684672550845448
0.339000000000000190,-16.612753277612025471
0.340000000000000191,-16.632205299442791357
0.341000000000000192,-16.651081442049694203
0.342000000000000193,-16.669419490054877997
0.343000000000000194,-16.687254389932508758
0.344000000000000195,-16.704618332475373421
0.345000000000000195,-16.721540836288767196
0.346000000000000196,-16.738048832114362341
0.347000000000000197,-16.754166747794396741
0.348000000000000198,-16.769916593693078966
0.349000000000000199,-16.785318048399517465
0.350000000000000200,-16.800388544543920943
0.351000000000000201,-16.815143354565950773
0.352000000000000202,-16.829595676281947192
0.353000000000000203,-16.843756718104962999
0.354000000000000203,-16.857635783779436167
0.355000000000000204,-16.871240356499278334
0.356000000000000205,-16.884576182286306079
0.357000000000000206,-16.897647352512770169
0.358000000000000207,-16.910456385459248452
0.359000000000000208,-16.923004306806397778
0.360000000000000209,-16.935290728966144513
0.361000000000000210,-16.947313929164568691
0.362000000000000210,-16.959070926195877860
0.363000000000000211,-16.970557555773268632
0.364000000000000212,-16.981768544408883059
0.365000000000000213,-16.992697581761465386
0.366000000000000214,-17.003337391396328826
0.367000000000000215,-17.013679799908025814
0.368000000000000216,-17.023715804362051784
0.369000000000000217,-17.033435638016989344
0.370000000000000218,-17.042828834294166285
0.371000000000000218,-17.051884288966686398
0.372000000000000219,-17.060590320544520182
0.373000000000000220,-17.068934728837351855
0.374000000000000221,-17.076904851680630770
0.375000000000000222,-17.084487619815149628
0.376000000000000223,-17.091669609914085015
0.377000000000000224,-17.098437095755318893
0.378000000000000225,-17.104776097540504765
0.379000000000000226,-17.110672429365557434
0.380000000000000226,-17.116111744850837084
0.381000000000000227,-17.121079580941689358
0.382000000000000228,-17.125561399893420855
0.383000000000000229,-17.129542629457024105
0.384000000000000230,-17.133008701284470732
0.385000000000000231,-17.135945087574953050
0.386000000000000232,-17.138337335985024623
0.387000000000000233,-17.140171102828102079
0.388000000000000234,-17.141432184590069454
0.389000000000000234,-17.142106547789794035
0.390000000000000235,-17.142180357214424902
0.391000000000000236,-17.141640002561011613
0.392000000000000237,-17.140472123516993008
0.393000000000000238,-17.138663633313221624
0.394000000000000239,-17.136201740784102299
0.395000000000000240,-17.133073970970375655
0.396000000000000241,-17.129268184300524780
0.397000000000000242,-17.124772594387639657
0.398000000000000242,-17.119575784478971769
0.399000000000000243,-17.113666722595652914
0.400000000000000244,-17.107034775400656201
0.401000000000000245,-17.099669720833006181
0.402000000000000246,-17.091561759546529231
0.403000000000000247,-17.082701525191417602
0.404000000000000248,-17.073080093576894711
0.405000000000000249,-17.062688990753141383
0.406000000000000250,-17.051520200050529041
0.407000000000000250,-17.039566168113850608
0.408000000000000251,-17.026819809969158115
0.409000000000000252,-17.013274513160403956
0.410000000000000253,-16.998924140992503595
0.411000000000000254,-16.983763034917465973
0.412000000000000255,-16.967786016099200452
0.413000000000000256,-16.950988386192697988
0.414000000000000257,-16.933365927372111770
0.415000000000000258,-16.914914901642383427
0.416000000000000258,-16.895632049467792513
0.417000000000000259,-16.875514587750672035
0.418000000000000260,-16.854560207192630372
0.419000000000000261,-16.832767069070047938
0.420000000000000262,-16.810133801454824720
0.421000000000000263,-16.786659494910960433
0.422000000000000264,-16.762343697696234557
0.423000000000000265,-16.737186410498217981
0.424000000000000266,-16.711188080732675587
0.425000000000000266,-16.684349596431776064
0.426000000000000267,-16.656672279748740095
0.427000000000000268,-16.628157880105085553
0.428000000000000269,-16.598808567005310266
0.429000000000000270,-16.568626922543785440
0.430000000000000271,-16.537615933627286324
0.431000000000000272,-16.505778983936192361
0.432000000000000273,-16.473119845646554182
0.433000000000000274,-16.439642670934397017
0.434000000000000274,-16.405351983283029682
0.435000000000000275,-16.370252668613275659
0.436000000000000276,-16.334349966255974351
0.437000000000000277,-16.297649459785137793
0.438000000000000278,-16.260157067729753777
0.439000000000000279,-16.221879034181345247
0.440000000000000280,-16.182821919313617798
0.441000000000000281,-16.142992589830157613
0.442000000000000282,-16.102398209355278880
0.443000000000000282,-16.061046228782309697
0.444000000000000283,-16.018944376593484691
0.445000000000000284,-15.976100649164370893
0.446000000000000285,-15.932523301065552701
0.447000000000000286,-15.888220835373733308
0.448000000000000287,-15.843201994003337063
0.449000000000000288,-15.797475748069924606
0.450000000000000289,-15.751051288295272457
0.451000000000000290,-15.703938015464245836
0.452000000000000290,-15.656145530942549016
0.453000000000000291,-15.607683627264032467
0.454000000000000292,-15.558562278795921685
0.455000000000000293,-15.508791632489607792
0.456000000000000294,-15.458381998724323836
0.457000000000000295,-15.407343842250540433
0.458000000000000296,-15.355687773239335314
0.459000000000000297,-15.303424538443952230
0.460000000000000298,-15.250565012478716653
0.461000000000000298,-15.197120189220816755
0.462000000000000299,-15.143101173339431398
0.463000000000000300,-15.088519171956647824
0.464000000000000301,-15.033385486444293733
0.465000000000000302,-14.977711504360168959
0.466000000000000303,-14.921508691527154866
0.467000000000000304,-14.864788584258132431
0.468000000000000305,-14.807562781729419754
0.469000000000000306,-14.749842938505105749
0.470000000000000306,-14.691640757214566193
0.471000000000000307,-14.632967981384604528
0.472000000000000308,-14.573836388428327737
0.473000000000000309,-14.514257782791620599
0.474000000000000310,-14.454243989258539926
0.475000000000000311,-14.393806846416419276
0.476000000000000312,-14.332958200281399996
0.477000000000000313,-14.271709898084633750
0.478000000000000314,-14.210073782219549088
0.479000000000000314,-14.148061684350182077
0.480000000000000315,-14.085685419680320507
0.481000000000000316,-14.022956781383337344
0.482000000000000317,-13.959887535192018859
0.483000000000000318,-13.896489414147913166
0.484000000000000319,-13.832774113509330505
0.485000000000000320,-13.768753285817140863
0.486000000000000321,-13.704438536117285352
0.487000000000000322,-13.639841417338820051
0.488000000000000322,-13.574973425826172502
0.489000000000000323,-13.509845997024388708
0.490000000000000324,-13.444470501315658240
0.491000000000000325,-13.378858240005687463
0.492000000000000326,-13.313020441458101928
0.493000000000000327,-13.246968257375334233
0.494000000000000328,-13.180712759223890629
0.495000000000000329,-13.114264934802383422
0.496000000000000330,-13.047635684950046553
0.497000000000000330,-12.980835820394114322
0.498000000000000331,-12.913876058733427143
0.499000000000000332,-12.846767021556797062
0.500000000000000333,-12.779519231693388548
0.501000000000000334,-12.712143110593173034
0.502000000000000335,-12.644648975835213633
0.503000000000000336,-12.577047038761424602
0.504000000000000337,-12.509347402233540691
0.505000000000000338,-12.441560058510916065
0.506000000000000338,-12.373694887246870167
0.507000000000000339,-12.305761653601191341
0.508000000000000340,-12.237770006466297090
0.509000000000000341,-12.169729476805006385
0.510000000000000342,-12.101649476097012581
0.511000000000000343,-12.033539294892168670
0.512000000000000344,-11.965408101467813751
0.513000000000000345,-11.897264940587890081
0.514000000000000346,-11.829118732361557420
0.515000000000000346,-11.760978271198656131
0.516000000000000347,-11.692852224859837662
0.517000000000000348,-11.624749133598989204
0.518000000000000349,-11.556677409395415879
0.519000000000000350,-11.488645335273693249
0.520000000000000351,-11.420661064708593102
0.521000000000000352,-11.352732621113023725
0.522000000000000353,-11.284867897406494208
0.523000000000000353,-11.217074655661878779
0.524000000000000354,-11.149360526828408169
0.525000000000000355,-11.081733010528306949
0.526000000000000356,-11.014199474925224109
0.527000000000000357,-10.946767156662124520
0.528000000000000358,-10.879443160866376417
0.529000000000000359,-10.812234461220214143
0.530000000000000360,-10.745147900094149662
0.531000000000000361,-10.678190188741471189
0.532000000000000361,-10.611367907551761292
0.533000000000000362,-10.544687506361350771
0.534000000000000363,-10.478155304818789872
0.535000000000000364,-10.411777492803416578
0.536000000000000365,-10.345560130895025353
0.537000000000000366,-10.279509150892835123
0.538000000000000367,-10.213630356381827369
0.539000000000000368,-10.147929423344763222
0.540000000000000369,-10.082411900817890071
0.541000000000000369,-10.017083211588854397
0.542000000000000370,-9.951948652934829553
0.543000000000000371,-9.887013397399380565
0.544000000000000372,-9.822282493606289577
0.545000000000000373,-9.757760867108832059
0.546000000000000374,-9.693453321272787804
0.547000000000000375,-9.629364538191699907
0.548000000000000376,-9.565499079632967749
0.549000000000000377,-9.501861388013095322
0.550000000000000377,-9.438455787400776842
0.551000000000000378,-9.375286484546311527
0.552000000000000379,-9.312357569936137835
0.553000000000000380,-9.249673018870861796
0.554000000000000381,-9.187236692565685203
0.555000000000000382,-9.125052339271892521
0.556000000000000383,-9.063123595418005607
0.557000000000000384,-9.001453986769627491
0.558000000000000385,-8.940046929606520365
0.559000000000000385,-8.878905731915931909
0.560000000000000386,-8.818033594600999336
0.561000000000000387,-8.757433612703074743
0.562000000000000388,-8.697108776636920169
0.563000000000000389,-8.637061973437823781
0.564000000000000390,-8.577295988019434603
0.565000000000000391,-8.517813504441537731
0.566000000000000392,-8.458617107186642059
0.567000000000000393,-8.399709282444595360
0.568000000000000393,-8.341092419404199987
0.569000000000000394,-8.282768811550994315
0.570000000000000395,-8.224740657970475155
0.571000000000000396,-8.167010064655698898
0.572000000000000397,-8.109579045818696486
0.573000000000000398,-8.052449525204790959
0.574000000000000399,-7.995623337409159426
0.575000000000000400,-7.939102229194820559
0.576000000000000401,-7.882887860811434777
0.577000000000000401,-7.826981807314290052
0.578000000000000402,-7.771385559882608263
0.579000000000000403,-7.716100527136800835
0.580000000000000404,-7.661128036453961343
0.581000000000000405,-7.606469335280914734
0.582000000000000406,-7.552125592444494551
0.583000000000000407,-7.498097899458213256
0.584000000000000408,-7.444387271825111618
0.585000000000000409,-7.390994650336063287
0.586000000000000409,-7.337920902363097575
0.587000000000000410,-7.285166823147439352
0.588000000000000411,-7.232733137081540420
0.589000000000000412,-7.180620498984986000
0.590000000000000413,-7.128829495373610214
0.591000000000000414,-7.077360645721597621
0.592000000000000415,-7.026214403716174672
0.593000000000000416,-6.975391158504440803
0.594000000000000417,-6.924891235932084221
0.595000000000000417,-6.874714899773787025
0.596000000000000418,-6.824862352954593980
0.597000000000000419,-6.775333738762569169
0.598000000000000420,-6.726129142051827436
0.599000000000000421,-6.677248590436212439
0.600000000000000422,-6.628692055472990674
0.601000000000000423,-6.580459453836560613
0.602000000000000424,-6.532550648481856292
0.603000000000000425,-6.484965449797233994
0.604000000000000425,-6.437703616746697222
0.605000000000000426,-6.390764858001212190
0.606000000000000427,-6.344148833059075621
