# grapheneoxide_ETHENE-AC
# h[nm],U(h)[kJ/mol]
0.149999999999999994,72.155186009930844193
0.150999999999999995,70.726297531296907550
0.151999999999999996,69.720521295660915939
0.152999999999999997,68.758962215428368836
0.153999999999999998,67.727266392238519188
0.154999999999999999,66.624892929112448314
0.156000000000000000,65.487969261988723702
0.157000000000000001,64.353884813103434226
0.158000000000000002,63.248310478021224412
0.159000000000000002,62.183289587549630539
0.160000000000000003,61.160002511954758120
0.161000000000000004,60.172819090757641902
0.162000000000000005,59.213024782592682982
0.163000000000000006,58.271602134621296898
0.164000000000000007,57.340971228857220865
0.165000000000000008,56.415835128820091882
0.166000000000000009,55.493361123520784872
0.167000000000000010,54.572930773935581783
0.168000000000000010,53.655656039980343053
0.169000000000000011,52.743810453433958685
0.170000000000000012,51.840276803411619255
0.171000000000000013,50.948072332182313460
0.172000000000000014,50.069981084117259229
0.173000000000000015,49.208300670491517792
0.174000000000000016,48.364696108752511350
0.175000000000000017,47.540144987427119361
0.176000000000000018,46.734954411736495672
0.177000000000000018,45.948829594569154722
0.178000000000000019,45.180975420103017370
0.179000000000000020,44.430214933361575902
0.180000000000000021,43.695111848515878705
0.181000000000000022,42.974087374453830535
0.182000000000000023,42.265524642180636761
0.183000000000000024,41.567856621886214441
0.184000000000000025,40.879635563963915956
0.185000000000000026,40.199583675166167041
0.186000000000000026,39.526625975250468059
0.187000000000000027,38.859907120794431989
0.188000000000000028,38.198794492365848896
0.189000000000000029,37.542870082801258036
0.190000000000000030,36.891913759284662433
0.191000000000000031,36.245880355701729059
0.192000000000000032,35.604872832329284904
0.193000000000000033,34.969113457139698653
0.194000000000000034,34.338914648724596645
0.195000000000000034,33.714650799565347938
0.196000000000000035,33.096732088084344525
0.197000000000000036,32.485581001029984805
0.198000000000000037,31.881612032139280188
0.199000000000000038,31.285214802893097641
0.200000000000000039,30.696740667927787882
0.201000000000000040,30.116492720604906452
0.202000000000000041,29.544719001215717924
0.203000000000000042,28.981608628195232313
0.204000000000000042,28.427290517870083875
0.205000000000000043,27.881834326757434894
0.206000000000000044,27.345253238346252544
0.207000000000000045,26.817508219873662512
0.208000000000000046,26.298513390377774357
0.209000000000000047,25.788142166130427313
0.210000000000000048,25.286233880683028019
0.211000000000000049,24.792600611842818381
0.212000000000000050,24.307033984969002915
0.213000000000000050,23.829311759443271512
0.214000000000000051,23.359204041760602166
0.215000000000000052,22.896479003446568612
0.216000000000000053,22.440908014238239332
0.217000000000000054,21.992270130197763223
0.218000000000000055,21.550355902381184592
0.219000000000000056,21.114970494238029630
0.220000000000000057,20.685936115069729624
0.221000000000000058,20.263093792731162068
0.222000000000000058,19.846304521488455919
0.223000000000000059,19.435449830777457692
0.224000000000000060,19.030431827798810929
0.225000000000000061,18.631172771718752301
0.226000000000000062,18.237614240007207655
0.227000000000000063,17.849715948423188649
0.228000000000000064,17.467454285629507638
0.229000000000000065,17.090820621646315658
0.230000000000000066,16.719819446582953049
0.231000000000000066,16.354466392540594200
0.232000000000000067,15.994786187459354210
0.233000000000000068,15.640810585168233970
0.234000000000000069,15.292576311143054824
0.235000000000000070,14.950123058618828509
0.236000000000000071,14.613491564852896687
0.237000000000000072,14.282721792586368537
0.238000000000000073,13.957851237180372905
0.239000000000000073,13.638913375569902797
0.240000000000000074,13.325936269124607492
0.241000000000000075,13.018941328767869692
0.242000000000000076,12.717942247300442205
0.243000000000000077,12.422944100816319946
0.244000000000000078,12.133942618387743906
0.245000000000000079,11.850923616830780105
0.246000000000000080,11.573862595332668590
0.247000000000000081,11.302724483013161461
0.248000000000000081,11.037463531088459234
0.249000000000000082,10.778023340187205648
0.250000000000000111,10.524337012512457790
0.251000000000000112,10.276327417929817187
0.252000000000000113,10.033907562665310920
0.253000000000000114,9.796981049097121641
0.254000000000000115,9.565442615096632295
0.255000000000000115,9.339178741498095349
0.256000000000000116,9.118068316528916029
0.257000000000000117,8.901983346395535790
0.258000000000000118,8.690789701674550116
0.259000000000000119,8.484347889686844724
0.260000000000000120,8.282513843619078386
0.261000000000000121,8.085139719787207468
0.262000000000000122,7.892074695097133663
0.263000000000000123,7.703165757437517414
0.264000000000000123,7.518258482427546241
0.265000000000000124,7.337197790630156646
0.266000000000000125,7.159828680020242864
0.267000000000000126,6.985996929161484736
0.268000000000000127,6.815549767188540109
0.269000000000000128,6.648336507309437593
0.270000000000000129,6.484209141131830556
0.271000000000000130,6.323022891673380386
0.272000000000000131,6.164636723439389066
0.273000000000000131,6.008913808437609028
0.274000000000000132,5.855721947450496678
0.275000000000000133,5.704933946298519132
0.276000000000000134,5.556427947204341855
0.277000000000000135,5.410087715707833311
0.278000000000000136,5.265802883885493557
0.279000000000000137,5.123469150897511426
0.280000000000000138,4.982988442121497386
0.281000000000000139,4.844269028335683736
0.282000000000000139,4.707225606587975619
0.283000000000000140,4.571779344531832656
0.284000000000000141,4.437857890127895111
0.285000000000000142,4.305395348702736769
0.286000000000000143,4.174332229425556484
0.287000000000000144,4.044615363311587330
0.288000000000000145,3.916197794888928829
0.289000000000000146,3.789038649676322645
0.290000000000000147,3.663102979613159338
0.291000000000000147,3.538361588563201821
0.292000000000000148,3.414790839980100579
0.293000000000000149,3.292372448778689176
0.294000000000000150,3.171093259401731590
0.295000000000000151,3.050945012009063539
0.296000000000000152,2.931924098646336407
0.297000000000000153,2.814031311174717054
0.298000000000000154,2.697271582662139622
0.299000000000000155,2.581653723852379123
0.300000000000000155,2.467190156240737231
0.301000000000000156,2.353896643195933613
0.302000000000000157,2.241792020477090475
0.303000000000000158,2.130897927403925252
0.304000000000000159,2.021238539847200144
0.305000000000000160,1.912840306116505573
0.306000000000000161,1.805731686733567098
0.307000000000000162,1.699942898991999796
0.308000000000000163,1.595505667119453408
0.309000000000000163,1.492452978775302253
0.310000000000000164,1.390818848537055841
0.311000000000000165,1.290638088951562956
0.312000000000000166,1.191946089653109109
0.313000000000000167,1.094778604979767866
0.314000000000000168,0.999171550452089718
0.315000000000000169,0.905160808414228635
0.316000000000000170,0.812782043077279637
0.317000000000000171,0.722070525147774811
0.318000000000000171,0.633060966170964412
0.319000000000000172,0.545787362668581744
0.320000000000000173,0.460282850104638708
0.321000000000000174,0.376579566669741461
0.322000000000000175,0.294708526834807805
0.323000000000000176,0.214699504588790890
0.324000000000000177,0.136580926241736594
0.325000000000000178,0.060379772644509666
0.326000000000000179,-0.013878509350956959
0.327000000000000179,-0.086170086391055833
0.328000000000000180,-0.156472809301680310
0.329000000000000181,-0.224766275192301940
0.330000000000000182,-0.291031881240655987
0.331000000000000183,-0.355252870430266765
0.332000000000000184,-0.417414369524948203
0.333000000000000185,-0.477503419574663024
0.334000000000000186,-0.535508999255175810
0.335000000000000187,-0.591422041350246563
0.336000000000000187,-0.645235442689831240
0.337000000000000188,-0.696944067860602035
0.338000000000000189,-0.746544747006944398
0.339000000000000190,-0.794036268040690052
0.340000000000000191,-0.839419363576819011
0.341000000000000192,-0.882696692910401537
0.342000000000000193,-0.923872819346766905
0.343000000000000194,-0.962954183192929691
0.344000000000000195,-0.999949070713174626
0.345000000000000195,-1.034867579346377520
0.346000000000000196,-1.067721579475920501
0.347000000000000197,-1.098524673036391563
0.348000000000000198,-1.127292149233732665
0.349000000000000199,-1.154040937647545118
0.350000000000000200,-1.178789558976139684
0.351000000000000201,-1.201558073676176841
0.352000000000000202,-1.222368028739984513
0.353000000000000203,-1.241242402844591197
0.354000000000000203,-1.258205550097314607
0.355000000000000204,-1.273283142593312878
0.356000000000000205,-1.286502111991320474
0.357000000000000206,-1.297890590304298986
0.358000000000000207,-1.307477850092203742
0.359000000000000208,-1.315294244234988863
0.360000000000000209,-1.321371145454475649
0.361000000000000210,-1.325740885744602471
0.362000000000000210,-1.328436695860549799
0.363000000000000211,-1.329492645008271356
0.364000000000000212,-1.328943580867308460
0.365000000000000213,-1.326825070071088630
0.366000000000000214,-1.323173339260667047
0.367000000000000215,-1.318025216819645351
0.368000000000000216,-1.311418075390153870
0.369000000000000217,-1.303389775261983408
0.370000000000000218,-1.293978608719666301
0.371000000000000218,-1.283223245424894854
0.372000000000000219,-1.271162678904924848
0.373000000000000220,-1.257836174210775981
0.374000000000000221,-1.243283216802665736
0.375000000000000222,-1.227543462713858391
0.376000000000000223,-1.210656690038334649
0.377000000000000224,-1.192662751781879971
0.378000000000000225,-1.173601530110840230
0.379000000000000226,-1.153512892027651393
0.380000000000000226,-1.132436646497387400
0.381000000000000227,-1.110412503044778898
0.382000000000000228,-1.087480031836947747
0.383000000000000229,-1.063678625262794109
0.384000000000000230,-1.039047461016024076
0.385000000000000231,-1.013625466685293741
0.386000000000000232,-0.987451285851185689
0.387000000000000233,-0.960563245686745559
0.388000000000000234,-0.932999326055023559
0.389000000000000234,-0.904797130094417867
0.390000000000000235,-0.875993856279824845
0.391000000000000236,-0.846626271945239095
0.392000000000000237,-0.816730688251102399
0.393000000000000238,-0.786342936577716478
0.394000000000000239,-0.755498346323962622
0.395000000000000240,-0.724231724088993056
0.396000000000000241,-0.692577334212844398
0.397000000000000242,-0.660568880650466150
0.398000000000000242,-0.628239490152522562
0.399000000000000243,-0.595621696724943694
0.400000000000000244,-0.562747427338313511
0.401000000000000245,-0.529647988857322005
0.402000000000000246,-0.496354056159550971
0.403000000000000247,-0.462895661412356330
0.404000000000000248,-0.429302184476008541
0.405000000000000249,-0.395602344400738160
0.406000000000000250,-0.361824191985028798
0.407000000000000250,-0.327995103362220930
0.408000000000000251,-0.294141774582251547
0.409000000000000252,-0.260290217155333625
0.410000000000000253,-0.226465754524255380
0.411000000000000254,-0.192693019432083223
0.412000000000000255,-0.158995952152116760
0.413000000000000256,-0.125397799547143141
0.414000000000000257,-0.091921114925182693
0.415000000000000258,-0.058587758659316792
0.416000000000000258,-0.025418899539365956
0.417000000000000259,0.007564983176334417
0.418000000000000260,0.040344097040473037
0.419000000000000261,0.072899333058570714
0.420000000000000262,0.105212261723513653
0.421000000000000263,0.137265128472793568
0.422000000000000264,0.169040848597861948
0.423000000000000265,0.200523001634533932
0.424000000000000266,0.231695825262609401
0.425000000000000266,0.262544208742546803
0.426000000000000267,0.293053685916129347
0.427000000000000268,0.323210427797657407
0.428000000000000269,0.353001234781412099
0.429000000000000270,0.382413528490506249
0.430000000000000271,0.411435343291679356
0.431000000000000272,0.440055317499751020
0.432000000000000273,0.468262684294925235
0.433000000000000274,0.496047262375356734
0.434000000000000274,0.523399446366809906
0.435000000000000275,0.550310197010443036
0.436000000000000276,0.576771031149169167
0.437000000000000277,0.602774011532362985
0.438000000000000278,0.628311736457934922
0.439000000000000279,0.653377329270208085
0.440000000000000280,0.677964427731350572
0.441000000000000281,0.702067173283447254
0.442000000000000282,0.725680200217634686
0.443000000000000282,0.748798624766155774
0.444000000000000283,0.771418034132457686
0.445000000000000284,0.793534475473907763
0.446000000000000285,0.815144444851136130
0.447000000000000286,0.836244876157206773
0.448000000000000287,0.856833130039558633
0.449000000000000288,0.876906982826731962
0.450000000000000289,0.896464615471621373
0.451000000000000290,0.915504602522240751
0.452000000000000290,0.934025901130558056
0.453000000000000291,0.952027840109390011
0.454000000000000292,0.969510109046816781
0.455000000000000293,0.986472747487120438
0.456000000000000294,1.002916134186710106
0.457000000000000295,1.018840976453045499
0.458000000000000296,1.034248299574111574
0.459000000000000297,1.049139436345531085
0.460000000000000298,1.063516016701977263
0.461000000000000298,1.077379957459108750
0.462000000000000299,1.090733452171845919
0.463000000000000300,1.103578961114432655
0.464000000000000301,1.115919201387286730
0.465000000000000302,1.127757137155304568
0.466000000000000303,1.139095970021958948
0.467000000000000304,1.149939129543094518
0.468000000000000305,1.160290263884057094
0.469000000000000306,1.170153230623467433
0.470000000000000306,1.179532087706578025
0.471000000000000307,1.188431084550943151
0.472000000000000308,1.196854653306755223
0.473000000000000309,1.204807400273986362
0.474000000000000310,1.212294097478161969
0.475000000000000311,1.219319674406398768
0.476000000000000312,1.225889209904981181
0.477000000000000313,1.232007924239690855
0.478000000000000314,1.237681171319693352
0.479000000000000314,1.242914431085696991
0.480000000000000315,1.247713302062857910
0.481000000000000316,1.252083494078689130
0.482000000000000317,1.256030821146084664
0.483000000000000318,1.259561194511354509
0.484000000000000319,1.262680615867039835
0.485000000000000320,1.265395170729067598
0.486000000000000321,1.267711021977708574
0.487000000000000322,1.269634403561606062
0.488000000000000322,1.271171614364072555
0.489000000000000323,1.272329012230624112
0.490000000000000324,1.273113008156730341
0.491000000000000325,1.273530060634521899
0.492000000000000326,1.273586670157187406
0.493000000000000327,1.273289373879624264
0.494000000000000328,1.272644740433842347
0.495000000000000329,1.271659364897558708
0.496000000000000330,1.270339863914278222
0.497000000000000330,1.268692870963130215
0.498000000000000331,1.266725031776665400
0.499000000000000332,1.264442999904689779
0.500000000000000333,1.261853432422232579
0.501000000000000334,1.258962985779655597
0.502000000000000335,1.255778311792833835
0.503000000000000336,1.252306053771347516
0.504000000000000337,1.248552842782550965
0.505000000000000338,1.244525294049345643
0.506000000000000338,1.240230003479472654
0.507000000000000339,1.235673544324096929
0.508000000000000340,1.230862463963437348
0.509000000000000341,1.225803280817159724
0.510000000000000342,1.220502481377272463
0.511000000000000343,1.214966517361190323
0.512000000000000344,1.209201802982681651
0.513000000000000345,1.203214712338364523
0.514000000000000346,1.197011576907417663
0.515000000000000346,1.190598683162197080
0.516000000000000347,1.183982270287412097
0.517000000000000348,1.177168528005527737
0.518000000000000349,1.170163594506089755
0.519000000000000350,1.162973554476641969
0.520000000000000351,1.155604437232919057
0.521000000000000352,1.148062214946032444
0.522000000000000353,1.140352800964351987
0.523000000000000353,1.132482048227810179
0.524000000000000354,1.124455747772387326
0.525000000000000355,1.116279627322500412
0.526000000000000356,1.107959349969129370
0.527000000000000357,1.099500512931413265
0.528000000000000358,1.090908646399599169
0.529000000000000359,1.082189212457125738
0.530000000000000360,1.073347604079758044
0.531000000000000361,1.064389144209616500
0.532000000000000361,1.055319084902049731
0.533000000000000362,1.046142606543256193
0.534000000000000363,1.036864817136651240
0.535000000000000364,1.027490751655948165
0.536000000000000365,1.018025371462991435
0.537000000000000366,1.008473563788376826
0.538000000000000367,0.998840141272949955
0.539000000000000368,0.989129841568274992
0.540000000000000369,0.979347326994231659
0.541000000000000369,0.969497184251885691
0.542000000000000370,0.959583924189853610
0.543000000000000371,0.949611981622374701
0.544000000000000372,0.939585715197351568
0.545000000000000373,0.929509407312665958
0.546000000000000374,0.919387264079071564
0.547000000000000375,0.909223415328037077
0.548000000000000376,0.899021914662908928
0.549000000000000377,0.888786739551825633
0.550000000000000377,0.878521791460822876
0.551000000000000378,0.868230896025608656
0.552000000000000379,0.857917803260535905
0.553000000000000380,0.847586187803287983
0.554000000000000381,0.837239649193882274
0.555000000000000382,0.826881712186571027
0.556000000000000383,0.816515827093293622
0.557000000000000384,0.806145370157332453
0.558000000000000385,0.795773643955888232
0.559000000000000385,0.785403877830275210
0.560000000000000386,0.775039228342526032
0.561000000000000387,0.764682779757163922
0.562000000000000388,0.754337544546981986
0.563000000000000389,0.744006463921651262
0.564000000000000390,0.733692408378060046
0.565000000000000391,0.723398178271258963
0.566000000000000392,0.713126504404972716
0.567000000000000393,0.702880048640600830
0.568000000000000393,0.692661404523735480
0.569000000000000394,0.682473097927166705
0.570000000000000395,0.672317587709460152
0.571000000000000396,0.662197266388133032
0.572000000000000397,0.652114460826539122
0.573000000000000398,0.642071432933593256
0.574000000000000399,0.632070380375449825
0.575000000000000400,0.622113437298325689
0.576000000000000401,0.612202675061658041
0.577000000000000401,0.602340102980795988
0.578000000000000402,0.592527669078480868
0.579000000000000403,0.582767260844389234
0.580000000000000404,0.573060706001989884
0.581000000000000405,0.563409773282058879
0.582000000000000406,0.553816173202160145
0.583000000000000407,0.544281558851445468
0.584000000000000408,0.534807526680166512
0.585000000000000409,0.525395617293264450
0.586000000000000409,0.516047316247464583
0.587000000000000410,0.506764054851309265
0.588000000000000411,0.497547210967587195
0.589000000000000412,0.488398109817611448
0.590000000000000413,0.479318024786862473
0.591000000000000414,0.470308178231483631
0.592000000000000415,0.461369742285174134
0.593000000000000416,0.452503839666003771
0.594000000000000417,0.443711544482727482
0.595000000000000417,0.434993883040172058
0.596000000000000418,0.426351834643283301
0.597000000000000419,0.417786332399454730
0.598000000000000420,0.409298264018754021
0.599000000000000421,0.400888472611696023
0.600000000000000422,0.392557757484202519
0.601000000000000423,0.384306874929453091
0.602000000000000424,0.376136539016264038
0.603000000000000425,0.368047422373726063
0.604000000000000425,0.360040156971812686
0.605000000000000426,0.352115334897667887
0.606000000000000427,0.344273509127304533
0.607000000000000428,0.336515194292512421
0.608000000000000429,0.328840867442642071
0.609000000000000430,0.321250968801166215
0.610000000000000431,0.313745902516671504
0.611000000000000432,0.306326037408173657
0.612000000000000433,0.298991707704522935
0.613000000000000433,0.291743213777704458
0.614000000000000434,0.284580822869895278
0.615000000000000435,0.277504769814090557
0.616000000000000436,0.270515257748152493
0.617000000000000437,0.263612458822133633
0.618000000000000438,0.256796514898751049
0.619000000000000439,0.250067538246874610
