# grapheneoxide_THRSCA-AC
# h[nm],U(h)[kJ/mol]
0.149999999999999994,73.960804415607782403
0.150999999999999995,72.167398842434863582
0.151999999999999996,71.113319343406288908
0.152999999999999997,70.200140567460522334
0.153999999999999998,69.214521034434412172
0.154999999999999999,68.122776596365469004
0.156000000000000000,66.960225388585129735
0.157000000000000001,65.776279671821214379
0.158000000000000002,64.610956361674524828
0.159000000000000002,63.488015440689594016
0.160000000000000003,62.416027502173392350
0.161000000000000004,61.392486959100814659
0.162000000000000005,60.408417075685420627
0.163000000000000006,59.452287990124510486
0.164000000000000007,58.512842214209868530
0.165000000000000008,57.580825459388620402
0.166000000000000009,56.649804004607837271
0.167000000000000010,55.716308461408758035
0.168000000000000010,54.779536825708802894
0.169000000000000011,53.840812675328621140
0.170000000000000012,52.902947702709091971
0.171000000000000013,51.969612405926604026
0.172000000000000014,51.044779862805214066
0.173000000000000015,50.132276868289849858
0.174000000000000016,49.235454253360273924
0.175000000000000017,48.356972938700408804
0.176000000000000018,47.498692868754261553
0.177000000000000018,46.661647046489953539
0.178000000000000019,45.846081199306532028
0.179000000000000020,45.051540104471072823
0.180000000000000021,44.276983456597598376
0.181000000000000022,43.520916741372246861
0.182000000000000023,42.781525436646759886
0.183000000000000024,42.056803686463595682
0.184000000000000025,41.344671191335926608
0.185000000000000026,40.643074320463128402
0.186000000000000026,39.950069331541151030
0.187000000000000027,39.263887076953459143
0.188000000000000028,38.582979704399889442
0.189000000000000029,37.906050664572561004
0.190000000000000030,37.232069865342147352
0.191000000000000031,36.560276110221465729
0.192000000000000032,35.890169076083601851
0.193000000000000033,35.221493064639268766
0.194000000000000034,34.554214642128158630
0.195000000000000034,33.888496094338862008
0.196000000000000035,33.224666395934463026
0.197000000000000036,32.563191145172147856
0.198000000000000037,31.904642663609809716
0.199000000000000038,31.249671217170554627
0.200000000000000039,30.598978088275760712
0.201000000000000040,29.953291023984935038
0.202000000000000041,29.313342405172569727
0.203000000000000042,28.679850327872109972
0.204000000000000042,28.053502659799345764
0.205000000000000043,27.434944031528679886
0.206000000000000044,26.824765640962489499
0.207000000000000045,26.223497689331178861
0.208000000000000046,25.631604224503320211
0.209000000000000047,25.049480140332637035
0.210000000000000048,24.477450066638940740
0.211000000000000049,23.915768880870466262
0.212000000000000050,23.364623577364579177
0.213000000000000050,22.824136241479891396
0.214000000000000051,22.294367892005688248
0.215000000000000052,21.775322974696816658
0.216000000000000053,21.266954311289989477
0.217000000000000054,20.769168330900903641
0.218000000000000055,20.281830433447584738
0.219000000000000056,19.804770357037526196
0.220000000000000057,19.337787442590368414
0.221000000000000058,18.880655708981603169
0.222000000000000058,18.433128670427585405
0.223000000000000059,17.994943844539005084
0.224000000000000060,17.565826914365409550
0.225000000000000061,17.145495520827882530
0.226000000000000062,16.733662673224234396
0.227000000000000063,16.330039775065856134
0.228000000000000064,15.934339270468878880
0.229000000000000065,15.546276922794376674
0.230000000000000066,15.165573742346257546
0.231000000000000066,14.791957583827990419
0.232000000000000067,14.425164437070733925
0.233000000000000068,14.064939436411957985
0.234000000000000069,13.711037615157223968
0.235000000000000070,13.363224431922223090
0.236000000000000071,13.021276095443841569
0.237000000000000072,12.684979713772555954
0.238000000000000073,12.354133292710889336
0.239000000000000073,12.028545607029844433
0.240000000000000074,11.708035966450378140
0.241000000000000075,11.392433896689990291
0.242000000000000076,11.081578754098234896
0.243000000000000077,10.775319290589676413
0.244000000000000078,10.473513183768503154
0.245000000000000079,10.176026545357119701
0.246000000000000080,9.882733419320516077
0.247000000000000081,9.593515279436449106
0.248000000000000081,9.308260534516941576
0.249000000000000082,9.026864048048375722
0.250000000000000111,8.749226677693149767
0.251000000000000112,8.475254838890110776
0.252000000000000113,8.204860095703063294
0.253000000000000114,7.937958781098582328
0.254000000000000115,7.674471647979180133
0.255000000000000115,7.414323551555030534
0.256000000000000116,7.157443162998580632
0.257000000000000117,6.903762713786631089
0.258000000000000118,6.653217769686838423
0.259000000000000119,6.405747032982044509
0.260000000000000120,6.161292171239532323
0.261000000000000121,5.919797670716247850
0.262000000000000122,5.681210712336492108
0.263000000000000123,5.445481068080158416
0.264000000000000123,5.212561015569019851
0.265000000000000124,4.982405268630159867
0.266000000000000125,4.754970921643160153
0.267000000000000126,4.530217405535263531
0.268000000000000127,4.308106453371081557
0.269000000000000128,4.088602073586351970
0.270000000000000129,3.871670529033680364
0.271000000000000130,3.657280320138284857
0.272000000000000131,3.445402170600819769
0.273000000000000131,3.236009014228112157
0.274000000000000132,3.029075981619342883
0.275000000000000133,2.824580385581962449
0.276000000000000134,2.622501704296543501
0.277000000000000135,2.422821561391760525
0.278000000000000136,2.225523702226868572
0.279000000000000137,2.030593965810077783
0.280000000000000138,1.838020251905085889
0.281000000000000139,1.647792482993926999
0.282000000000000139,1.459902560872716970
0.283000000000000140,1.274344317756308742
0.284000000000000141,1.091113461859123612
0.285000000000000142,0.910207517501661179
0.286000000000000143,0.731625759866063818
0.287000000000000144,0.555369144589526909
0.288000000000000145,0.381440232441105531
0.289000000000000146,0.209843109377190112
0.290000000000000147,0.040583302311861247
0.291000000000000147,-0.126332309026719825
0.292000000000000148,-0.290895583755706011
0.293000000000000149,-0.453097214592812159
0.294000000000000150,-0.612926825272586462
0.295000000000000151,-0.770373070178713260
0.296000000000000152,-0.925423735742656128
0.297000000000000153,-1.078065843158308335
0.298000000000000154,-1.228285751966332828
0.299000000000000155,-1.376069264068902953
0.300000000000000155,-1.521401727746311439
0.301000000000000156,-1.664268141260086153
0.302000000000000157,-1.804653255643315024
0.303000000000000158,-1.942541676296407616
0.304000000000000159,-2.077917963026385095
0.305000000000000160,-2.210766728188590324
0.306000000000000161,-2.341072732611880092
0.307000000000000162,-2.468820979011320027
0.308000000000000163,-2.593996802615767372
0.309000000000000163,-2.716585958761699615
0.310000000000000164,-2.836574707228585623
0.311000000000000165,-2.953949893114976799
0.312000000000000166,-3.068699024078311410
0.313000000000000167,-3.180810343784648886
0.314000000000000168,-3.290272901437433895
0.315000000000000169,-3.397076617276624688
0.316000000000000170,-3.501212343961025653
0.317000000000000171,-3.602671923767291950
0.318000000000000171,-3.701448241558925822
0.319000000000000172,-3.797535273497652408
0.320000000000000173,-3.890928131487197739
0.321000000000000174,-3.981623103356660032
0.322000000000000175,-4.069617688806494549
0.323000000000000176,-4.154910631154941747
0.324000000000000177,-4.237501944936655995
0.325000000000000178,-4.317392939417843856
0.326000000000000179,-4.394586238104301046
0.327000000000000179,-4.469085794329015648
0.328000000000000180,-4.540896903016031771
0.329000000000000181,-4.610026208725868102
0.330000000000000182,-4.676481710095444555
0.331000000000000183,-4.740272760792537454
0.332000000000000184,-4.801410067110477797
0.333000000000000185,-4.859905682334082933
0.334000000000000186,-4.915772998011986417
0.335000000000000187,-4.969026732274041791
0.336000000000000187,-5.019682915335327955
0.337000000000000188,-5.067758872330082376
0.338000000000000189,-5.113273203620606111
0.339000000000000190,-5.156245762726792137
0.340000000000000191,-5.196697632022009294
0.341000000000000192,-5.234651096341045751
0.342000000000000193,-5.270129614644682547
0.343000000000000194,-5.303157789884409112
0.344000000000000195,-5.333761337208772879
0.345000000000000195,-5.361967050651194278
0.346000000000000196,-5.387802768436151801
0.347000000000000197,-5.411297337038194932
0.348000000000000198,-5.432480574125105655
0.349000000000000199,-5.451383230513116018
0.350000000000000200,-5.468036951258777201
0.351000000000000201,-5.482474236008154200
0.352000000000000202,-5.494728398720221563
0.353000000000000203,-5.504833526877382255
0.354000000000000203,-5.512824440291796968
0.355000000000000204,-5.518736649611949652
0.356000000000000205,-5.522606314629717517
0.357000000000000206,-5.524470202483824366
0.358000000000000207,-5.524365645850953577
0.359000000000000208,-5.522330501211795806
0.360000000000000209,-5.518403107274560959
0.361000000000000210,-5.512622243634283770
0.362000000000000210,-5.505027089741854951
0.363000000000000211,-5.495657184252404903
0.364000000000000212,-5.484552384818440096
0.365000000000000213,-5.471752828388889434
0.366000000000000214,-5.457298892071166030
0.367000000000000215,-5.441231154609246445
0.368000000000000216,-5.423590358526925392
0.369000000000000217,-5.404417372981418666
0.370000000000000218,-5.383753157368898812
0.371000000000000218,-5.361638725719716447
0.372000000000000219,-5.338115111917721478
0.373000000000000220,-5.313223335774550193
0.374000000000000221,-5.287004369986478380
0.375000000000000222,-5.259499107998227174
0.376000000000000223,-5.230748332795128519
0.377000000000000224,-5.200792686642030205
0.378000000000000225,-5.169672641784478273
0.379000000000000226,-5.137428472125081136
0.380000000000000226,-5.104100225885420450
0.381000000000000227,-5.069727699261180831
0.382000000000000228,-5.034350411076165877
0.383000000000000229,-4.998007578438363296
0.384000000000000230,-4.960738093399224447
0.385000000000000231,-4.922580500615418408
0.386000000000000232,-4.883572976010237099
0.387000000000000233,-4.843753306430281569
0.388000000000000234,-4.803158870291204252
0.389000000000000234,-4.761826619204899025
0.390000000000000235,-4.719793060578941990
0.391000000000000236,-4.677094241177831790
0.392000000000000237,-4.633765731634242435
0.393000000000000238,-4.589842611897442026
0.394000000000000239,-4.545359457604815745
0.395000000000000240,-4.500350327361637426
0.396000000000000241,-4.454848750913184219
0.397000000000000242,-4.408887718192480598
0.398000000000000242,-4.362499669226410859
0.399000000000000243,-4.315716484881981785
0.400000000000000244,-4.268569478434161013
0.401000000000000245,-4.221089387936168613
0.402000000000000246,-4.173306369372488334
0.403000000000000247,-4.125249990574668679
0.404000000000000248,-4.076949225879558547
0.405000000000000249,-4.028432451509360135
0.406000000000000250,-3.979727441652647801
0.407000000000000250,-3.930861365225402526
0.408000000000000251,-3.881860783290890460
0.409000000000000252,-3.832751647117255800
0.410000000000000253,-3.783559296851566334
0.411000000000000254,-3.734308460789133477
0.412000000000000255,-3.685023255216937521
0.413000000000000256,-3.635727184810131352
0.414000000000000257,-3.586443143560583025
0.415000000000000258,-3.537193416216792397
0.416000000000000258,-3.487999680214428189
0.417000000000000259,-3.438883008077183057
0.418000000000000260,-3.389863870267704637
0.419000000000000261,-3.340962138468696274
0.420000000000000262,-3.292197089274540023
0.421000000000000263,-3.243587408274087203
0.422000000000000264,-3.195151194505586378
0.423000000000000265,-3.146905965264962468
0.424000000000000266,-3.098868661249221113
0.425000000000000266,-3.051055652016779085
0.426000000000000267,-3.003482741747236950
0.427000000000000268,-2.956165175283184787
0.428000000000000269,-2.909117644437224648
0.429000000000000270,-2.862354294547734046
0.430000000000000271,-2.815888731267162548
0.431000000000000272,-2.769734027567287704
0.432000000000000273,-2.723902730946052841
0.433000000000000274,-2.678406870821187891
0.434000000000000274,-2.633257966096039127
0.435000000000000275,-2.588467032883676744
0.436000000000000276,-2.544044592375576563
0.437000000000000277,-2.500000678841638013
0.438000000000000278,-2.456344847748787252
0.439000000000000279,-2.413086183985747812
0.440000000000000280,-2.370233310181936837
0.441000000000000281,-2.327794395108996106
0.442000000000000282,-2.285777162153720621
0.443000000000000282,-2.244188897851604025
0.444000000000000283,-2.203036460470662483
0.445000000000000284,-2.162326288635499694
0.446000000000000285,-2.122064409981972766
0.447000000000000286,-2.082256449833361778
0.448000000000000287,-2.042907639888993820
0.449000000000000288,-2.004022826917012612
0.450000000000000289,-1.965606481443029407
0.451000000000000290,-1.927662706426949812
0.452000000000000290,-1.890195245920545775
0.453000000000000291,-1.853207493698635577
0.454000000000000292,-1.816702501857189178
0.455000000000000293,-1.780682989371850766
0.456000000000000294,-1.745151350610832264
0.457000000000000295,-1.710109663796353319
0.458000000000000296,-1.675559699409103320
0.459000000000000297,-1.641502928530587324
0.460000000000000298,-1.607940531118362326
0.461000000000000298,-1.574873404209616190
0.462000000000000299,-1.542302170048660770
0.463000000000000300,-1.510227184134269596
0.464000000000000301,-1.478648543183027186
0.465000000000000302,-1.447566093005121513
0.466000000000000303,-1.416979436289161676
0.467000000000000304,-1.386887940292993004
0.468000000000000305,-1.357290744437586127
0.469000000000000306,-1.328186767801320389
0.470000000000000306,-1.299574716512269967
0.471000000000000307,-1.271453091036156335
0.472000000000000308,-1.243820193358020854
0.473000000000000309,-1.216674134055667933
0.474000000000000310,-1.190012839263291378
0.475000000000000311,-1.163834057523687182
0.476000000000000312,-1.138135366527883274
0.477000000000000313,-1.112914179740838616
0.478000000000000314,-1.088167752912355457
0.479000000000000314,-1.063893190472317229
0.480000000000000315,-1.040087451809493135
0.481000000000000316,-1.016747357433432253
0.482000000000000317,-0.993869595018945895
0.483000000000000318,-0.971450725332914322
0.484000000000000319,-0.949487188043206531
0.485000000000000320,-0.927975307409694139
0.486000000000000321,-0.906911297857349696
0.487000000000000322,-0.886291269431632278
0.488000000000000322,-0.866111233136353298
0.489000000000000323,-0.846367106154458426
0.490000000000000324,-0.827054716952075664
0.491000000000000325,-0.808169810266422983
0.492000000000000326,-0.789708051978128212
0.493000000000000327,-0.771665033868698558
0.494000000000000328,-0.754036278263873094
0.495000000000000329,-0.736817242563672203
0.496000000000000330,-0.720003323660063810
0.497000000000000330,-0.703589862243191977
0.498000000000000331,-0.687572146997141642
0.499000000000000332,-0.671945418686383689
0.500000000000000333,-0.656704874133932082
0.501000000000000334,-0.641845670092404341
0.502000000000000335,-0.627362927009209370
0.503000000000000336,-0.613251732687080886
0.504000000000000337,-0.599507145841234435
0.505000000000000338,-0.586124199554485137
0.506000000000000338,-0.573097904631657995
0.507000000000000339,-0.560423252854653220
0.508000000000000340,-0.548095220139585004
0.509000000000000341,-0.536108769597424817
0.510000000000000342,-0.524458854499560978
0.511000000000000343,-0.513140421149764991
0.512000000000000344,-0.502148411664030681
0.513000000000000345,-0.491477766659782211
0.514000000000000346,-0.481123427855967845
0.515000000000000346,-0.471080340585526613
0.516000000000000347,-0.461343456221770531
0.517000000000000348,-0.451907734520234361
0.518000000000000349,-0.442768145877465602
0.519000000000000350,-0.433919673508355586
0.520000000000000351,-0.425357315543515468
0.521000000000000352,-0.417076087048251665
0.522000000000000353,-0.409071021964671377
0.523000000000000353,-0.401337174978443401
0.524000000000000354,-0.393869623311780104
0.525000000000000355,-0.386663468444127856
0.526000000000000356,-0.379713837762094830
0.527000000000000357,-0.373015886140172115
0.528000000000000358,-0.366564797453658553
0.529000000000000359,-0.360355786025402802
0.530000000000000360,-0.354384098007735848
0.531000000000000361,-0.348645012701153667
0.532000000000000361,-0.343133843811143813
0.533000000000000362,-0.337845940644671827
0.534000000000000363,-0.332776689247692381
0.535000000000000364,-0.327921513485169458
0.536000000000000365,-0.323275876064967993
0.537000000000000366,-0.318835279507040270
0.538000000000000367,-0.314595267059248729
0.539000000000000368,-0.310551423561238493
0.540000000000000369,-0.306699376257630441
0.541000000000000369,-0.303034795561942405
0.542000000000000370,-0.299553395772476416
0.543000000000000371,-0.296250935741504962
0.544000000000000372,-0.293123219499025978
0.545000000000000373,-0.290166096832328246
0.546000000000000374,-0.287375463822607535
0.547000000000000375,-0.284747263339858170
0.548000000000000376,-0.282277485497246461
0.549000000000000377,-0.279962168066122563
0.550000000000000377,-0.277797396852848988
0.551000000000000378,-0.275779306038591299
0.552000000000000379,-0.273904078483177327
0.553000000000000380,-0.272167945994146732
0.554000000000000381,-0.270567189562053945
0.555000000000000382,-0.269098139563116234
0.556000000000000383,-0.267757175930215752
0.557000000000000384,-0.266540728293322149
0.558000000000000385,-0.265445276090297333
0.559000000000000385,-0.264467348649118084
0.560000000000000386,-0.263603525242431580
0.561000000000000387,-0.262850435115437153
0.562000000000000388,-0.262204757487992712
0.563000000000000389,-0.261663221531872492
0.564000000000000390,-0.261222606324060136
0.565000000000000391,-0.260879740776948865
0.566000000000000392,-0.260631503546300769
0.567000000000000393,-0.260474822917816318
0.568000000000000393,-0.260406676673099025
0.569000000000000394,-0.260424091935845925
0.570000000000000395,-0.260524144999023322
0.571000000000000396,-0.260703961133797069
0.572000000000000397,-0.260960714380976011
0.573000000000000398,-0.261291627325654863
0.574000000000000399,-0.261693970855829072
0.575000000000000400,-0.262165063905610285
0.576000000000000401,-0.262702273183760826
0.577000000000000401,-0.263303012888201071
0.578000000000000402,-0.263964744407120810
0.579000000000000403,-0.264684976007311890
0.580000000000000404,-0.265461262510380769
0.581000000000000405,-0.266291204957374072
0.582000000000000406,-0.267172450262444572
0.583000000000000407,-0.268102690856102333
0.584000000000000408,-0.269079664318593426
0.585000000000000409,-0.270101153003959982
0.586000000000000409,-0.271164983655293512
0.587000000000000410,-0.272269027011677323
0.588000000000000411,-0.273411197407324724
0.589000000000000412,-0.274589452363387942
0.590000000000000413,-0.275801792172889915
0.591000000000000414,-0.277046259479247048
0.592000000000000415,-0.278320938848809263
0.593000000000000416,-0.279623956337846258
0.594000000000000417,-0.280953479054389832
0.595000000000000417,-0.282307714715343716
0.596000000000000418,-0.283684911199223566
0.597000000000000419,-0.285083356094934404
0.598000000000000420,-0.286501376246920736
0.599000000000000421,-0.287937337297064055
0.600000000000000422,-0.289389643223657955
0.601000000000000423,-0.290856735877786987
0.602000000000000424,-0.292337094517444940
0.603000000000000425,-0.293829235339689299
0.604000000000000425,-0.295331711011128151
0.605000000000000426,-0.296843110197033577
0.606000000000000427,-0.298362057089380184
0.607000000000000428,-0.299887210934009218
0.608000000000000429,-0.301417265557300362
0.609000000000000430,-0.302950948892442340
0.610000000000000431,-0.304487022505704363
0.611000000000000432,-0.306024281122820652
0.612000000000000433,-0.307561552155762696
0.613000000000000433,-0.309097695230129754
0.614000000000000434,-0.310631601713324490
