# grapheneoxide_CS-6338-AC
# h[nm],U(h)[kJ/mol]
0.200000000000000011,88.186823798525324491
0.201000000000000012,87.398503924613393679
0.202000000000000013,86.236856964680768556
0.203000000000000014,84.912859014921252765
0.204000000000000015,83.543555731580624979
0.205000000000000016,82.187273425027527196
0.206000000000000016,80.867305061734242599
0.207000000000000017,79.587462544165759937
0.208000000000000018,78.341968606092478922
0.209000000000000019,77.121476437139278914
0.210000000000000020,75.916496618708961819
0.211000000000000021,74.719136003715078687
0.212000000000000022,73.523778775606658087
0.213000000000000023,72.327140847256174538
0.214000000000000024,71.127985797255306011
0.215000000000000024,69.926689117300568910
0.216000000000000025,68.724766650059450512
0.217000000000000026,67.524434452796327832
0.218000000000000027,66.328234734218526114
0.219000000000000028,65.138741374277600471
0.220000000000000029,63.958345446875931373
0.221000000000000030,62.789113630650618347
0.222000000000000031,61.632708603563187921
0.223000000000000032,60.490359173853036623
0.224000000000000032,59.362868083152271481
0.225000000000000033,58.250646486857817763
0.226000000000000034,57.153765636138359696
0.227000000000000035,56.072017966903914044
0.228000000000000036,55.004981460901170465
0.229000000000000037,53.952082674281484742
0.230000000000000038,52.912655172158579830
0.231000000000000039,51.885991240855545925
0.232000000000000040,50.871385672020338120
0.233000000000000040,49.868171137490612921
0.234000000000000041,48.875745221259407458
0.235000000000000042,47.893589569168184994
0.236000000000000043,46.921281882846024303
0.237000000000000044,45.958501645765572619
0.238000000000000045,45.005030547956991427
0.239000000000000046,44.060748591258175111
0.240000000000000047,43.125626825608563308
0.241000000000000048,42.199717602768537006
0.242000000000000048,41.283143148373888209
0.243000000000000049,40.376083155542893621
0.244000000000000050,39.478762000448000435
0.245000000000000051,38.591436077707498953
0.246000000000000052,37.714381655063753840
0.247000000000000053,36.847883555287005208
0.248000000000000054,35.992224890314773234
0.249000000000000055,35.147677999262462833
0.250000000000000056,34.314496678483791925
0.251000000000000056,33.492909738237301553
0.252000000000000057,32.683115876315135040
0.253000000000000058,31.885279823583250192
0.254000000000000059,31.099529688986866205
0.255000000000000060,30.325955411340107304
0.256000000000000061,29.564608211255631431
0.257000000000000062,28.815500928000290060
0.258000000000000063,28.078609122042706758
0.259000000000000064,27.353872823792119817
0.260000000000000064,26.641198811789998047
0.261000000000000065,25.940463308747844451
0.262000000000000066,25.251514990741974032
0.263000000000000067,24.574178213073832211
0.264000000000000068,23.908256365341429728
0.265000000000000069,23.253535277775821299
0.266000000000000070,22.609786610569923226
0.267000000000000071,21.976771167513653893
0.268000000000000071,21.354242084553057168
0.269000000000000072,20.741947852756521087
0.270000000000000073,20.139635143485932645
0.271000000000000074,19.547051411255491615
0.272000000000000075,18.963947256763169946
0.273000000000000076,18.390078538875997083
0.274000000000000077,17.825208229931085668
0.275000000000000078,17.269108013591157658
0.276000000000000079,16.721559628687565180
0.277000000000000079,16.182355966026761962
0.278000000000000080,15.651301928068956926
0.279000000000000081,15.128215063751250469
0.280000000000000082,14.612925992572025180
0.281000000000000083,14.105278633424862988
0.282000000000000084,13.605130254619666630
0.283000000000000085,13.112351362103575880
0.284000000000000086,12.626825443139942706
0.285000000000000087,12.148448582668692097
0.286000000000000087,11.677128969293248062
0.287000000000000088,11.212786307360854465
0.288000000000000089,10.755351150959146622
0.289000000000000090,10.304764174875490568
0.290000000000000091,9.860975396688010264
0.291000000000000092,9.423943363203154178
0.292000000000000093,8.993634313450254325
0.293000000000000094,8.570021329408284316
0.294000000000000095,8.153083484592675845
0.295000000000000095,7.742804999585328751
0.296000000000000096,7.339174412564036132
0.297000000000000097,6.942183771886865529
0.298000000000000098,6.551827856823774887
0.299000000000000099,6.168103431607410592
0.300000000000000100,5.791008537104832321
0.301000000000000101,5.420541823593618247
0.302000000000000102,5.056701927365524263
0.303000000000000103,4.699486893175923719
0.304000000000000103,4.348893643913440243
0.305000000000000104,4.004917498276519439
0.306000000000000105,3.667551736715044086
0.307000000000000106,3.336787215422023056
0.308000000000000107,3.012612027741750520
0.309000000000000108,2.695011211994627676
0.310000000000000109,2.383966504401324293
0.311000000000000110,2.079456135520003635
0.312000000000000111,1.781454668382773665
0.313000000000000111,1.489932876333537992
0.314000000000000112,1.204857658421349509
0.315000000000000113,0.926191990091049910
0.316000000000000114,0.653894906832123368
0.317000000000000115,0.387921518394934550
0.318000000000000116,0.128223051157302537
0.319000000000000117,-0.125253083778182728
0.320000000000000118,-0.372563199157964486
0.321000000000000119,-0.613767219188756763
0.322000000000000119,-0.848928548500766267
0.323000000000000120,-1.078113924712492677
0.324000000000000121,-1.301393256770922768
0.325000000000000122,-1.518839451154726294
0.326000000000000123,-1.730528227934910790
0.327000000000000124,-1.936537928587996005
0.328000000000000125,-2.136949317352894617
0.329000000000000126,-2.331845377815258580
0.330000000000000127,-2.521311106294288784
0.331000000000000127,-2.705433303496508568
0.332000000000000128,-2.884300365791284904
0.333000000000000129,-3.058002077353621839
0.334000000000000130,-3.226629404312087335
0.335000000000000131,-3.390274291934948003
0.336000000000000132,-3.549029465784468762
0.337000000000000133,-3.702988237670755467
0.338000000000000134,-3.852244317140949725
0.339000000000000135,-3.996891629147507619
0.340000000000000135,-4.137024138452844113
0.341000000000000136,-4.272735681243895023
0.342000000000000137,-4.404119804352236045
0.343000000000000138,-4.531269612401183977
0.344000000000000139,-4.654277623132560215
0.345000000000000140,-4.773235631100806842
0.346000000000000141,-4.888234579862443141
0.347000000000000142,-4.999364442733304159
0.348000000000000143,-5.106714112135086303
0.349000000000000143,-5.210371297505989041
0.350000000000000144,-5.310422431707931601
0.351000000000000145,-5.406952585824155832
0.352000000000000146,-5.500045392206906136
0.353000000000000147,-5.589782975603776904
0.354000000000000148,-5.676245892164352824
0.355000000000000149,-5.759513076104886053
0.356000000000000150,-5.839661793788128108
0.357000000000000151,-5.916767604957915871
0.358000000000000151,-5.990904330853329185
0.359000000000000152,-6.062144028915128935
0.360000000000000153,-6.130556973787771646
0.361000000000000154,-6.196211644312606737
0.362000000000000155,-6.259174716203152578
0.363000000000000156,-6.319511060089765486
0.364000000000000157,-6.377283744619705708
0.365000000000000158,-6.432554044299044094
0.366000000000000159,-6.485381451764121508
0.367000000000000159,-6.535823694173801712
0.368000000000000160,-6.583936753417700238
0.369000000000000161,-6.629774889841074881
0.370000000000000162,-6.673390669193336677
0.371000000000000163,-6.714834992514279399
0.372000000000000164,-6.754157128679952216
0.373000000000000165,-6.791404749338665781
0.374000000000000166,-6.826623965976710728
0.375000000000000167,-6.859859368862494478
0.376000000000000167,-6.891154067628119329
0.377000000000000168,-6.920549733257128189
0.378000000000000169,-6.948086641257546603
0.379000000000000170,-6.973803715809912873
0.380000000000000171,-6.997738574690336222
0.381000000000000172,-7.019927574779268653
0.382000000000000173,-7.040405857977110493
0.383000000000000174,-7.059207397358363778
0.384000000000000175,-7.076365043406218192
0.385000000000000175,-7.091910570179659423
0.386000000000000176,-7.105874721275432293
0.387000000000000177,-7.118287255456541729
0.388000000000000178,-7.129176991829123899
0.389000000000000179,-7.138571854458200860
0.390000000000000180,-7.146498916322426176
0.391000000000000181,-7.152984442516382657
0.392000000000000182,-7.158053932617453263
0.393000000000000183,-7.161732162142564917
0.394000000000000183,-7.164043223027834806
0.395000000000000184,-7.165010563071675165
0.396000000000000185,-7.164657024289079246
0.397000000000000186,-7.163004880131635943
0.398000000000000187,-7.160075871534425929
0.399000000000000188,-7.155891241757023735
0.400000000000000189,-7.150471769991680659
0.401000000000000190,-7.143837803717497437
0.402000000000000191,-7.136009289784337462
0.403000000000000191,-7.127005804215291285
0.404000000000000192,-7.116846580721144733
0.405000000000000193,-7.105550537924410825
0.406000000000000194,-7.093136305294687638
0.407000000000000195,-7.079622247800758217
0.408000000000000196,-7.065026489288181111
0.409000000000000197,-7.049366934594464063
0.410000000000000198,-7.032661290416832855
0.411000000000000199,-7.014927084949997393
0.412000000000000199,-6.996181686314227655
0.413000000000000200,-6.976442319795779667
0.414000000000000201,-6.955726083924072434
0.415000000000000202,-6.934049965411524852
0.416000000000000203,-6.911430852983714956
0.417000000000000204,-6.887885550128826750
0.418000000000000205,-6.863430786796598682
0.419000000000000206,-6.838083230077995900
0.420000000000000207,-6.811859493897675755
0.421000000000000207,-6.784776147752244135
0.422000000000000208,-6.756849724527424605
0.423000000000000209,-6.728096727428341417
0.424000000000000210,-6.698533636056853702
0.425000000000000211,-6.668176911670404827
0.426000000000000212,-6.637043001656907748
0.427000000000000213,-6.605148343260029087
0.428000000000000214,-6.572509366589342150
0.429000000000000214,-6.539142496949414962
0.430000000000000215,-6.505064156521759067
0.431000000000000216,-6.470290765433245994
0.432000000000000217,-6.434838742243984555
0.433000000000000218,-6.398724503887389226
0.434000000000000219,-6.361964465094533061
0.435000000000000220,-6.324575037334319028
0.436000000000000221,-6.286572627300317073
0.437000000000000222,-6.247973634974510304
0.438000000000000222,-6.208794451297491968
0.439000000000000223,-6.169051455473828938
0.440000000000000224,-6.128761011940665249
0.441000000000000225,-6.087939467026669327
0.442000000000000226,-6.046603145327933859
0.443000000000000227,-6.004768345826153819
0.444000000000000228,-5.962451337774099969
0.445000000000000229,-5.919668356372097762
0.446000000000000230,-5.876435598258626491
0.447000000000000230,-5.832769216837303539
0.448000000000000231,-5.788685317461514934
0.449000000000000232,-5.744199952497140771
0.450000000000000233,-5.699329116283215590
0.451000000000000234,-5.654088740009012071
0.452000000000000235,-5.608494686525789419
0.453000000000000236,-5.562562745110080087
0.454000000000000237,-5.516308626195010056
0.455000000000000238,-5.469747956084990648
0.456000000000000238,-5.422896271668573576
0.457000000000000239,-5.375769015143298191
0.458000000000000240,-5.328381528765779862
0.459000000000000241,-5.280749049639259951
0.460000000000000242,-5.232886704550501200
0.461000000000000243,-5.184809504866715102
0.462000000000000244,-5.136532341503037280
0.463000000000000245,-5.088069979969780832
0.464000000000000246,-5.039437055508698471
0.465000000000000246,-4.990648068326271947
0.466000000000000247,-4.941717378931754112
0.467000000000000248,-4.892659203586951833
0.468000000000000249,-4.843487609874265409
0.469000000000000250,-4.794216512388747908
0.470000000000000251,-4.744859668559632482
0.471000000000000252,-4.695430674606006605
0.472000000000000253,-4.645942961631113199
0.473000000000000254,-4.596409791858908633
0.474000000000000254,-4.546844255016386782
0.475000000000000255,-4.497259264864444717
0.476000000000000256,-4.447667555879880830
0.477000000000000257,-4.398081680090557555
0.478000000000000258,-4.348514004065341609
0.479000000000000259,-4.298976706060267716
0.480000000000000260,-4.249481773321768685
0.481000000000000261,-4.200040999547608678
0.482000000000000262,-4.150665982505874929
0.483000000000000262,-4.101368121811998613
0.484000000000000263,-4.052158616863456686
0.485000000000000264,-4.003048464931699080
0.486000000000000265,-3.954048459410431260
0.487000000000000266,-3.905169188219164145
0.488000000000000267,-3.856421032360844769
0.489000000000000268,-3.807814164632012499
0.490000000000000269,-3.759358548483794582
0.491000000000000270,-3.711063937031944704
0.492000000000000270,-3.662939872213768044
0.493000000000000271,-3.614995684089856720
0.494000000000000272,-3.567240490288246413
0.495000000000000273,-3.519683195588453994
0.496000000000000274,-3.472332491642941221
0.497000000000000275,-3.425196856833145453
0.498000000000000276,-3.378284556257378224
0.499000000000000277,-3.331603641847633135
0.500000000000000222,-3.285161952612308145
0.501000000000000334,-3.238967115001835317
0.502000000000000224,-3.193026543394074324
0.503000000000000336,-3.147347440696230514
0.504000000000000226,-3.101936799060228900
0.505000000000000338,-3.056801400708044181
0.506000000000000227,-3.011947818863989657
0.507000000000000339,-2.967382418790311061
0.508000000000000229,-2.923111358923068170
0.509000000000000341,-2.879140592104621366
0.510000000000000231,-2.835475866909736631
0.511000000000000343,-2.792122729061537800
0.512000000000000233,-2.749086522934313770
0.513000000000000345,-2.706372393139521826
0.514000000000000234,-2.663985286191984159
0.515000000000000346,-2.621929952252542328
0.516000000000000236,-2.580210946944313744
0.517000000000000348,-2.538832633238905068
0.518000000000000238,-2.497799183409653345
0.519000000000000350,-2.457114581048394086
0.520000000000000240,-2.416782623142836428
0.521000000000000352,-2.376806922211265327
0.522000000000000242,-2.337190908491542540
0.523000000000000353,-2.297937832181307094
0.524000000000000243,-2.259050765726446031
0.525000000000000355,-2.220532606154815625
0.526000000000000245,-2.182386077452401985
0.527000000000000357,-2.144613732978919884
0.528000000000000247,-2.107217957920270557
0.529000000000000359,-2.070200971774883492
0.530000000000000249,-2.033564830871477991
0.531000000000000361,-1.997311430915432506
0.532000000000000250,-1.961442509561366121
0.533000000000000362,-1.925959649009249208
0.534000000000000252,-1.890864278621765093
0.535000000000000364,-1.856157677560376085
0.536000000000000254,-1.821840977437959364
0.537000000000000366,-1.787915164985469207
0.538000000000000256,-1.754381084730771700
0.539000000000000368,-1.721239441687147931
0.540000000000000258,-1.688490804049725735
0.541000000000000369,-1.656135605897482987
0.542000000000000259,-1.624174149899198172
0.543000000000000371,-1.592606610021153113
0.544000000000000261,-1.561433034234968487
0.545000000000000373,-1.530653347223653205
0.546000000000000263,-1.500267353084284716
0.547000000000000375,-1.470274738025439509
0.548000000000000265,-1.440675073058126809
0.549000000000000377,-1.411467816678262377
0.550000000000000266,-1.382652317539584841
0.551000000000000378,-1.354227817115308152
0.552000000000000268,-1.326193452347303126
0.553000000000000380,-1.298548258281402745
0.554000000000000270,-1.271291170687661509
0.555000000000000382,-1.244421028664210116
0.556000000000000272,-1.217936577223772243
0.557000000000000384,-1.191836469861472958
0.558000000000000274,-1.166119271103173594
0.559000000000000385,-1.140783459033048786
0.560000000000000275,-1.115827427799710225
0.561000000000000387,-1.091249490099768904
0.562000000000000277,-1.067047879638101771
0.563000000000000389,-1.043220753563957270
0.564000000000000279,-1.019766194882168575
0.565000000000000391,-0.996682214838695679
0.566000000000000281,-0.973966755279895069
0.567000000000000393,-0.951617690984786657
0.568000000000000282,-0.929632831969843587
0.569000000000000394,-0.908009925765584369
0.570000000000000284,-0.886746659664640169
0.571000000000000396,-0.865840662940625672
0.572000000000000286,-0.845289509037571607
0.573000000000000398,-0.825090717729289436
0.574000000000000288,-0.805241757248500667
0.575000000000000400,-0.785740046385270285
0.576000000000000290,-0.766582956554478279
0.577000000000000401,-0.747767813832043493
0.578000000000000291,-0.729291900959684658
0.579000000000000403,-0.711152459317962227
0.580000000000000293,-0.693346690867473137
0.581000000000000405,-0.675871760057962456
0.582000000000000295,-0.658724795705346589
0.583000000000000407,-0.641902892836399230
0.584000000000000297,-0.625403114501137947
0.585000000000000409,-0.609222493552808997
0.586000000000000298,-0.593358034395451539
0.587000000000000410,-0.577806714699024004
0.588000000000000300,-0.562565487082146598
0.589000000000000412,-0.547631280762416517
0.590000000000000302,-0.533001003174446986
0.591000000000000414,-0.518671541555664417
0.592000000000000304,-0.504639764499927423
0.593000000000000416,-0.490902523479116559
0.594000000000000306,-0.477456654332853891
0.595000000000000417,-0.464298978726407630
0.596000000000000307,-0.451426305577030562
0.597000000000000419,-0.438835432448866136
0.598000000000000309,-0.426523146916634510
0.599000000000000421,-0.414486227898248238
0.600000000000000311,-0.402721446956673723
0.601000000000000423,-0.391225569571150567
0.602000000000000313,-0.379995356378129145
0.603000000000000425,-0.369027564382028550
0.604000000000000314,-0.358318948136280846
0.605000000000000426,-0.347866260894697299
0.606000000000000316,-0.337666255733645670
0.607000000000000428,-0.327715686645179360
0.608000000000000318,-0.318011309601522796
0.609000000000000430,-0.308549883591120788
0.610000000000000320,-0.299328171626664696
0.611000000000000432,-0.290342941725316717
0.612000000000000322,-0.281590967861535257
0.613000000000000433,-0.273069030892783782
0.614000000000000323,-0.264773919458481000
0.615000000000000435,-0.256702430852531471
0.616000000000000325,-0.248851371869769938
0.617000000000000437,-0.241217559626671740
0.618000000000000327,-0.233797822356716228
0.619000000000000439,-0.226589000180679040
0.620000000000000329,-0.219587945852302735
0.621000000000000441,-0.212791525479658850
0.622000000000000330,-0.206196619222554001
0.623000000000000442,-0.199800121966384886
0.624000000000000332,-0.193598943972765197
0.625000000000000444,-0.187590011507341309
0.626000000000000334,-0.181770267445111766
0.627000000000000446,-0.176136671853662885
0.628000000000000336,-0.170686202554667793
0.629000000000000448,-0.165415855664024808
0.630000000000000338,-0.160322646111007605
0.631000000000000449,-0.155403608136798710
0.632000000000000339,-0.150655795772750012
0.633000000000000451,-0.146076283298785942
0.634000000000000341,-0.141662165682262808
0.635000000000000453,-0.137410558997704962
0.636000000000000343,-0.133318600827712491
0.637000000000000455,-0.129383450645481013
0.638000000000000345,-0.125602290179243070
0.639000000000000457,-0.121972323758984660
0.640000000000000346,-0.118490778645848976
0.641000000000000458,-0.115154905344506425
0.642000000000000348,-0.111961977898909965
0.643000000000000460,-0.108909294171740709
0.644000000000000350,-0.105994176107911689
0.645000000000000462,-0.103213969982467346
0.646000000000000352,-0.100566046633224437
0.647000000000000464,-0.098047801678472130
0.648000000000000353,-0.095656655720115571
0.649000000000000465,-0.093390054532524427
0.650000000000000355,-0.091245469237481155
0.651000000000000467,-0.089220396465501506
0.652000000000000357,-0.087312358503898707
0.653000000000000469,-0.085518903431855670
0.654000000000000359,-0.083837605242872787
0.655000000000000471,-0.082266063954848548
0.656000000000000361,-0.080801905708157915
0.657000000000000473,-0.079442782851972982
0.658000000000000362,-0.078186374019181909
0.659000000000000474,-0.077030384190145254
0.660000000000000364,-0.075972544745638804
0.661000000000000476,-0.075010613509222474
0.662000000000000366,-0.074142374779340839
0.663000000000000478,-0.073365639351448325
