# grapheneoxide_CS-6110-AC
# h[nm],U(h)[kJ/mol]
0.149999999999999994,66.781532794684778764
0.150999999999999995,65.240630371286414402
0.151999999999999996,64.363299283865103462
0.152999999999999997,63.578468980642320219
0.153999999999999998,62.696706047711472820
0.154999999999999999,61.700853276989093388
0.156000000000000000,60.635493704422870564
0.157000000000000001,59.553732222421913889
0.158000000000000002,58.495694950455671801
0.159000000000000002,57.483382088310257529
0.160000000000000003,56.522983978361040158
0.161000000000000004,55.609777782226217369
0.162000000000000005,54.733134769370749950
0.163000000000000006,53.880566407983749855
0.164000000000000007,53.040504080628203099
0.165000000000000008,52.203891423944810413
0.166000000000000009,51.364829501440318893
0.167000000000000010,50.520553309809926645
0.168000000000000010,49.670994601971592886
0.169000000000000011,48.818136669714114362
0.170000000000000012,47.965311648642369846
0.171000000000000013,47.116540353180973000
0.172000000000000014,46.275973026230637686
0.173000000000000015,45.447457775274713754
0.174000000000000016,44.634241196608300584
0.175000000000000017,43.838791306326861275
0.176000000000000018,43.062724713194931780
0.177000000000000018,42.306816366128927598
0.178000000000000019,41.571069782804059400
0.179000000000000020,40.854827275440491974
0.180000000000000021,40.156902458377892629
0.181000000000000022,39.475720608984985915
0.182000000000000023,38.809455815878813212
0.183000000000000024,38.156157000760302367
0.184000000000000025,37.513857676597069712
0.185000000000000026,36.880666626904584859
0.186000000000000026,36.254838540677020831
0.187000000000000027,35.634825036966233824
0.188000000000000028,35.019307507827697634
0.189000000000000029,34.407213856068594282
0.190000000000000030,33.797721566597495269
0.191000000000000031,33.190249687318605254
0.192000000000000032,32.584442262671053925
0.193000000000000033,31.980145608582791539
0.194000000000000034,31.377381582776262547
0.195000000000000034,30.776318722481391887
0.196000000000000035,30.177242819041577349
0.197000000000000036,29.580528195621059950
0.198000000000000037,28.986610664697685991
0.199000000000000038,28.395962876074055004
0.200000000000000039,27.809072529809800045
0.201000000000000040,27.226423724829516004
0.202000000000000041,26.648481543776103564
0.203000000000000042,26.075679837064534183
0.204000000000000042,25.508412061981413643
0.205000000000000043,24.947024953251400348
0.206000000000000044,24.391814746500777744
0.207000000000000045,23.843025642067317449
0.208000000000000046,23.300850180219050856
0.209000000000000047,22.765431196788462387
0.210000000000000048,22.236865037477553386
0.211000000000000049,21.715205726915634443
0.212000000000000050,21.200469812549197712
0.213000000000000050,20.692641631547722625
0.214000000000000051,20.191678779372928432
0.215000000000000052,19.697517590054268055
0.216000000000000053,19.210078469390861500
0.217000000000000054,18.729270952369724057
0.218000000000000055,18.254998384389590882
0.219000000000000056,17.787162151938474608
0.220000000000000057,17.325665411888934386
0.221000000000000058,16.870416289384984054
0.222000000000000058,16.421330532340185471
0.223000000000000059,15.978333625888371472
0.224000000000000060,15.541362382825301580
0.225000000000000061,15.110366036307249615
0.226000000000000062,14.685306869018379672
0.227000000000000063,14.266160418894310524
0.228000000000000064,13.852915305517186084
0.229000000000000065,13.445572723703653750
0.230000000000000066,13.044145651815785669
0.231000000000000066,12.648657822149711905
0.232000000000000067,12.259142499601789922
0.233000000000000068,11.875641112864627758
0.234000000000000069,11.498201779838440828
0.235000000000000070,11.126877765910696994
0.236000000000000071,10.761725910397576200
0.237000000000000072,10.402805052872873048
0.238000000000000073,10.050174487438750859
0.239000000000000073,9.703892469305396062
0.240000000000000074,9.364014794414663001
0.241000000000000075,9.030593469328728418
0.242000000000000076,8.703675485252521327
0.243000000000000077,8.383301706906484796
0.244000000000000078,8.069505884039612553
0.245000000000000079,7.762313790689555404
0.246000000000000080,7.461742494868095044
0.247000000000000081,7.167799759179082741
0.248000000000000081,6.880483570963276563
0.249000000000000082,6.599781798903253893
0.250000000000000111,6.325671971603639143
0.251000000000000112,6.058121172476317540
0.252000000000000113,5.797086044291988927
0.253000000000000114,5.542512895996066113
0.254000000000000115,5.294337903809123169
0.255000000000000115,5.052487398226622517
0.256000000000000116,4.816878228280492280
0.257000000000000117,4.587418194310860287
0.258000000000000118,4.364006540503813980
0.259000000000000119,4.146534498563918092
0.260000000000000120,3.934885874094265823
0.261000000000000121,3.728937667538223089
0.262000000000000122,3.528560721881420559
0.263000000000000123,3.333620389709485377
0.264000000000000123,3.143977212653578768
0.265000000000000124,2.959487606723352204
0.266000000000000125,2.780004547515207758
0.267000000000000126,2.605378249785293754
0.268000000000000127,2.435456836383515178
0.269000000000000128,2.270086992051616459
0.270000000000000129,2.109114598088566606
0.271000000000000130,1.952385344375886733
0.272000000000000131,1.799745315730469475
0.273000000000000131,1.651041550008857994
0.274000000000000132,1.506122565823025727
0.275000000000000133,1.364838858140674738
0.276000000000000134,1.227043360431845143
0.277000000000000135,1.092591872387122853
0.278000000000000136,0.961343452569633050
0.279000000000000137,0.833160775673853160
0.280000000000000138,0.707910454348649298
0.281000000000000139,0.585463325799686629
0.282000000000000139,0.465694703618949657
0.283000000000000140,0.348484595496223293
0.284000000000000141,0.233717887650590039
0.285000000000000142,0.121284496979865833
0.286000000000000143,0.011079492063685104
0.287000000000000144,-0.096996815727062285
0.288000000000000145,-0.203038809664915998
0.289000000000000146,-0.307135532216033291
0.290000000000000147,-0.409370675216268354
0.291000000000000147,-0.509822594137590790
0.292000000000000148,-0.608564344878765651
0.293000000000000149,-0.705663741496394215
0.294000000000000150,-0.801183433287342650
0.295000000000000151,-0.895180999639158204
0.296000000000000152,-0.987709061080618511
0.297000000000000153,-1.078815404988812343
0.298000000000000154,-1.168543124441205894
0.299000000000000155,-1.256930768739811466
0.300000000000000155,-1.344012504179109113
0.301000000000000156,-1.429818283678758517
0.302000000000000157,-1.514374023955807669
0.303000000000000158,-1.597701788967778480
0.304000000000000159,-1.679819978417765203
0.305000000000000160,-1.760743520174032684
0.306000000000000161,-1.840484065519649493
0.307000000000000162,-1.919050186211527231
0.308000000000000163,-1.996447572392370473
0.309000000000000163,-2.072679230463285727
0.310000000000000164,-2.147745680088525067
0.311000000000000165,-2.221645149566744859
0.312000000000000166,-2.294373768865115348
0.313000000000000167,-2.365925759673030093
0.314000000000000168,-2.436293621891157724
0.315000000000000169,-2.505468316028689024
0.316000000000000170,-2.573439441036908804
0.317000000000000171,-2.640195407160260466
0.318000000000000171,-2.705723603437017566
0.319000000000000172,-2.770010559530502015
0.320000000000000173,-2.833042101617883279
0.321000000000000174,-2.894803502107769599
0.322000000000000175,-2.955279622999261058
0.323000000000000176,-3.014455052734364759
0.324000000000000177,-3.072314236432432288
0.325000000000000178,-3.128841599429635689
0.326000000000000179,-3.184021664078727554
0.327000000000000179,-3.237839159793902244
0.328000000000000180,-3.290279126353270467
0.329000000000000181,-3.341327010496774275
0.330000000000000182,-3.390968755880508834
0.331000000000000183,-3.439190886469802422
0.332000000000000184,-3.485980583472406469
0.333000000000000185,-3.531325755930629917
0.334000000000000186,-3.575215105106702485
0.335000000000000187,-3.617638182809396419
0.336000000000000187,-3.658585443822236272
0.337000000000000188,-3.698048292603886900
0.338000000000000189,-3.736019124440796535
0.339000000000000190,-3.772491361239591612
0.340000000000000191,-3.807459482153178865
0.341000000000000192,-3.840919049239756244
0.342000000000000193,-3.872866728357869270
0.343000000000000194,-3.903300305503655032
0.344000000000000195,-3.932218698798210177
0.345000000000000195,-3.959621966334373688
0.346000000000000196,-3.985511310091987891
0.347000000000000197,-4.009889076130436436
0.348000000000000198,-4.032758751265768105
0.349000000000000199,-4.054124956437782146
0.350000000000000200,-4.073993436969953308
0.351000000000000201,-4.092371049921911919
0.352000000000000202,-4.109265748730662970
0.353000000000000203,-4.124686565332755350
0.354000000000000203,-4.138643589955265156
0.355000000000000204,-4.151147948758637796
0.356000000000000205,-4.162211779509644494
0.357000000000000206,-4.171848205457411751
0.358000000000000207,-4.180071307579906303
0.359000000000000208,-4.186896095362952153
0.360000000000000209,-4.192338476267916114
0.361000000000000210,-4.196415224038394065
0.362000000000000210,-4.199143945990413407
0.363000000000000211,-4.200543049424613429
0.364000000000000212,-4.200631707292974859
0.365000000000000213,-4.199429823246597415
0.366000000000000214,-4.196957996185183504
0.367000000000000215,-4.193237484422834171
0.368000000000000216,-4.188290169579071076
0.369000000000000217,-4.182138520298016360
0.370000000000000218,-4.174805555893171594
0.371000000000000218,-4.166314810009409619
0.372000000000000219,-4.156690294388513784
0.373000000000000220,-4.145956462819086141
0.374000000000000221,-4.134138175346462774
0.375000000000000222,-4.121260662813079456
0.376000000000000223,-4.107349491794938245
0.377000000000000224,-4.092430529994810051
0.378000000000000225,-4.076529912148230572
0.379000000000000226,-4.059674006493810161
0.380000000000000226,-4.041889381855094499
0.381000000000000227,-4.023202775376796048
0.382000000000000228,-4.003641060954469921
0.383000000000000229,-3.983231218392575990
0.384000000000000230,-3.962000303322219530
0.385000000000000231,-3.939975417906451671
0.386000000000000232,-3.917183682357288976
0.387000000000000233,-3.893652207285732914
0.388000000000000234,-3.869408066902613630
0.389000000000000234,-3.844478273085485398
0.390000000000000235,-3.818889750323705812
0.391000000000000236,-3.792669311551439826
0.392000000000000237,-3.765843634875599921
0.393000000000000238,-3.738439241203619368
0.394000000000000239,-3.710482472773491303
0.395000000000000240,-3.681999472586606093
0.396000000000000241,-3.653016164741878846
0.397000000000000242,-3.623558235667799998
0.398000000000000242,-3.593651116247438715
0.399000000000000243,-3.563319964829729791
0.400000000000000244,-3.532589651118916318
0.401000000000000245,-3.501484740932782724
0.402000000000000246,-3.470029481818825534
0.403000000000000247,-3.438247789516546415
0.404000000000000248,-3.406163235252936516
0.405000000000000249,-3.373799033857177054
0.406000000000000250,-3.341178032679832821
0.407000000000000250,-3.308322701300917323
0.408000000000000251,-3.275255122010567899
0.409000000000000252,-3.241996981045409232
0.410000000000000253,-3.208569560563127254
0.411000000000000254,-3.174993731337328207
0.412000000000000255,-3.141289946154252277
0.413000000000000256,-3.107478233892709607
0.414000000000000257,-3.073578194268111741
0.415000000000000258,-3.039608993221444067
0.416000000000000258,-3.005589358933680622
0.417000000000000259,-2.971537578446100447
0.418000000000000260,-2.937471494866853217
0.419000000000000261,-2.903408505144077889
0.420000000000000262,-2.869365558385887027
0.421000000000000263,-2.835359154707582707
0.422000000000000264,-2.801405344586524571
0.423000000000000265,-2.767519728705171822
0.424000000000000266,-2.733717458263059896
0.425000000000000266,-2.700013235738468076
0.426000000000000267,-2.666421316080927806
0.427000000000000268,-2.632955508315791171
0.428000000000000269,-2.599629177542406300
0.429000000000000270,-2.566455247307736443
0.430000000000000271,-2.533446202337408248
0.431000000000000272,-2.500614091606676137
0.432000000000000273,-2.467970531733917117
0.433000000000000274,-2.435526710679766005
0.434000000000000274,-2.403293391735180418
0.435000000000000275,-2.371280917782235154
0.436000000000000276,-2.339499215811722710
0.437000000000000277,-2.307957801681975951
0.438000000000000278,-2.276665785103812567
0.439000000000000279,-2.245631874836811370
0.440000000000000280,-2.214864384082495086
0.441000000000000281,-2.184371236060461907
0.442000000000000282,-2.154159969753865145
0.443000000000000282,-2.124237745810974243
0.444000000000000283,-2.094611352590090902
0.445000000000000284,-2.065287212335328082
0.446000000000000285,-2.036271387471230376
0.447000000000000286,-2.007569587004693901
0.448000000000000287,-1.979187173022792789
0.449000000000000288,-1.951129167275828191
0.450000000000000289,-1.923400257834976701
0.451000000000000290,-1.896004805814556438
0.452000000000000290,-1.868946852149157678
0.453000000000000291,-1.842230124416287307
0.454000000000000292,-1.815858043695586233
0.455000000000000293,-1.789833731455960031
0.456000000000000294,-1.764160016462408276
0.457000000000000295,-1.738839441694629118
0.458000000000000296,-1.713874271269802296
0.459000000000000297,-1.689266497362374109
0.460000000000000298,-1.665017847113885452
0.461000000000000298,-1.641129789526315275
0.462000000000000299,-1.617603542332644251
0.463000000000000300,-1.594440078838675001
0.464000000000000301,-1.571640134730488025
0.465000000000000302,-1.549204214842162086
0.466000000000000303,-1.527132599878648467
0.467000000000000304,-1.505425353089052898
0.468000000000000305,-1.484082326885776126
0.469000000000000306,-1.463103169405234771
0.470000000000000306,-1.442487331006221840
0.471000000000000307,-1.422234070702050213
0.472000000000000308,-1.402342462523067379
0.473000000000000309,-1.382811401806185003
0.474000000000000310,-1.363639611408421271
0.475000000000000311,-1.344825647841561000
0.476000000000000312,-1.326367907325410656
0.477000000000000313,-1.308264631757102503
0.478000000000000314,-1.290513914594327405
0.479000000000000314,-1.273113706650442545
0.480000000000000315,-1.256061821799568712
0.481000000000000316,-1.239355942590078641
0.482000000000000317,-1.222993625764911663
0.483000000000000318,-1.206972307687436130
0.484000000000000319,-1.191289309671645480
0.485000000000000320,-1.175941843215699389
0.486000000000000321,-1.160927015137900087
0.487000000000000322,-1.146241832614397271
0.488000000000000322,-1.131883208117968387
0.489000000000000323,-1.117847964257470128
0.490000000000000324,-1.104132838517533077
0.491000000000000325,-1.090734487898312066
0.492000000000000326,-1.077649493455121732
0.493000000000000327,-1.064874364737984802
0.494000000000000328,-1.052405544131131299
0.495000000000000329,-1.040239411092642507
0.496000000000000330,-1.028372286294501503
0.497000000000000330,-1.016800435663419266
0.498000000000000331,-1.005520074322818980
0.499000000000000332,-0.994527370436575131
0.500000000000000333,-0.983818448955021019
0.501000000000000334,-0.973389395263894341
0.502000000000000335,-0.963236258736969830
0.503000000000000336,-0.953355056193133543
0.504000000000000337,-0.943741775258731708
0.505000000000000338,-0.934392377636109273
0.506000000000000338,-0.925302802279266645
0.507000000000000339,-0.916468968477610502
0.508000000000000340,-0.907886778848848941
0.509000000000000341,-0.899552122242113894
0.510000000000000342,-0.891460876552378934
0.511000000000000343,-0.883608911447360645
0.512000000000000344,-0.875992091008049867
0.513000000000000345,-0.868606276284086598
0.514000000000000346,-0.861447327765226589
0.515000000000000346,-0.854511107770113854
0.516000000000000347,-0.847793482753666949
0.517000000000000348,-0.841290325534378547
0.518000000000000349,-0.834997517442798931
0.519000000000000350,-0.828910950392576673
0.520000000000000351,-0.823026528875360319
0.521000000000000352,-0.817340171880933886
0.522000000000000353,-0.811847814743928309
0.523000000000000353,-0.806545410918472760
0.524000000000000354,-0.801428933682176159
0.525000000000000355,-0.796494377770789797
0.526000000000000356,-0.791737760944931090
0.527000000000000357,-0.787155125490271779
0.528000000000000358,-0.782742539652513392
0.529000000000000359,-0.778496099008594289
0.530000000000000360,-0.774411927775428000
0.531000000000000361,-0.770486180057595393
0.532000000000000361,-0.766715041035319400
0.533000000000000362,-0.763094728094097396
0.534000000000000363,-0.759621491897314094
0.535000000000000364,-0.756291617403206162
0.536000000000000365,-0.753101424827475330
0.537000000000000366,-0.750047270552896328
0.538000000000000367,-0.747125547987199878
0.539000000000000368,-0.744332688370567430
0.540000000000000369,-0.741665161533970441
0.541000000000000369,-0.739119476609679027
0.542000000000000370,-0.736692182695151576
0.543000000000000371,-0.734379869471576296
0.544000000000000372,-0.732179167778291395
0.545000000000000373,-0.730086750144289143
0.546000000000000374,-0.728099331278001749
0.547000000000000375,-0.726213668516559885
0.548000000000000376,-0.724426562235693461
0.549000000000000377,-0.722734856221405209
0.550000000000000377,-0.721135438004571361
0.551000000000000378,-0.719625239159573771
0.552000000000000379,-0.718201235568061813
0.553000000000000380,-0.716860447648941301
0.554000000000000381,-0.715599940555615488
0.555000000000000382,-0.714416824341586487
0.556000000000000383,-0.713308254095367689
0.557000000000000384,-0.712271430045791631
0.558000000000000385,-0.711303597638645924
0.559000000000000385,-0.710402047585652952
0.560000000000000386,-0.709564115886718305
0.561000000000000387,-0.708787183826408373
0.562000000000000388,-0.708068677945554059
0.563000000000000389,-0.707406069988909203
0.564000000000000390,-0.706796876829713372
0.565000000000000391,-0.706238660372054516
0.566000000000000392,-0.705729027431850620
0.567000000000000393,-0.705265629597312982
0.568000000000000393,-0.704846163069656639
0.569000000000000394,-0.704468368484895135
0.570000000000000395,-0.704130030717471489
0.571000000000000396,-0.703828978666478200
0.572000000000000397,-0.703563085025240453
0.573000000000000398,-0.703330266034931650
0.574000000000000399,-0.703128481222990986
0.575000000000000400,-0.702955733126976678
0.576000000000000401,-0.702810067004557726
0.577000000000000401,-0.702689570530309449
0.578000000000000402,-0.702592373479923316
0.579000000000000403,-0.702516647402465555
0.580000000000000404,-0.702460605281323369
0.581000000000000405,-0.702422501184374992
0.582000000000000406,-0.702400629904014195
0.583000000000000407,-0.702393326587557598
0.584000000000000408,-0.702398966358590782
0.585000000000000409,-0.702415963929789333
0.586000000000000409,-0.702442773207725968
0.587000000000000410,-0.702477886890173320
0.588000000000000411,-0.702519836056374247
0.589000000000000412,-0.702567189750786580
0.590000000000000413,-0.702618554560716979
0.591000000000000414,-0.702672574188337284
0.592000000000000415,-0.702727929017487929
0.593000000000000416,-0.702783335675694509
0.594000000000000417,-0.702837546591813855
0.595000000000000417,-0.702889349549706832
0.596000000000000418,-0.702937567238294037
0.597000000000000419,-0.702981056798410164
0.598000000000000420,-0.703018709366771355
0.599000000000000421,-0.703049449617436095
0.600000000000000422,-0.703072235301079762
0.601000000000000423,-0.703086056782401880
0.602000000000000424,-0.703089936576004604
0.603000000000000425,-0.703082928881020974
0.604000000000000425,-0.703064119114791830
0.605000000000000426,-0.703032623445877136
0.606000000000000427,-0.702987588326693169
0.607000000000000428,-0.702928190025968846
0.608000000000000429,-0.702853634161394014
0.609000000000000430,-0.702763155232557279
0.610000000000000431,-0.702656016154543428
0.611000000000000432,-0.702531507792322429
0.612000000000000433,-0.702388948496175280
0.613000000000000433,-0.702227683638396494
0.614000000000000434,-0.702047085151417449
