# grapheneoxide_CS-11244-AC
# h[nm],U(h)[kJ/mol]
0.200000000000000011,85.529621193592134887
0.201000000000000012,84.414478395972281533
0.202000000000000013,83.035065541834669034
0.203000000000000014,81.543680171651743649
0.204000000000000015,80.024705713468648582
0.205000000000000016,78.520120883683858892
0.206000000000000016,77.046654630225361871
0.207000000000000017,75.607042737047976289
0.208000000000000018,74.197178697754495147
0.209000000000000019,72.810455757084781681
0.210000000000000020,71.440228791401622743
0.211000000000000021,70.081052947083477989
0.212000000000000022,68.729156899110108725
0.213000000000000023,67.382464047045772304
0.214000000000000024,66.040371072373886818
0.215000000000000024,64.703419514384478362
0.216000000000000025,63.372944420859958825
0.217000000000000026,62.050748701223390924
0.218000000000000027,60.738828064589768019
0.219000000000000028,59.439156020911852352
0.220000000000000029,58.153528888344609982
0.221000000000000030,56.883465270515884527
0.222000000000000031,55.630151725301871579
0.223000000000000032,54.394425394323420164
0.224000000000000032,53.176784527669056502
0.225000000000000033,51.977418652755730477
0.226000000000000034,50.796251280123229321
0.227000000000000035,49.632989300596847215
0.228000000000000036,48.487174473123538121
0.229000000000000037,47.358233550593162420
0.230000000000000038,46.245524599601345983
0.231000000000000039,45.148377922224781855
0.232000000000000040,44.066130682744599767
0.233000000000000040,42.998154889274516677
0.234000000000000041,41.943878794523598685
0.235000000000000042,40.902802079198330887
0.236000000000000043,39.874505384196893942
0.237000000000000044,38.858654881490217292
0.238000000000000045,37.855002634698777797
0.239000000000000046,36.863383513323576324
0.240000000000000047,35.883709401830166996
0.241000000000000048,34.915961396813962381
0.242000000000000048,33.960180620898640313
0.243000000000000049,33.016458207757445109
0.244000000000000050,32.084924934112002859
0.245000000000000051,31.165740895860796655
0.246000000000000052,30.259085549648865765
0.247000000000000053,29.365148370311612069
0.248000000000000054,28.484120310088485439
0.249000000000000055,27.616186188091432996
0.250000000000000056,26.761518088560130479
0.251000000000000056,25.920269803925414465
0.252000000000000057,25.092572323368191434
0.253000000000000058,24.278530338960134571
0.254000000000000059,23.478219719041678815
0.255000000000000060,22.691685881610546005
0.256000000000000061,21.918942988500731417
0.257000000000000062,21.159973873374248399
0.258000000000000063,20.414730612389107023
0.259000000000000064,19.683135645247809009
0.260000000000000064,18.965083355616222605
0.261000000000000065,18.260442023130622147
0.262000000000000066,17.569056063928563560
0.263000000000000067,16.890748482456611868
0.264000000000000068,16.225323463878687846
0.265000000000000069,15.572569043443134973
0.266000000000000070,14.932259796421607945
0.267000000000000071,14.304159499504525144
0.268000000000000071,13.688023721667146759
0.269000000000000072,13.083602309378296269
0.270000000000000073,12.490641737513962894
0.271000000000000074,11.908887303391583856
0.272000000000000075,11.338085146907936007
0.273000000000000076,10.777984084818724497
0.274000000000000077,10.228337251726280499
0.275000000000000078,9.688903544345350838
0.276000000000000079,9.159448869106986635
0.277000000000000079,8.639747196153891196
0.278000000000000080,8.129581425306955822
0.279000000000000081,7.628744071666690552
0.280000000000000082,7.137037780192140524
0.281000000000000083,6.654275679905119034
0.282000000000000084,6.180281589336838799
0.283000000000000085,5.714890085501184380
0.284000000000000086,5.257946449078282569
0.285000000000000087,4.809306498659857709
0.286000000000000087,4.368836326871735842
0.287000000000000088,3.936411950982674490
0.288000000000000089,3.511918890258056702
0.289000000000000090,3.095251681848012026
0.290000000000000091,2.686313346437090743
0.291000000000000092,2.285014814245128978
0.292000000000000093,1.891274321278706649
0.293000000000000094,1.505016785004056112
0.294000000000000095,1.126173167861666879
0.295000000000000095,0.754679836281727634
0.296000000000000096,0.390477922101165387
0.297000000000000097,0.033512692534174701
0.298000000000000098,-0.316267065880930343
0.299000000000000099,-0.658909644640514602
0.300000000000000100,-0.994460987895509185
0.301000000000000101,-1.322965240928140274
0.302000000000000102,-1.644465269682488850
0.303000000000000103,-1.959003149109761477
0.304000000000000103,-2.266620618609877624
0.305000000000000104,-2.567359503332089066
0.306000000000000105,-2.861262100536033692
0.307000000000000106,-3.148371530612322555
0.308000000000000107,-3.428732052719647871
0.309000000000000108,-3.702389345313704005
0.310000000000000109,-3.969390752125029564
0.311000000000000110,-4.229785494387220623
0.312000000000000111,-4.483624850329754885
0.313000000000000111,-4.730962303128130486
0.314000000000000112,-4.971853658654351804
0.315000000000000113,-5.206357134492599847
0.316000000000000114,-5.434533421781387652
0.317000000000000115,-5.656445721516208280
0.318000000000000116,-5.872159756998301283
0.319000000000000117,-6.081743764147078402
0.320000000000000118,-6.285268461408234586
0.321000000000000119,-6.482807000988890067
0.322000000000000119,-6.674434903135943564
0.323000000000000120,-6.860229975146910242
0.324000000000000121,-7.040272216765575131
0.325000000000000122,-7.214643713567808092
0.326000000000000123,-7.383428519889179142
0.327000000000000124,-7.546712532785529781
0.328000000000000125,-7.704583358452308239
0.329000000000000126,-7.857130172458650641
0.330000000000000127,-8.004443575079942974
0.331000000000000127,-8.146615442937434892
0.332000000000000128,-8.283738778077678333
0.333000000000000129,-8.415907555547711638
0.334000000000000130,-8.543216570444997160
0.335000000000000131,-8.665761285345505271
0.336000000000000132,-8.783637678937544990
0.337000000000000133,-8.896942096616019313
0.338000000000000134,-9.005771103720089599
0.339000000000000135,-9.110221342027134739
0.340000000000000135,-9.210389390049934732
0.341000000000000136,-9.306371627618739595
0.342000000000000137,-9.398264105168983917
0.343000000000000138,-9.486162418096512283
0.344000000000000139,-9.570161586486992888
0.345000000000000140,-9.650355940473641425
0.346000000000000141,-9.726839011428181081
0.347000000000000142,-9.799703429143887590
0.348000000000000143,-9.869040825126658589
0.349000000000000143,-9.934941742070087400
0.350000000000000144,-9.997495549553827132
0.351000000000000145,-10.056790365970403656
0.352000000000000146,-10.112912986655009817
0.353000000000000147,-10.165948818164219247
0.354000000000000148,-10.215981818624381816
0.355000000000000149,-10.263094444047354159
0.356000000000000150,-10.307367600490742632
0.357000000000000151,-10.348880601921853994
0.358000000000000151,-10.387711133628556581
0.359000000000000152,-10.423935221006495055
0.360000000000000153,-10.457627203540507566
0.361000000000000154,-10.488859713787864081
0.362000000000000155,-10.517703661163110951
0.363000000000000156,-10.544228220317648947
0.364000000000000157,-10.568500823902056140
0.365000000000000158,-10.590587159495948200
0.366000000000000159,-10.610551170487314110
0.367000000000000159,-10.628455060682746591
0.368000000000000160,-10.644359302429508674
0.369000000000000161,-10.658322648031582247
0.370000000000000162,-10.670402144243713138
0.371000000000000163,-10.680653149630014553
0.372000000000000164,-10.689129354577222131
0.373000000000000165,-10.695882803756665780
0.374000000000000166,-10.700963920833757470
0.375000000000000167,-10.704421535228565432
0.376000000000000167,-10.706302910737131029
0.377000000000000168,-10.706653775828536723
0.378000000000000169,-10.705518355439279432
0.379000000000000170,-10.702939404092832731
0.380000000000000171,-10.698958240179013757
0.381000000000000172,-10.693614781234474620
0.382000000000000173,-10.686947580072628128
0.383000000000000174,-10.678993861618415906
0.384000000000000175,-10.669789560310146470
0.385000000000000175,-10.659369357937704237
0.386000000000000176,-10.647766721793793465
0.387000000000000177,-10.635013943021084160
0.388000000000000178,-10.621142175045878986
0.389000000000000179,-10.606181471994906573
0.390000000000000180,-10.590160826999007071
0.391000000000000181,-10.573108210293757026
0.392000000000000182,-10.555050607033459542
0.393000000000000183,-10.536014054741073664
0.394000000000000183,-10.516023680322831524
0.395000000000000184,-10.495103736581901543
0.396000000000000185,-10.473277638171179404
0.397000000000000186,-10.450567996930757886
0.398000000000000187,-10.426996656560788779
0.399000000000000188,-10.402584726585484276
0.400000000000000189,-10.377352615568771199
0.401000000000000190,-10.351320063546822325
0.402000000000000191,-10.324506173646970097
0.403000000000000191,-10.296929442866627369
0.404000000000000192,-10.268607791990053357
0.405000000000000193,-10.239558594624181609
0.406000000000000194,-10.209798705338677394
0.407000000000000195,-10.179344486898468602
0.408000000000000196,-10.148211836580198764
0.409000000000000197,-10.116416211567120342
0.410000000000000198,-10.083972653419701615
0.411000000000000199,-10.050895811621558096
0.412000000000000199,-10.017199966203207850
0.413000000000000200,-9.982899049447883755
0.414000000000000201,-9.948006666686179500
0.415000000000000202,-9.912536116187753876
0.416000000000000203,-9.876500408160529432
0.417000000000000204,-9.839912282869116567
0.418000000000000205,-9.802784227885750212
0.419000000000000206,-9.765128494488509503
0.420000000000000207,-9.726957113222427509
0.421000000000000207,-9.688281908640735907
0.422000000000000208,-9.649114513243748803
0.423000000000000209,-9.609466380634406946
0.424000000000000210,-9.569348797909837501
0.425000000000000211,-9.528772897308893874
0.426000000000000212,-9.487749667136570864
0.427000000000000213,-9.446289961986144235
0.428000000000000214,-9.404404512280589046
0.429000000000000214,-9.362103933155033531
0.430000000000000215,-9.319398732702062205
0.431000000000000216,-9.276299319602165028
0.432000000000000217,-9.232816010161215559
0.433000000000000218,-9.188959034777353097
0.434000000000000219,-9.144738543859279645
0.435000000000000220,-9.100164613218053589
0.436000000000000221,-9.055247248954175987
0.437000000000000222,-9.009996391861715637
0.438000000000000222,-8.964421921370881563
0.439000000000000223,-8.918533659050272178
0.440000000000000224,-8.872341371689616452
0.441000000000000225,-8.825854773983532908
0.442000000000000226,-8.779083530836633287
0.443000000000000227,-8.732037259309503696
0.444000000000000228,-8.684725530225209766
0.445000000000000229,-8.637157869455105441
0.446000000000000230,-8.589343758902456827
0.447000000000000230,-8.541292637202047899
0.448000000000000231,-8.493013900153203011
0.449000000000000232,-8.444516900903328960
0.450000000000000233,-8.395810949898708131
0.451000000000000234,-8.346905314618403793
0.452000000000000235,-8.297809219107101342
0.453000000000000236,-8.248531843321767809
0.454000000000000237,-8.199082322306880499
0.455000000000000238,-8.149469745212119420
0.456000000000000238,-8.099703154166210339
0.457000000000000239,-8.049791543019889417
0.458000000000000240,-7.999743855970573136
0.459000000000000241,-7.949568986080693733
0.460000000000000242,-7.899275773701401882
0.461000000000000243,-7.848873004812489285
0.462000000000000244,-7.798369409289358956
0.463000000000000245,-7.747773659106798050
0.464000000000000246,-7.697094366489565687
0.465000000000000246,-7.646340082018687312
0.466000000000000247,-7.595519292702294756
0.467000000000000248,-7.544640420019232963
0.468000000000000249,-7.493711817943389697
0.469000000000000250,-7.442741770956011749
0.470000000000000251,-7.391738492053200105
0.471000000000000252,-7.340710120754977197
0.472000000000000253,-7.289664721122465885
0.473000000000000254,-7.238610279788647794
0.474000000000000254,-7.187554704008538131
0.475000000000000255,-7.136505819733604206
0.476000000000000256,-7.085471369715408585
0.477000000000000257,-7.034459011642832493
0.478000000000000258,-6.983476316316968635
0.479000000000000259,-6.932530765867558564
0.480000000000000260,-6.881629752014466028
0.481000000000000261,-6.830780574377330439
0.482000000000000262,-6.779990438836408728
0.483000000000000262,-6.729266455947312764
0.484000000000000263,-6.678615639411882299
0.485000000000000264,-6.628044904607572896
0.486000000000000265,-6.577561067177141396
0.487000000000000266,-6.527170841680328017
0.488000000000000267,-6.476880840309124032
0.489000000000000268,-6.426697571667814302
0.490000000000000269,-6.376627439618847148
0.491000000000000270,-6.326676742195572523
0.492000000000000270,-6.276851670582355602
0.493000000000000271,-6.227158308162780820
0.494000000000000272,-6.177602629636263387
0.495000000000000273,-6.128190500203241520
0.496000000000000274,-6.078927674819175841
0.497000000000000275,-6.029819797517157021
0.498000000000000276,-5.980872400799037258
0.499000000000000277,-5.932090905094783650
0.500000000000000222,-5.883480618289560482
0.501000000000000334,-5.835046735318131894
0.502000000000000224,-5.786794337825925894
0.503000000000000336,-5.738728393895951463
0.504000000000000226,-5.690853757841013660
0.505000000000000338,-5.643175170060012569
0.506000000000000227,-5.595697256957761212
0.507000000000000339,-5.548424530926920006
0.508000000000000229,-5.501361390391306116
0.509000000000000341,-5.454512119909128209
0.510000000000000231,-5.407880890335293067
0.511000000000000343,-5.361471759041180896
0.512000000000000233,-5.315288670190932763
0.513000000000000345,-5.269335455072637231
0.514000000000000234,-5.223615832483419652
0.515000000000000346,-5.178133409166575163
0.516000000000000236,-5.132891680299850101
0.517000000000000348,-5.087894030032972914
0.518000000000000238,-5.043143732073388286
0.519000000000000350,-4.998643950318351514
0.520000000000000240,-4.954397739532224065
0.521000000000000352,-4.910408046067251675
0.522000000000000242,-4.866677708626489185
0.523000000000000353,-4.823209459067223648
0.524000000000000243,-4.780005923243537680
0.525000000000000355,-4.737069621886384141
0.526000000000000245,-4.694402971519827439
0.527000000000000357,-4.652008285411740829
0.528000000000000247,-4.609887774557755336
0.529000000000000359,-4.568043548696695488
0.530000000000000249,-4.526477617356299277
0.531000000000000361,-4.485191890927554326
0.532000000000000250,-4.444188181766422829
0.533000000000000362,-4.403468205321312112
0.534000000000000252,-4.363033581285116647
0.535000000000000364,-4.322885834770234581
0.536000000000000254,-4.283026397505425464
0.537000000000000366,-4.243456609052869588
0.538000000000000256,-4.204177718044470602
0.539000000000000368,-4.165190883435714753
0.540000000000000258,-4.126497175776206561
0.541000000000000369,-4.088097578495212936
0.542000000000000259,-4.049992989201411930
0.543000000000000371,-4.012184220995266948
0.544000000000000261,-3.974672003793124908
0.545000000000000373,-3.937456985661721198
0.546000000000000263,-3.900539734162097094
0.547000000000000375,-3.863920737701614705
0.548000000000000265,-3.827600406893380214
0.549000000000000377,-3.791579075921537090
0.550000000000000266,-3.755857003911889702
0.551000000000000378,-3.720434376306509527
0.552000000000000268,-3.685311306241585871
0.553000000000000380,-3.650487835927446412
0.554000000000000270,-3.615963938029982394
0.555000000000000382,-3.581739517052394461
0.556000000000000272,-3.547814410716685352
0.557000000000000384,-3.514188391343743945
0.558000000000000274,-3.480861167231575681
0.559000000000000385,-3.447832384030562025
0.560000000000000275,-3.415101626115311539
0.561000000000000387,-3.382668417952149120
0.562000000000000277,-3.350532225461692271
0.563000000000000389,-3.318692457375772342
0.564000000000000279,-3.287148466588129203
0.565000000000000391,-3.255899551498167455
0.566000000000000281,-3.224944957347287922
0.567000000000000393,-3.194283877547119843
0.568000000000000282,-3.163915454999253196
0.569000000000000394,-3.133838783405741513
0.570000000000000284,-3.104052908570134939
0.571000000000000396,-3.074556829688316117
0.572000000000000286,-3.045349500628935058
0.573000000000000398,-3.016429831202749767
0.574000000000000288,-2.987796688420722102
0.575000000000000400,-2.959448897740289741
0.576000000000000290,-2.931385244299569148
0.577000000000000401,-2.903604474139052538
0.578000000000000291,-2.876105295410573248
0.579000000000000403,-2.848886379573110528
0.580000000000000293,-2.821946362575301848
0.581000000000000405,-2.795283846024197771
0.582000000000000295,-2.768897398340237626
0.583000000000000407,-2.742785555897985006
0.584000000000000297,-2.716946824152585371
0.585000000000000409,-2.691379678751629090
0.586000000000000298,-2.666082566632334672
0.587000000000000410,-2.641053907103763088
0.588000000000000300,-2.616292092914060508
0.589000000000000412,-2.591795491302425702
0.590000000000000302,-2.567562445035833640
0.591000000000000414,-2.543591273430305222
0.592000000000000304,-2.519880273356674305
0.593000000000000416,-2.496427720230721459
0.594000000000000306,-2.473231868987699755
0.595000000000000417,-2.450290955041070085
0.596000000000000307,-2.427603195225507715
0.597000000000000419,-2.405166788724074856
0.598000000000000309,-2.382979917979601403
0.599000000000000421,-2.361040749590165966
0.600000000000000311,-2.339347435188807278
0.601000000000000423,-2.317898112307320790
0.602000000000000313,-2.296690905224334056
0.603000000000000425,-2.275723925797464631
0.604000000000000314,-2.254995274279885109
0.605000000000000426,-2.234503040121007977
0.606000000000000316,-2.214245302751657984
0.607000000000000428,-2.194220132353536190
0.608000000000000318,-2.174425590613246584
0.609000000000000430,-2.154859731460779138
0.610000000000000320,-2.135520601792710416
0.611000000000000432,-2.116406242180029373
0.612000000000000322,-2.097514687560853908
0.613000000000000433,-2.078843967917988866
0.614000000000000323,-2.060392108941555556
0.615000000000000435,-2.042157132676711839
0.616000000000000325,-2.024137058156635582
0.617000000000000437,-2.006329902020853595
0.618000000000000327,-1.988733679119104369
0.619000000000000439,-1.971346403100753930
0.620000000000000329,-1.954166086990036577
0.621000000000000441,-1.937190743747146726
0.622000000000000330,-1.920418386815384792
0.623000000000000442,-1.903847030654468142
0.624000000000000332,-1.887474691260188520
0.625000000000000444,-1.871299386670533860
0.626000000000000334,-1.855319137458462553
0.627000000000000446,-1.839531967211438301
0.628000000000000336,-1.823935902997942282
0.629000000000000448,-1.808528975821071416
0.630000000000000338,-1.793309221059438574
0.631000000000000449,-1.778274678895466421
0.632000000000000339,-1.763423394731326921
0.633000000000000451,-1.748753419592611325
0.634000000000000341,-1.734262810519974662
0.635000000000000453,-1.719949630948863328
0.636000000000000343,-1.705811951077527810
0.637000000000000455,-1.691847848223487771
0.638000000000000345,-1.678055407168635771
0.639000000000000457,-1.664432720493088436
0.640000000000000346,-1.650977888898080392
0.641000000000000458,-1.637689021517916732
0.642000000000000348,-1.624564236221321734
0.643000000000000460,-1.611601659902208272
0.644000000000000350,-1.598799428760167896
0.645000000000000462,-1.586155688570749733
0.646000000000000352,-1.573668594945794919
0.647000000000000464,-1.561336313583895574
0.648000000000000353,-1.549157020511289229
0.649000000000000465,-1.537128902313189105
0.650000000000000355,-1.525250156355900888
0.651000000000000467,-1.513518990999723979
0.652000000000000357,-1.501933625802974293
0.653000000000000469,-1.490492291717134599
0.654000000000000359,-1.479193231273455922
0.655000000000000471,-1.468034698761025325
0.656000000000000361,-1.457014960396620040
0.657000000000000473,-1.446132294486350611
0.658000000000000362,-1.435384991579419900
0.659000000000000474,-1.424771354614014607
0.660000000000000364,-1.414289699055610861
0.661000000000000476,-1.403938353027746944
0.662000000000000366,-1.393715657435510735
