# grapheneoxide_CS-12144-AC
# h[nm],U(h)[kJ/mol]
0.200000000000000011,112.813725162871904217
0.201000000000000012,111.273319757863262680
0.202000000000000013,109.536418802408704209
0.203000000000000014,107.731684022479001328
0.204000000000000015,105.927272682265424919
0.205000000000000016,104.154053180081547225
0.206000000000000016,102.421184337074919313
0.207000000000000017,100.726292795970536531
0.208000000000000018,99.061885063047427025
0.209000000000000019,97.419182243955972922
0.210000000000000020,95.790231010306371218
0.211000000000000021,94.168896433285596004
0.212000000000000022,92.551159966584719996
0.213000000000000023,90.935012876680389127
0.214000000000000024,89.320139420609137915
0.215000000000000024,87.707515613479472449
0.216000000000000025,86.099001332373887863
0.217000000000000026,84.496970340106344111
0.218000000000000027,82.904000494204225902
0.219000000000000028,81.322631874279011299
0.220000000000000029,79.755191539824565439
0.221000000000000030,78.203678441701626411
0.222000000000000031,76.669699426299530387
0.223000000000000032,75.154446403092947548
0.224000000000000032,73.658704959340496998
0.225000000000000033,72.182885553897335740
0.226000000000000034,70.727069598390897909
0.227000000000000035,69.291064032649160254
0.228000000000000036,67.874459289763564129
0.229000000000000037,66.476686744082840619
0.230000000000000038,65.097072798702015461
0.231000000000000039,63.734887678388702170
0.232000000000000040,62.389387746524370471
0.233000000000000040,61.059850768009347632
0.234000000000000041,59.745604007687745707
0.235000000000000042,58.446045402231128207
0.236000000000000043,57.160658290121872938
0.237000000000000044,55.889020346630886138
0.238000000000000045,54.630807464587043398
0.239000000000000046,53.385793361798526746
0.240000000000000047,52.153845694910685893
0.241000000000000048,50.934919428141732567
0.242000000000000048,49.729048152802910465
0.243000000000000049,48.536333987220992014
0.244000000000000050,47.356936612597941405
0.245000000000000051,46.191061923111043086
0.246000000000000052,45.038950691728913966
0.247000000000000053,43.900867579385149497
0.248000000000000054,42.777090746139244004
0.249000000000000055,41.667902259950736266
0.250000000000000056,40.573579442382168736
0.251000000000000056,39.494387241216948325
0.252000000000000057,38.430571677621905735
0.253000000000000058,37.382354379867358318
0.254000000000000059,36.349928186349139025
0.255000000000000060,35.333453777248244876
0.256000000000000061,34.333057276053636997
0.257000000000000062,33.348828748781244258
0.258000000000000063,32.380821519455523116
0.259000000000000064,31.429052214704910284
0.260000000000000064,30.493501447610476873
0.261000000000000065,29.574115050732153520
0.262000000000000066,28.670805770043834571
0.263000000000000067,27.783455334925371005
0.264000000000000068,26.911916824003412785
0.265000000000000069,26.056017252180140531
0.266000000000000070,25.215560310354270257
0.267000000000000071,24.390329195878944546
0.268000000000000071,23.580089478515692036
0.269000000000000072,22.784591953362149042
0.270000000000000073,22.003575438820416110
0.271000000000000074,21.236769484024897281
0.272000000000000075,20.483896956179897586
0.273000000000000076,19.744676483910893694
0.274000000000000077,19.018824737964422411
0.275000000000000078,18.306058535376209306
0.276000000000000079,17.606096757553338250
0.277000000000000079,16.918662076579455089
0.278000000000000080,16.243482487464753206
0.279000000000000081,15.580292647033056497
0.280000000000000082,14.928835022691306023
0.281000000000000083,14.288860856482676454
0.282000000000000084,13.660130951611966665
0.283000000000000085,13.042416290077801122
0.284000000000000086,12.435498491179277636
0.285000000000000087,11.839170121517485157
0.286000000000000087,11.253234867709384304
0.287000000000000088,10.677507583405480673
0.288000000000000089,10.111814222378608719
0.289000000000000090,9.555991669454817483
0.290000000000000091,9.009887480915711677
0.291000000000000092,8.473359545732984444
0.292000000000000093,7.946275678626220085
0.293000000000000094,7.428513155479754104
0.294000000000000095,6.919958201133316500
0.295000000000000095,6.420505438987776259
0.296000000000000096,5.930057311258607911
0.297000000000000097,5.448523478074870141
0.298000000000000098,4.975820202974018613
0.299000000000000099,4.511869731690310914
0.300000000000000100,4.056599670486858322
0.301000000000000101,3.609942369643023508
0.302000000000000102,3.171834317089103017
0.303000000000000103,2.742215546578882890
0.304000000000000103,2.321029064217551507
0.305000000000000104,1.908220296614754563
0.306000000000000105,1.503736563416492533
0.307000000000000106,1.107526576485137637
0.308000000000000107,0.719539967544661985
0.309000000000000108,0.339726845690304313
0.310000000000000109,-0.031962614224217048
0.311000000000000110,-0.395578551659391653
0.312000000000000111,-0.751171768581371468
0.313000000000000111,-1.098794045717622403
0.314000000000000112,-1.438498427080657782
0.315000000000000113,-1.770339473191908208
0.316000000000000114,-2.094373483638400923
0.317000000000000115,-2.410658689769035412
0.318000000000000116,-2.719255418486847375
0.319000000000000117,-3.020226228219724973
0.320000000000000118,-3.313636018256500559
0.321000000000000119,-3.599552112720354025
0.322000000000000119,-3.878044320517131105
0.323000000000000120,-4.149184972645398872
0.324000000000000121,-4.413048938289536594
0.325000000000000122,-4.669713621136433623
0.326000000000000123,-4.919258937364176631
0.327000000000000124,-5.161767276747274202
0.328000000000000125,-5.397323448309510496
0.329000000000000126,-5.626014611932863119
0.330000000000000127,-5.847930197301366206
0.331000000000000127,-6.063161811522052247
0.332000000000000128,-6.271803136723245409
0.333000000000000129,-6.473949818883935059
0.334000000000000130,-6.669699349097110819
0.335000000000000131,-6.859150938417198695
0.336000000000000132,-7.042405387384920168
0.337000000000000133,-7.219564951266169039
0.338000000000000134,-7.390733201982721212
0.339000000000000135,-7.556014887652648504
0.340000000000000135,-7.715515790600069757
0.341000000000000136,-7.869342584633587379
0.342000000000000137,-8.017602692335081827
0.343000000000000138,-8.160404143042324421
0.344000000000000139,-8.297855432153150801
0.345000000000000140,-8.430065382323482126
0.346000000000000141,-8.557143007078607866
0.347000000000000142,-8.679197377305431615
0.348000000000000143,-8.796337491044226908
0.349000000000000143,-8.908672146950669557
0.350000000000000144,-9.016309821754010301
0.351000000000000145,-9.119358551993681061
0.352000000000000146,-9.217925820276354543
0.353000000000000147,-9.312118446256329563
0.354000000000000148,-9.402042482506173471
0.355000000000000149,-9.487803115410240906
0.356000000000000150,-9.569504571181854047
0.357000000000000151,-9.647250027075267909
0.358000000000000151,-9.721141527836007157
0.359000000000000152,-9.791279907407510308
0.360000000000000153,-9.857764715889038243
0.361000000000000154,-9.920694151717629694
0.362000000000000155,-9.980164999028016126
0.363000000000000156,-10.036272570126158143
0.364000000000000157,-10.089110652996119200
0.365000000000000158,-10.138771463745998247
0.366000000000000159,-10.185345603885160415
0.367000000000000159,-10.228922022314462126
0.368000000000000160,-10.269587981900775375
0.369000000000000161,-10.307429030498813205
0.370000000000000162,-10.342528976276003760
0.371000000000000163,-10.374969867190046102
0.372000000000000164,-10.404831974463661481
0.373000000000000165,-10.432193779897442454
0.374000000000000166,-10.457131966858410621
0.375000000000000167,-10.479721414779827882
0.376000000000000167,-10.500035197006727827
0.377000000000000168,-10.518144581820934036
0.378000000000000169,-10.534119036479403064
0.379000000000000170,-10.548026234100820631
0.380000000000000171,-10.559932063236475486
0.381000000000000172,-10.569900639963353939
0.382000000000000173,-10.577994322339842270
0.383000000000000174,-10.584273727067147419
0.384000000000000175,-10.588797748202596338
0.385000000000000175,-10.591623577774411658
0.386000000000000176,-10.592806728151604290
0.387000000000000177,-10.592401056025956052
0.388000000000000178,-10.590458787868087143
0.389000000000000179,-10.587030546723124047
0.390000000000000180,-10.582165380216663308
0.391000000000000181,-10.575910789645909915
0.392000000000000182,-10.568312760035764697
0.393000000000000183,-10.559415791044306943
0.394000000000000183,-10.549262928607003431
0.395000000000000184,-10.537895797213725047
0.396000000000000185,-10.525354632717466075
0.397000000000000186,-10.511678315578459220
0.398000000000000187,-10.496904404452212844
0.399000000000000188,-10.481069170034579940
0.400000000000000189,-10.464207629081652584
0.401000000000000190,-10.446353578526943906
0.402000000000000191,-10.427539629622703643
0.403000000000000191,-10.407797242036542329
0.404000000000000192,-10.387156757839083099
0.405000000000000193,-10.365647435322181025
0.406000000000000194,-10.343297482591733427
0.407000000000000195,-10.320134090882644884
0.408000000000000196,-10.296183467547677992
0.409000000000000197,-10.271470868675375954
0.410000000000000198,-10.246020631296087089
0.411000000000000199,-10.219856205138153626
0.412000000000000199,-10.193000183900188915
0.413000000000000200,-10.165474336008006873
0.414000000000000201,-10.137299634828298878
0.415000000000000202,-10.108496288313633116
0.416000000000000203,-10.079083768056545267
0.417000000000000204,-10.049080837732880411
0.418000000000000205,-10.018505580917167919
0.419000000000000206,-9.987375428255308663
0.420000000000000207,-9.955707183981926889
0.421000000000000207,-9.923517051772231312
0.422000000000000208,-9.890820659919848268
0.423000000000000209,-9.857633085834510922
0.424000000000000210,-9.823968879854932723
0.425000000000000211,-9.789842088373969631
0.426000000000000212,-9.755266276275108339
0.427000000000000213,-9.720254548680202333
0.428000000000000214,-9.684819572010509248
0.429000000000000214,-9.648973594363718931
0.430000000000000215,-9.612728465211372253
0.431000000000000216,-9.576095654421937553
0.432000000000000217,-9.539086270615907637
0.433000000000000218,-9.501711078860246573
0.434000000000000219,-9.463980517710377072
0.435000000000000220,-9.425904715608819373
0.436000000000000221,-9.387493506650034902
0.437000000000000222,-9.348756445722001374
0.438000000000000222,-9.309702823035465258
0.439000000000000223,-9.270341678052396617
0.440000000000000224,-9.230681812825594079
0.441000000000000225,-9.190731804761854917
0.442000000000000226,-9.150500018821574599
0.443000000000000227,-9.109994619167581575
0.444000000000000228,-9.069223580276865704
0.445000000000000229,-9.028194697528507007
0.446000000000000230,-8.986915597281532442
0.447000000000000230,-8.945393746456726802
0.448000000000000231,-8.903636461636153854
0.449000000000000232,-8.861650917694424479
0.450000000000000233,-8.819444155975864064
0.451000000000000234,-8.777023092031397411
0.452000000000000235,-8.734394522929379789
0.453000000000000236,-8.691565134154023653
0.454000000000000237,-8.648541506105583920
0.455000000000000238,-8.605330120215739953
0.456000000000000238,-8.561937364692006724
0.457000000000000239,-8.518369539904506738
0.458000000000000240,-8.474632863428491092
0.459000000000000241,-8.430733474755600199
0.460000000000000242,-8.386677439686968327
0.461000000000000243,-8.342470754420684642
0.462000000000000244,-8.298119349346332996
0.463000000000000245,-8.253629092558512070
0.464000000000000246,-8.209005793101848525
0.465000000000000246,-8.164255203958832752
0.466000000000000247,-8.119383024792215409
0.467000000000000248,-8.074394904453182420
0.468000000000000249,-8.029296443266295213
0.469000000000000250,-7.984093195101893414
0.470000000000000251,-7.938790669246436948
0.471000000000000252,-7.893394332080855058
0.472000000000000253,-7.847909608577038121
0.473000000000000254,-7.802341883621703111
0.474000000000000254,-7.756696503177350266
0.475000000000000255,-7.710978775289045295
0.476000000000000256,-7.665193970946018176
0.477000000000000257,-7.619347324806428290
0.478000000000000258,-7.573444035793587936
0.479000000000000259,-7.527489267571544573
0.480000000000000260,-7.481488148907729396
0.481000000000000261,-7.435445773929997060
0.482000000000000262,-7.389367202285273883
0.483000000000000262,-7.343257459206685489
0.484000000000000263,-7.297121535495650235
0.485000000000000264,-7.250964387425485214
0.486000000000000265,-7.204790936572520010
0.487000000000000266,-7.158606069580555342
0.488000000000000267,-7.112414637864387323
0.489000000000000268,-7.066221457257753968
0.490000000000000269,-7.020031307610776317
0.491000000000000270,-6.973848932341982554
0.492000000000000270,-6.927679037949457275
0.493000000000000271,-6.881526293485751289
0.494000000000000272,-6.835395330000777037
0.495000000000000273,-6.789290739956717502
0.496000000000000274,-6.743217076618975625
0.497000000000000275,-6.697178853426687617
0.498000000000000276,-6.651180543346418617
0.499000000000000277,-6.605226578212335831
0.500000000000000222,-6.559321348055910050
0.501000000000000334,-6.513469200428261274
0.502000000000000224,-6.467674439717853829
0.503000000000000336,-6.421941326466128253
0.504000000000000226,-6.376274076683778880
0.505000000000000338,-6.330676861169644454
0.506000000000000227,-6.285153804834854974
0.507000000000000339,-6.239708986033805083
0.508000000000000229,-6.194346435904289905
0.509000000000000341,-6.149070137718194218
0.510000000000000231,-6.103884026244822181
0.511000000000000343,-6.058791987127924550
0.512000000000000233,-6.013797856278265463
0.513000000000000345,-5.968905419282672042
0.514000000000000234,-5.924118410831175296
0.515000000000000346,-5.879440514162808107
0.516000000000000236,-5.834875360531614596
0.517000000000000348,-5.790426528693303432
0.518000000000000238,-5.746097544413719227
0.519000000000000350,-5.701891879999554824
0.520000000000000240,-5.657812953852181082
0.521000000000000352,-5.613864130045021383
0.522000000000000242,-5.570048717925030424
0.523000000000000353,-5.526369971738619213
0.524000000000000243,-5.482831090282456188
0.525000000000000355,-5.439435216579374455
0.526000000000000245,-5.396185437579677391
0.527000000000000357,-5.353084783887846143
0.528000000000000247,-5.310136229515010520
0.529000000000000359,-5.267342691656978992
0.530000000000000249,-5.224707030498054294
0.531000000000000361,-5.182232049040424116
0.532000000000000250,-5.139920492959207721
0.533000000000000362,-5.097775050482871606
0.534000000000000252,-5.055798352299001763
0.535000000000000364,-5.013992971485113692
0.536000000000000254,-4.972361423464432661
0.537000000000000366,-4.930906165986092660
0.538000000000000256,-4.889629599129891702
0.539000000000000368,-4.848534065334795251
0.540000000000000258,-4.807621849451334306
0.541000000000000369,-4.766895178817046386
0.542000000000000259,-4.726356223355058006
0.543000000000000371,-4.686007095694963986
0.544000000000000261,-4.645849851315892565
0.545000000000000373,-4.605886488711132820
0.546000000000000263,-4.566118949574024199
0.547000000000000375,-4.526549119004355859
0.548000000000000265,-4.487178825735270493
0.549000000000000377,-4.448009842379595291
0.550000000000000266,-4.409043885695645315
0.551000000000000378,-4.370282616871579151
0.552000000000000268,-4.331727641828056363
0.553000000000000380,-4.293380511538495092
0.554000000000000270,-4.255242722366601171
0.555000000000000382,-4.217315716420345417
0.556000000000000272,-4.179600881922254096
0.557000000000000384,-4.142099553595019579
0.558000000000000274,-4.104813013062368121
0.559000000000000385,-4.067742489264194461
0.560000000000000275,-4.030889158885843315
0.561000000000000387,-3.994254146800673144
0.562000000000000277,-3.957838526525570444
0.563000000000000389,-3.921643320688812828
0.564000000000000279,-3.885669501509774193
0.565000000000000391,-3.849917991289914632
0.566000000000000281,-3.814389662914621226
0.567000000000000393,-3.779085340365242907
0.568000000000000282,-3.744005799241035159
0.569000000000000394,-3.709151767290219226
0.570000000000000284,-3.674523924949973264
0.571000000000000396,-3.640122905894587202
0.572000000000000286,-3.605949297591570346
0.573000000000000398,-3.572003641864915036
0.574000000000000288,-3.538286435465392010
0.575000000000000400,-3.504798130647150511
0.576000000000000290,-3.471539135750335792
0.577000000000000401,-3.438509815789157820
0.578000000000000291,-3.405710493045103870
0.579000000000000403,-3.373141447664725234
0.580000000000000293,-3.340802918261746690
0.581000000000000405,-3.308695102522870801
0.582000000000000295,-3.276818157817149135
0.583000000000000407,-3.245172201808238732
0.584000000000000297,-3.213757313069405264
0.585000000000000409,-3.182573531700712000
0.586000000000000298,-3.151620859948207176
0.587000000000000410,-3.120899262824541331
0.588000000000000300,-3.090408668730906694
0.589000000000000412,-3.060148970079713315
0.590000000000000302,-3.030120023917893146
0.591000000000000414,-3.000321652550371088
0.592000000000000304,-2.970753644163458329
0.593000000000000416,-2.941415753447790049
0.594000000000000306,-2.912307702220664041
0.595000000000000417,-2.883429180047299756
0.596000000000000307,-2.854779844860915183
0.597000000000000419,-2.826359323581236538
0.598000000000000309,-2.798167212731276443
0.599000000000000421,-2.770203079052024453
0.600000000000000311,-2.742466460114933557
0.601000000000000423,-2.714956864931837188
0.602000000000000313,-2.687673774562234108
0.603000000000000425,-2.660616642717496205
0.604000000000000314,-2.633784896362107109
0.605000000000000426,-2.607177936311360522
0.606000000000000316,-2.580795137825689256
0.607000000000000428,-2.554635851201129348
0.608000000000000318,-2.528699402356018311
0.609000000000000430,-2.502985093413480744
0.610000000000000320,-2.477492203279833660
0.611000000000000432,-2.452219988218463431
0.612000000000000322,-2.427167682419288930
0.613000000000000433,-2.402334498563464926
0.614000000000000323,-2.377719628383344830
0.615000000000000435,-2.353322243217463416
0.616000000000000325,-2.329141494560498238
0.617000000000000437,-2.305176514608036520
0.618000000000000327,-2.281426416796116907
0.619000000000000439,-2.257890296335319569
0.620000000000000329,-2.234567230739459287
0.621000000000000441,-2.211456280348682579
0.622000000000000330,-2.188556488846929771
0.623000000000000442,-2.165866883773662543
0.624000000000000332,-2.143386477029824988
0.625000000000000444,-2.121114265377908037
0.626000000000000334,-2.099049230936134602
0.627000000000000446,-2.077190341666606876
0.628000000000000336,-2.055536551857477967
0.629000000000000448,-2.034086802598994215
0.630000000000000338,-2.012840022253463257
0.631000000000000449,-1.991795126919014836
0.632000000000000339,-1.970951020887194094
0.633000000000000451,-1.950306597094317196
0.634000000000000341,-1.929860737566593043
0.635000000000000453,-1.909612313858950028
0.636000000000000343,-1.889560187487598686
0.637000000000000455,-1.869703210356253864
0.638000000000000345,-1.850040225176116993
0.639000000000000457,-1.830570065879423058
0.640000000000000346,-1.811291558026801862
0.641000000000000458,-1.792203519208181772
0.642000000000000348,-1.773304759437499545
0.643000000000000460,-1.754594081540979289
0.644000000000000350,-1.736070281539214388
0.645000000000000462,-1.717732149022862531
0.646000000000000352,-1.699578467522159686
0.647000000000000464,-1.681608014870053847
0.648000000000000353,-1.663819563559260306
0.649000000000000465,-1.646211881092920049
0.650000000000000355,-1.628783730329232071
0.651000000000000467,-1.611533869819786746
0.652000000000000357,-1.594461054141875334
0.653000000000000469,-1.577564034224595790
0.654000000000000359,-1.560841557668988022
0.655000000000000471,-1.544292369062032266
0.656000000000000361,-1.527915210284753522
0.657000000000000473,-1.511708820814265053
0.658000000000000362,-1.495671938019985436
0.659000000000000474,-1.479803297453905042
0.660000000000000364,-1.464101633135092451
0.661000000000000476,-1.448565677828333786
