# grapheneoxide_CS-65596-AC
# h[nm],U(h)[kJ/mol]
0.200000000000000011,82.890255797818980454
0.201000000000000012,81.882393944723361301
0.202000000000000013,80.559744274945430220
0.203000000000000014,79.104564163094465812
0.204000000000000015,77.617001451202241924
0.205000000000000016,76.146112490901401770
0.206000000000000016,74.710694000788436142
0.207000000000000017,73.312925798657730070
0.208000000000000018,71.947012135912217445
0.209000000000000019,70.604404479743124057
0.210000000000000020,69.276739107379910365
0.211000000000000021,67.957291056434002030
0.212000000000000022,66.641502856491925399
0.213000000000000023,65.326969892612623880
0.214000000000000024,64.013137324167104225
0.215000000000000024,62.700873363532807048
0.216000000000000025,61.392020692646966040
0.217000000000000026,60.088984542518730336
0.218000000000000027,58.794386996850519722
0.219000000000000028,57.510798320078038159
0.220000000000000029,56.240544529261669027
0.221000000000000030,54.985583809171792780
0.222000000000000031,53.747441096747976985
0.223000000000000032,52.527189074259830193
0.224000000000000032,51.325464086614580594
0.225000000000000033,50.142506563136663544
0.226000000000000034,48.978216986049488924
0.227000000000000035,47.832220047372061345
0.228000000000000036,46.703931208267306374
0.229000000000000037,45.592621322110488791
0.230000000000000038,44.497476252929473617
0.231000000000000039,43.417649493766916180
0.232000000000000040,42.352306664511736756
0.233000000000000040,41.300661457872841709
0.234000000000000041,40.262003124440845170
0.235000000000000042,39.235715965477290013
0.236000000000000043,38.221291558204903538
0.237000000000000044,37.218334595142501087
0.238000000000000045,36.226563296834243033
0.239000000000000046,35.245805374294306489
0.240000000000000047,34.275990489260507843
0.241000000000000048,33.317140100110599121
0.242000000000000048,32.369355499876874660
0.243000000000000049,31.432804758916994103
0.244000000000000050,30.507709185303912847
0.245000000000000051,29.594329816085917173
0.246000000000000052,28.692954356089693135
0.247000000000000053,27.803884890579269040
0.248000000000000054,26.927426615619339145
0.249000000000000055,26.063877756445474887
0.250000000000000056,25.213520779970686192
0.251000000000000056,24.376614952767358346
0.252000000000000057,23.553390250146591711
0.253000000000000058,22.744042584776821059
0.254000000000000059,21.948730293949488157
0.255000000000000060,21.167571802338905229
0.256000000000000061,20.400644361097217683
0.257000000000000062,19.647983753553781128
0.258000000000000063,18.909584851853161069
0.259000000000000064,18.185402906811297896
0.260000000000000064,17.475355454394019716
0.261000000000000065,16.779324725889203762
0.262000000000000066,16.097160454477677405
0.263000000000000067,15.428682978010039406
0.264000000000000068,14.773686545923757407
0.265000000000000069,14.131942747014420547
0.266000000000000070,13.503203983892996476
0.267000000000000071,12.887206929152222656
0.268000000000000071,12.283675907322679777
0.269000000000000072,11.692326155451658209
0.270000000000000073,11.112866923458494028
0.271000000000000074,10.545004383214159560
0.272000000000000075,9.988444322493133853
0.273000000000000076,9.442894606513091205
0.274000000000000077,8.908067395690446588
0.275000000000000078,8.383681113494887427
0.276000000000000079,7.869462162894033774
0.277000000000000079,7.365146393859562934
0.278000000000000080,6.870480327791314679
0.279000000000000081,6.385222147536863346
0.280000000000000082,5.909142463984621507
0.281000000000000083,5.442024872027645621
0.282000000000000084,4.983666310079136963
0.283000000000000085,4.533877238311234237
0.284000000000000086,4.092481651429246803
0.285000000000000087,3.659316942128431727
0.286000000000000087,3.234233631446023161
0.287000000000000088,2.817094982059040298
0.288000000000000089,2.407776510221954602
0.289000000000000090,2.006165411520578257
0.290000000000000091,1.612159914971434294
0.291000000000000092,1.225668579243637257
0.292000000000000093,0.846609543951088228
0.293000000000000094,0.474909748076158877
0.294000000000000095,0.110504126662707813
0.295000000000000095,-0.246665204027895879
0.296000000000000096,-0.596649763652306708
0.297000000000000097,-0.939495518909185146
0.298000000000000098,-1.275243681271776897
0.299000000000000099,-1.603931484846723432
0.300000000000000100,-1.925592938739258297
0.301000000000000101,-2.240259549129030248
0.302000000000000102,-2.547961007039173165
0.303000000000000103,-2.848725838514514219
0.304000000000000103,-3.142582014606285501
0.305000000000000104,-3.429557519193371373
0.306000000000000105,-3.709680873250605693
0.307000000000000106,-3.982981614704272921
0.308000000000000107,-4.249490733494587502
0.309000000000000108,-4.509241061895056468
0.310000000000000109,-4.762267620522133704
0.311000000000000110,-5.008607920805037139
0.312000000000000111,-5.248302224980865738
0.313000000000000111,-5.481393764932105839
0.314000000000000112,-5.707928921398617739
0.315000000000000113,-5.927957365274375334
0.316000000000000114,-6.141532162844244525
0.317000000000000115,-6.348709846929945222
0.318000000000000116,-6.549550456000202914
0.319000000000000117,-6.744117543359889666
0.320000000000000118,-6.932478158569390203
0.321000000000000119,-7.114702803261188535
0.322000000000000119,-7.290865363517153419
0.323000000000000120,-7.461043020950081761
0.324000000000000121,-7.625316144599021406
0.325000000000000122,-7.783768165700427843
0.326000000000000123,-7.936485437339406701
0.327000000000000124,-8.083557080918241766
0.328000000000000125,-8.225074821304643180
0.329000000000000126,-8.361132812441159246
0.330000000000000127,-8.491827455111380374
0.331000000000000127,-8.617257208469105478
0.332000000000000128,-8.737522396844239481
0.333000000000000129,-8.852725013245777319
0.334000000000000130,-8.962968520887088175
0.335000000000000131,-9.068357653964902454
0.336000000000000132,-9.168998218828571467
0.337000000000000133,-9.264996896584388963
0.338000000000000134,-9.356461048088657861
0.339000000000000135,-9.443498522194364142
0.340000000000000135,-9.526217468031081381
0.341000000000000136,-9.604726152014208651
0.342000000000000137,-9.679132780200259134
0.343000000000000138,-9.749545326528373579
0.344000000000000139,-9.816071367415840854
0.345000000000000140,-9.878817923106053556
0.346000000000000141,-9.937891306102264011
0.347000000000000142,-9.993396976958885958
0.348000000000000143,-10.045439407644723318
0.349000000000000143,-10.094121952638321460
0.350000000000000144,-10.139546727865909048
0.351000000000000145,-10.181814497545712328
0.352000000000000146,-10.221024568959936829
0.353000000000000147,-10.257274695136263887
0.354000000000000148,-10.290660985385045478
0.355000000000000149,-10.321277823605740309
0.356000000000000150,-10.349217794246886371
0.357000000000000151,-10.374571615777520961
0.358000000000000151,-10.397428081504536124
0.359000000000000152,-10.417874007549837501
0.360000000000000153,-10.435994187783192544
0.361000000000000154,-10.451871355490855109
0.362000000000000155,-10.465586151547091376
0.363000000000000156,-10.477217098844450405
0.364000000000000157,-10.486840582729588078
0.365000000000000158,-10.494530837184580463
0.366000000000000159,-10.500359936487926760
0.367000000000000159,-10.504397792085910623
0.368000000000000160,-10.506712154402880088
0.369000000000000161,-10.507368619317794867
0.370000000000000162,-10.506430639035190922
0.371000000000000163,-10.503959537080032050
0.372000000000000164,-10.500014527148561427
0.373000000000000165,-10.494652735550843659
0.374000000000000166,-10.487929226985174935
0.375000000000000167,-10.479897033389182326
0.376000000000000167,-10.470607185618959534
0.377000000000000168,-10.460108747713174893
0.378000000000000169,-10.448448853506395295
0.379000000000000170,-10.435672745362996494
0.380000000000000171,-10.421823814810553088
0.381000000000000172,-10.406943644859630638
0.382000000000000173,-10.391072053804855102
0.383000000000000174,-10.374247140310739468
0.384000000000000175,-10.356505329593767684
0.385000000000000175,-10.337881420521046749
0.386000000000000176,-10.318408633454390966
0.387000000000000177,-10.298118658676866488
0.388000000000000178,-10.277041705247942360
0.389000000000000179,-10.255206550141181765
0.390000000000000180,-10.232640587527274789
0.391000000000000181,-10.209369878073090376
0.392000000000000182,-10.185419198135685193
0.393000000000000183,-10.160812088738019554
0.394000000000000183,-10.135570904220875477
0.395000000000000184,-10.109716860473104916
0.396000000000000185,-10.083270082649475441
0.397000000000000186,-10.056249652292624575
0.398000000000000187,-10.028673653782435693
0.399000000000000188,-10.000559220042926967
0.400000000000000189,-9.971922577442786206
0.401000000000000190,-9.942779089832310291
0.402000000000000191,-9.913143301665037654
0.403000000000000191,-9.883028980158149679
0.404000000000000192,-9.852449156451152490
0.405000000000000193,-9.821416165727345771
0.406000000000000194,-9.789941686267729537
0.407000000000000195,-9.758036777411387419
0.408000000000000196,-9.725711916400964441
0.409000000000000197,-9.692977034095980216
0.410000000000000198,-9.659841549540692185
0.411000000000000199,-9.626314403376772688
0.412000000000000199,-9.592404090094783342
0.413000000000000200,-9.558118689121515743
0.414000000000000201,-9.523465894743376126
0.415000000000000202,-9.488453044868805364
0.416000000000000203,-9.453087148635429315
0.417000000000000204,-9.417374912870007719
0.418000000000000205,-9.381322767411536034
0.419000000000000206,-9.344936889310009320
0.420000000000000207,-9.308223225915057242
0.421000000000000207,-9.271187516870771361
0.422000000000000208,-9.233835315034106372
0.423000000000000209,-9.196172006336215787
0.424000000000000210,-9.158202828607022283
0.425000000000000211,-9.119932889384473995
0.426000000000000212,-9.081367182731241883
0.427000000000000213,-9.042510605082082265
0.428000000000000214,-9.003367970146259225
0.429000000000000214,-8.963944022889833718
0.430000000000000215,-8.924243452623215944
0.431000000000000216,-8.884270905220018832
0.432000000000000217,-8.844030994493270015
0.433000000000000218,-8.803528312755654284
0.434000000000000219,-8.762767440590437218
0.435000000000000220,-8.721752955859962242
0.436000000000000221,-8.680489441978487264
0.437000000000000222,-8.638981495476301120
0.438000000000000222,-8.597233732881838009
0.439000000000000223,-8.555250796948421055
0.440000000000000224,-8.513037362252024565
0.441000000000000225,-8.470598140186208269
0.442000000000000226,-8.427937883380192119
0.443000000000000227,-8.385061389565434453
0.444000000000000228,-8.341973504916099458
0.445000000000000229,-8.298679126888000468
0.446000000000000230,-8.255183206580410271
0.447000000000000230,-8.211490750644662384
0.448000000000000231,-8.167606822762859764
0.449000000000000232,-8.123536544719524244
0.450000000000000233,-8.079285097088714451
0.451000000000000234,-8.034857719558157640
0.452000000000000235,-7.990259710911947089
0.453000000000000236,-7.945496428692175428
0.454000000000000237,-7.900573288559916918
0.455000000000000238,-7.855495763374844564
0.456000000000000238,-7.810269382012572592
0.457000000000000239,-7.764899727937986995
0.458000000000000240,-7.719392437552412112
0.459000000000000241,-7.673753198331603187
0.460000000000000242,-7.627987746771362154
0.461000000000000243,-7.582101866156522263
0.462000000000000244,-7.536101384168918393
0.463000000000000245,-7.489992170348870104
0.464000000000000246,-7.443780133424718670
0.465000000000000246,-7.397471218523820724
0.466000000000000247,-7.351071404278238575
0.467000000000000248,-7.304586699837583019
0.468000000000000249,-7.258023141801077216
0.469000000000000250,-7.211386791080232506
0.470000000000000251,-7.164683729703114068
0.471000000000000252,-7.117920057570489512
0.472000000000000253,-7.071101889174028265
0.473000000000000254,-7.024235350285607637
0.474000000000000254,-6.977326574626983025
0.475000000000000255,-6.930381700528028155
0.476000000000000256,-6.883406867581712163
0.477000000000000257,-6.836408213303282189
0.478000000000000258,-6.789391869800761370
0.479000000000000259,-6.742363960463512385
0.480000000000000260,-6.695330596675108659
0.481000000000000261,-6.648297874556376996
0.482000000000000262,-6.601271871744169850
0.483000000000000262,-6.554258644211003570
0.484000000000000263,-6.507264223130223790
0.485000000000000264,-6.460294611791276509
0.486000000000000265,-6.413355782569077235
0.487000000000000266,-6.366453673951236070
0.488000000000000267,-6.319594187626649706
0.489000000000000268,-6.272783185638616033
0.490000000000000269,-6.226026487605265558
0.491000000000000270,-6.179329868010024818
0.492000000000000270,-6.132699053564301117
0.493000000000000271,-6.086139720644624163
0.494000000000000272,-6.039657492805952543
0.495000000000000273,-5.993257938372800631
0.496000000000000274,-5.946946568109600761
0.497000000000000275,-5.900728832971413595
0.498000000000000276,-5.854610121936012490
0.499000000000000277,-5.808595759918106616
0.500000000000000222,-5.762691005766284569
0.501000000000000334,-5.716901050343147439
0.502000000000000224,-5.671231014688899563
0.503000000000000336,-5.625685948268421832
0.504000000000000226,-5.580270827301984760
0.505000000000000338,-5.534990553179160777
0.506000000000000227,-5.489849950955954405
0.507000000000000339,-5.444853767934427324
0.508000000000000229,-5.400006672324525248
0.509000000000000341,-5.355313251987249501
0.510000000000000231,-5.310778013258702579
0.511000000000000343,-5.266405379853845936
0.512000000000000233,-5.222199691849357173
0.513000000000000345,-5.178165204744304084
0.514000000000000234,-5.134306088597897499
0.515000000000000346,-5.090626427242743723
0.516000000000000236,-5.047130217572834532
0.517000000000000348,-5.003821368904644018
0.518000000000000238,-4.960703702410303784
0.519000000000000350,-4.917780950621230218
0.520000000000000240,-4.875056757001003049
0.521000000000000352,-4.832534675585934636
0.522000000000000242,-4.790218170691900923
0.523000000000000353,-4.748110616685844221
0.524000000000000243,-4.706215297820525834
0.525000000000000355,-4.664535408130857874
0.526000000000000245,-4.623074051390333672
0.527000000000000357,-4.581834241125822160
0.528000000000000247,-4.540818900689323812
0.529000000000000359,-4.500030863384822055
0.530000000000000249,-4.459472872648857944
0.531000000000000361,-4.419147582282969111
0.532000000000000250,-4.379057556736577261
0.533000000000000362,-4.339205271438496325
0.534000000000000252,-4.299593113175619763
0.535000000000000364,-4.260223380516992897
0.536000000000000254,-4.221098284281884716
0.537000000000000366,-4.182219948049930025
0.538000000000000256,-4.143590408712170436
0.539000000000000368,-4.105211617060974483
0.540000000000000258,-4.067085438417703536
0.541000000000000369,-4.029213653296165987
0.542000000000000259,-3.991597958100721932
0.543000000000000371,-3.954239965857195394
0.544000000000000261,-3.917141206975334633
0.545000000000000373,-3.880303130041218740
0.546000000000000263,-3.843727102638288873
0.547000000000000375,-3.807414412195342379
0.548000000000000265,-3.771366266860482597
0.549000000000000377,-3.735583796399164047
0.550000000000000266,-3.700068053115431521
0.551000000000000378,-3.664820012794700155
0.552000000000000268,-3.629840575666962277
0.553000000000000380,-3.595130567389035914
0.554000000000000270,-3.560690740044737623
0.555000000000000382,-3.526521773161546580
0.556000000000000272,-3.492624274742862411
0.557000000000000384,-3.458998782314341103
0.558000000000000274,-3.425645763983543812
0.559000000000000385,-3.392565619511417108
0.560000000000000275,-3.359758681394859003
0.561000000000000387,-3.327225215959058513
0.562000000000000277,-3.294965424458729863
0.563000000000000389,-3.262979444187178668
0.564000000000000279,-3.231267349592273241
0.565000000000000391,-3.199829153398314308
0.566000000000000281,-3.168664807732969990
0.567000000000000393,-3.137774205258282656
0.568000000000000282,-3.107157180305038846
0.569000000000000394,-3.076813510009452912
0.570000000000000284,-3.046742915451608802
0.571000000000000396,-3.016945062794631927
0.572000000000000286,-2.987419564424078189
0.573000000000000398,-2.958165980086550739
0.574000000000000288,-2.929183818027092379
0.575000000000000400,-2.900472536124494294
0.576000000000000290,-2.872031543023975342
0.577000000000000401,-2.843860199266515121
0.578000000000000291,-2.815957818414339009
0.579000000000000403,-2.788323668171854841
0.580000000000000293,-2.760956971501629997
0.581000000000000405,-2.733856907734676600
0.582000000000000295,-2.707022613674779254
0.583000000000000407,-2.680453184696126367
0.584000000000000297,-2.654147675833971487
0.585000000000000409,-2.628105102867741572
0.586000000000000298,-2.602324443396291986
0.587000000000000410,-2.576804637904746453
0.588000000000000300,-2.551544590822725667
0.589000000000000412,-2.526543171573381485
0.590000000000000302,-2.501799215613094596
0.591000000000000414,-2.477311525461376895
0.592000000000000304,-2.453078871720716148
0.593000000000000416,-2.429099994086024950
0.594000000000000306,-2.405373602343529704
0.595000000000000417,-2.381898377358668828
0.596000000000000307,-2.358672972052935801
0.597000000000000419,-2.335696012369298025
0.598000000000000309,-2.312966098226088896
0.599000000000000421,-2.290481804459074233
0.600000000000000311,-2.268241681751629102
0.601000000000000423,-2.246244257552725276
0.602000000000000313,-2.224488036982729344
0.603000000000000425,-2.202971503726678826
0.604000000000000314,-2.181693120915161543
0.605000000000000426,-2.160651331992386570
0.606000000000000316,-2.139844561571643045
0.607000000000000428,-2.119271216277796022
0.608000000000000318,-2.098929685576965909
0.609000000000000430,-2.078818342593119262
0.610000000000000320,-2.058935544911708604
0.611000000000000432,-2.039279635370128574
0.612000000000000322,-2.019848942835123395
0.613000000000000433,-2.000641782966981364
0.614000000000000323,-1.981656458970597612
0.615000000000000435,-1.962891262333326114
0.616000000000000325,-1.944344473549678654
0.617000000000000437,-1.926014362832822568
0.618000000000000327,-1.907899190812970103
0.619000000000000439,-1.889997209222571417
0.620000000000000329,-1.872306661568472474
0.621000000000000441,-1.854825783790977622
0.622000000000000330,-1.837552804909911019
0.623000000000000442,-1.820485947657699111
0.624000000000000332,-1.803623429099578956
0.625000000000000444,-1.786963461240922868
0.626000000000000334,-1.770504251621845881
0.627000000000000446,-1.754244003899060989
0.628000000000000336,-1.738180918415159537
0.629000000000000448,-1.722313192755335454
0.630000000000000338,-1.706639022291695396
0.631000000000000449,-1.691156600715186809
0.632000000000000339,-1.675864120555305536
0.633000000000000451,-1.660759773687634944
0.634000000000000341,-1.645841751829363986
0.635000000000000453,-1.631108247022856172
0.636000000000000343,-1.616557452107405535
0.637000000000000455,-1.602187561179281516
0.638000000000000345,-1.587996770040217331
0.639000000000000457,-1.573983276634374651
0.640000000000000346,-1.560145281474047518
0.641000000000000458,-1.546480988054067085
0.642000000000000348,-1.532988603255202253
0.643000000000000460,-1.519666337736528927
0.644000000000000350,-1.506512406317046970
0.645000000000000462,-1.493525028346543326
0.646000000000000352,-1.480702428065960863
0.647000000000000464,-1.468042834957281384
0.648000000000000353,-1.455544484083222345
0.649000000000000465,-1.443205616416685544
0.650000000000000355,-1.431024479160310392
0.651000000000000467,-1.418999326056081145
0.652000000000000357,-1.407128417685292510
0.653000000000000469,-1.395410021758872077
0.654000000000000359,-1.383842413398342908
0.655000000000000471,-1.372423875407424276
0.656000000000000361,-1.361152698534566552
0.657000000000000473,-1.350027181726406456
0.658000000000000362,-1.339045632372439121
0.659000000000000474,-1.328206366540921834
0.660000000000000364,-1.317507709206257704
0.661000000000000476,-1.306947994467909435
0.662000000000000366,-1.296525565761065923
