# grapheneoxide_CS-13835336-AC
# h[nm],U(h)[kJ/mol]
0.200000000000000011,61.149274229019930260
0.201000000000000012,60.242355652535572119
0.202000000000000013,59.309717787795328547
0.203000000000000014,58.362648738054005548
0.204000000000000015,57.407050193723804909
0.205000000000000016,56.446114590047969273
0.206000000000000016,55.481849576107777011
0.207000000000000017,54.515874398429652103
0.208000000000000018,53.549775374674609907
0.209000000000000019,52.585210403626227560
0.210000000000000020,51.623884551487606132
0.211000000000000021,50.667472067039440731
0.212000000000000022,49.717528701868168639
0.213000000000000023,48.775417519753993645
0.214000000000000024,47.842258231569175564
0.215000000000000024,46.918902136274880377
0.216000000000000025,46.005930292522108971
0.217000000000000026,45.103670384890548917
0.218000000000000027,44.212227038563405301
0.219000000000000028,43.331520492432851199
0.220000000000000029,42.461329168466157569
0.221000000000000030,41.601332514995682743
0.222000000000000031,40.751151389182986406
0.223000000000000032,39.910384081270976253
0.224000000000000032,39.078636817505000067
0.225000000000000033,38.255548186785340192
0.226000000000000034,37.440807414278431509
0.227000000000000035,36.634166760933148055
0.228000000000000036,35.835448574968189916
0.229000000000000037,35.044547676581302653
0.230000000000000038,34.261429837585197333
0.231000000000000039,33.486127139773529393
0.232000000000000040,32.718730974315384685
0.233000000000000040,31.959383392127573842
0.234000000000000041,31.208267442645670542
0.235000000000000042,30.465597054338548588
0.236000000000000043,29.731606921454357462
0.237000000000000044,29.006542772971613431
0.238000000000000045,28.290652315264839700
0.239000000000000046,27.584177062121717938
0.240000000000000047,26.887345196046396723
0.241000000000000048,26.200365544086842817
0.242000000000000048,25.523422699981452411
0.243000000000000049,24.856673282051257701
0.244000000000000050,24.200243282489928731
0.245000000000000051,23.554226437825651175
0.246000000000000052,22.918683531544225218
0.247000000000000053,22.293642527288678679
0.248000000000000054,21.679099423807468128
0.249000000000000055,21.075019720044799953
0.250000000000000056,20.481340379638709237
0.251000000000000056,19.897972187863480542
0.252000000000000057,19.324802400046085182
0.253000000000000058,18.761697588103572798
0.254000000000000059,18.208506600568888700
0.255000000000000060,17.665063560857088731
0.256000000000000061,17.131190838200716087
0.257000000000000062,16.606701935353164856
0.258000000000000063,16.091404246580040649
0.259000000000000064,15.585101648446777034
0.260000000000000064,15.087596894327223396
0.261000000000000065,14.598693791307521650
0.262000000000000066,14.118199145178854437
0.263000000000000067,13.645924465472205611
0.264000000000000068,13.181687427978243221
0.265000000000000069,12.725313096927285628
0.266000000000000070,12.276634913005745275
0.267000000000000071,11.835495456692195049
0.268000000000000071,11.401746999056294740
0.269000000000000072,10.975251854227133563
0.270000000000000073,10.555882549260044101
0.271000000000000074,10.143521828168626797
0.272000000000000075,9.738062507497328824
0.273000000000000076,9.339407201045590412
0.274000000000000077,8.947467931268830554
0.275000000000000078,8.562165644525411068
0.276000000000000079,8.183429646758701992
0.277000000000000079,7.811196975441442092
0.278000000000000080,7.445411722707182989
0.279000000000000081,7.086024323583352214
0.280000000000000082,6.732990822156118327
0.281000000000000083,6.386272127364943429
0.282000000000000084,6.045833268969647456
0.283000000000000085,5.711642663075144455
0.284000000000000086,5.383671395455642106
0.285000000000000087,5.061892529807643371
0.286000000000000087,4.746280446988647483
0.287000000000000088,4.436810220277845218
0.288000000000000089,4.133457030732197168
0.289000000000000090,3.836195625811697596
0.290000000000000091,3.544999823615779810
0.291000000000000092,3.259842064308828835
0.292000000000000093,2.980693009620002165
0.293000000000000094,2.707521190678613188
0.294000000000000095,2.440292703891476123
0.295000000000000095,2.178970954079535893
0.296000000000000096,1.923516443667094178
0.297000000000000097,1.673886606352962714
0.298000000000000098,1.430035683387289369
0.299000000000000099,1.191914640325600683
0.300000000000000100,0.959471121930257298
0.301000000000000101,0.732649442733650624
0.302000000000000102,0.511390610665078738
0.303000000000000103,0.295632381067898797
0.304000000000000103,0.085309338394373088
0.305000000000000104,-0.119646997143832673
0.306000000000000105,-0.319308040673076887
0.307000000000000106,-0.513747994164300170
0.308000000000000107,-0.703043680947165628
0.309000000000000108,-0.887274365749359029
0.310000000000000109,-1.066521562683665936
0.311000000000000110,-1.240868833497146717
0.312000000000000111,-1.410401578280274348
0.313000000000000111,-1.575206820708271227
0.314000000000000112,-1.735372989756942985
0.315000000000000113,-1.890989699701081772
0.316000000000000114,-2.042147530067482286
0.317000000000000115,-2.188937807077714570
0.318000000000000116,-2.331452387979923380
0.319000000000000117,-2.469783449534484809
0.320000000000000118,-2.604023281786838506
0.321000000000000119,-2.734264088132996040
0.322000000000000119,-2.860597792559355756
0.323000000000000120,-2.983115854819555324
0.324000000000000121,-3.101909094197780270
0.325000000000000122,-3.217067522399785329
0.326000000000000123,-3.328680186010948283
0.327000000000000124,-3.436835018864830893
0.328000000000000125,-3.541618704576099841
0.329000000000000126,-3.643116549408104365
0.330000000000000127,-3.741412365568474119
0.331000000000000127,-3.836588364954992336
0.332000000000000128,-3.928725063309260968
0.333000000000000129,-4.017901194676807286
0.334000000000000130,-4.104193636019022762
0.335000000000000131,-4.187677341775151163
0.336000000000000132,-4.268425288129972017
0.337000000000000133,-4.346508426706142458
0.338000000000000134,-4.421995647368071047
0.339000000000000135,-4.494953749796296805
0.340000000000000135,-4.565447423468837584
0.341000000000000136,-4.633539235666407130
0.342000000000000137,-4.699289627103594214
0.343000000000000138,-4.762756914776124617
0.344000000000000139,-4.823997301606427257
0.345000000000000140,-4.883064892464031637
0.346000000000000141,-4.940011716135147779
0.347000000000000142,-4.994887752815633242
0.348000000000000143,-5.047740966704084897
0.349000000000000143,-5.098617343276169223
0.350000000000000144,-5.147560930827676628
0.351000000000000145,-5.194613885881684823
0.352000000000000146,-5.239816522064865367
0.353000000000000147,-5.283207362068448099
0.354000000000000148,-5.324823192321453291
0.355000000000000149,-5.364699120016337197
0.356000000000000150,-5.402868632140974015
0.357000000000000151,-5.439363656184917240
0.358000000000000151,-5.474214622202724811
0.359000000000000152,-5.507450525932110708
0.360000000000000153,-5.539098992680235867
0.361000000000000154,-5.569186341706727106
0.362000000000000155,-5.597737650847871116
0.363000000000000156,-5.624776821141916017
0.364000000000000157,-5.650326641230810409
0.365000000000000158,-5.674408851329410197
0.366000000000000159,-5.697044206567843716
0.367000000000000159,-5.718252539527979295
0.368000000000000160,-5.738052821809235482
0.369000000000000161,-5.756463224473226781
0.370000000000000162,-5.773501177230466297
0.371000000000000163,-5.789183426245706698
0.372000000000000164,-5.803526090451286201
0.373000000000000165,-5.816544716270309223
0.374000000000000166,-5.828254330663432015
0.375000000000000167,-5.838669492424131136
0.376000000000000167,-5.847804341658572547
0.377000000000000168,-5.855672647396241715
0.378000000000000169,-5.862287853287386774
0.379000000000000170,-5.867663121352692635
0.380000000000000171,-5.871811373759216579
0.381000000000000172,-5.874745332604970116
0.382000000000000173,-5.876477557702143528
0.383000000000000174,-5.877020482356359210
0.384000000000000175,-5.876386447145863556
0.385000000000000175,-5.874587731710947835
0.386000000000000176,-5.871636584569669637
0.387000000000000177,-5.867545250981104132
0.388000000000000178,-5.862325998882552014
0.389000000000000179,-5.855991142931155302
0.390000000000000180,-5.848553066684815782
0.391000000000000181,-5.840024242960732970
0.392000000000000182,-5.830417252413186091
0.393000000000000183,-5.819744800375127980
0.394000000000000183,-5.808019732010708758
0.395000000000000184,-5.795255045828103135
0.396000000000000185,-5.781463905603859921
0.397000000000000186,-5.766659650771741141
0.398000000000000187,-5.750855805330276738
0.399000000000000188,-5.734066085324394990
0.400000000000000189,-5.716304404957304186
0.401000000000000190,-5.697584881389431644
0.402000000000000191,-5.677921838281640099
0.403000000000000191,-5.657329808140035610
0.404000000000000192,-5.635823533519856099
0.405000000000000193,-5.613417967145546861
0.406000000000000194,-5.590128271003999672
0.407000000000000195,-5.565969814467349508
0.408000000000000196,-5.540958171501071838
0.409000000000000197,-5.515109117012488404
0.410000000000000198,-5.488438622393931432
0.411000000000000199,-5.460962850313677563
0.412000000000000199,-5.432698148807043381
0.413000000000000200,-5.403661044718584883
0.414000000000000201,-5.373868236545403576
0.415000000000000202,-5.343336586730094595
0.416000000000000203,-5.312083113450737137
0.417000000000000204,-5.280124981953808749
0.418000000000000205,-5.247479495474619782
0.419000000000000206,-5.214164085788397962
0.420000000000000207,-5.180196303433574734
0.421000000000000207,-5.145593807647633966
0.422000000000000208,-5.110374356053961620
0.423000000000000209,-5.074555794137089570
0.424000000000000210,-5.038156044541876710
0.425000000000000211,-5.001193096230770685
0.426000000000000212,-4.963684993531917833
0.427000000000000213,-4.925649825109116975
0.428000000000000214,-4.887105712883447417
0.429000000000000214,-4.848070800934680236
0.430000000000000215,-4.808563244409247872
0.431000000000000216,-4.768601198460165946
0.432000000000000217,-4.728202807242764649
0.433000000000000218,-4.687386192988806322
0.434000000000000219,-4.646169445180193591
0.435000000000000220,-4.604570609842192574
0.436000000000000221,-4.562607678974680780
0.437000000000000222,-4.520298580138813804
0.438000000000000222,-4.477661166215220589
0.439000000000000223,-4.434713205348634446
0.440000000000000224,-4.391472371092751459
0.441000000000000225,-4.347956232767904439
0.442000000000000226,-4.304182246043258608
0.443000000000000227,-4.260167743753871861
0.444000000000000228,-4.215929926962305174
0.445000000000000229,-4.171485856273228876
0.446000000000000230,-4.126852443408621340
0.447000000000000230,-4.082046443050379558
0.448000000000000231,-4.037084444956082763
0.449000000000000232,-3.991982866352946413
0.450000000000000233,-3.946757944614303515
0.451000000000000234,-3.901425730221933286
0.452000000000000235,-3.856002080017177924
0.453000000000000236,-3.810502650742741970
0.454000000000000237,-3.764942892876786740
0.455000000000000238,-3.719338044759975759
0.456000000000000238,-3.673703127015801151
0.457000000000000239,-3.628052937263796629
0.458000000000000240,-3.582402045124871925
0.459000000000000241,-3.536764787517295616
0.460000000000000242,-3.491155264241694312
0.461000000000000243,-3.445587333852661693
0.462000000000000244,-3.400074609814520699
0.463000000000000245,-3.354630456938000549
0.464000000000000246,-3.309267988094673818
0.465000000000000246,-3.264000061205328596
0.466000000000000247,-3.218839276498301594
0.467000000000000248,-3.173797974033498726
0.468000000000000249,-3.128888231487601423
0.469000000000000250,-3.084121862195627894
0.470000000000000251,-3.039510413443939019
0.471000000000000252,-2.995065165009421992
0.472000000000000253,-2.950797127939650100
0.473000000000000254,-2.906717043568354253
0.474000000000000254,-2.862835382760710257
0.475000000000000255,-2.819162345382580703
0.476000000000000256,-2.775707859987923243
0.477000000000000257,-2.732481583718409990
0.478000000000000258,-2.689492902409179820
0.479000000000000259,-2.646750930894736786
0.480000000000000260,-2.604264513508815160
0.481000000000000261,-2.562042224772043131
0.482000000000000262,-2.520092370261286074
0.483000000000000262,-2.478422987654454790
0.484000000000000263,-2.437041847944560580
0.485000000000000264,-2.395956456816926483
0.486000000000000265,-2.355174056183333420
0.487000000000000266,-2.314701625867003010
0.488000000000000267,-2.274545885432341041
0.489000000000000268,-2.234713296153430395
0.490000000000000269,-2.195210063115212940
0.491000000000000270,-2.156042137441549933
0.492000000000000270,-2.117215218644187047
0.493000000000000271,-2.078734757086940999
0.494000000000000272,-2.040605956559363054
0.495000000000000273,-2.002833776954200840
0.496000000000000274,-1.965422937043254548
0.497000000000000275,-1.928377917346041359
0.498000000000000276,-1.891702963086013156
0.499000000000000277,-1.855402087229057084
0.500000000000000222,-1.819479073599073571
0.501000000000000334,-1.783937480065676651
0.502000000000000224,-1.748780641799026370
0.503000000000000336,-1.714011674586923162
0.504000000000000226,-1.679633478209572983
0.505000000000000338,-1.645648739867219934
0.506000000000000227,-1.612059937656390218
0.507000000000000339,-1.578869344090110483
0.508000000000000229,-1.546079029658073090
0.509000000000000341,-1.513690866422363168
0.510000000000000231,-1.481706531644983560
0.511000000000000343,-1.450127511442945272
0.512000000000000233,-1.418955104467413797
0.513000000000000345,-1.388190425602966682
0.514000000000000234,-1.357834409683652765
0.515000000000000346,-1.327887815222080103
0.516000000000000236,-1.298351228148511449
0.517000000000000348,-1.269225065556459642
0.518000000000000238,-1.240509579451875233
0.519000000000000350,-1.212204860502732240
0.520000000000000240,-1.184310841786273105
0.521000000000000352,-1.156827302531002299
0.522000000000000242,-1.129753871850826430
0.523000000000000353,-1.103090032468677872
0.524000000000000243,-1.076835124427243606
0.525000000000000355,-1.050988348784328341
0.526000000000000245,-1.025548771290687444
0.527000000000000357,-1.000515326048021070
0.528000000000000247,-0.975886819145214801
0.529000000000000359,-0.951661932270689848
0.530000000000000249,-0.927839226299107978
0.531000000000000361,-0.904417144850532373
0.532000000000000250,-0.881394017820440800
0.533000000000000362,-0.858768064878863036
0.534000000000000252,-0.836537398937226229
0.535000000000000364,-0.814700029581355900
0.536000000000000254,-0.793253866469388447
0.537000000000000366,-0.772196722693152315
0.538000000000000256,-0.751526318102002877
0.539000000000000368,-0.731240282587786394
0.540000000000000258,-0.711336159330069662
0.541000000000000369,-0.691811408000450379
0.542000000000000259,-0.672663407925242818
0.543000000000000371,-0.653889461205507505
0.544000000000000261,-0.635486795793776205
0.545000000000000373,-0.617452568526686618
0.546000000000000263,-0.599783868112924612
0.547000000000000375,-0.582477718075789186
0.548000000000000265,-0.565531079650009705
0.549000000000000377,-0.548940854632131492
0.550000000000000266,-0.532703888184236307
0.551000000000000378,-0.516816971590495333
0.552000000000000268,-0.501276844966305979
0.553000000000000380,-0.486080199919703415
0.554000000000000270,-0.471223682164874647
0.555000000000000382,-0.456703894087508833
0.556000000000000272,-0.442517397261978918
0.557000000000000384,-0.428660714920108599
0.558000000000000274,-0.415130334371644927
0.559000000000000385,-0.401922709376251297
0.560000000000000275,-0.389034262467211012
0.561000000000000387,-0.376461387226772914
0.562000000000000277,-0.364200450513314178
0.563000000000000389,-0.352247794640415501
0.564000000000000279,-0.340599739508032850
0.565000000000000391,-0.329252584685928107
0.566000000000000281,-0.318202611449604877
0.567000000000000393,-0.307446084768973005
0.568000000000000282,-0.296979255250058027
0.569000000000000394,-0.286798361029979743
0.570000000000000284,-0.276899629625603716
0.571000000000000396,-0.267279279736138853
0.572000000000000286,-0.257933523000121512
0.573000000000000398,-0.248858565707065271
0.574000000000000288,-0.240050610464288633
0.575000000000000400,-0.231505857819280264
0.576000000000000290,-0.223220507838043952
0.577000000000000401,-0.215190761639891287
0.578000000000000291,-0.207412822889148807
0.579000000000000403,-0.199882899244237744
0.580000000000000293,-0.192597203764660385
0.581000000000000405,-0.185551956276353736
0.582000000000000295,-0.178743384695967122
0.583000000000000407,-0.172167726314561231
0.584000000000000297,-0.165821229041273138
0.585000000000000409,-0.159700152607503532
0.586000000000000298,-0.153800769732155285
0.587000000000000410,-0.148119367248503636
0.588000000000000300,-0.142652247193252119
0.589000000000000412,-0.137395727858331096
0.590000000000000302,-0.132346144806037624
0.591000000000000414,-0.127499851848101753
0.592000000000000304,-0.122853221989212266
0.593000000000000416,-0.118402648335640182
0.594000000000000306,-0.114144544969536188
0.595000000000000417,-0.110075347789468120
0.596000000000000307,-0.106191515317804838
0.597000000000000419,-0.102489529475550872
0.598000000000000309,-0.098965896325216393
0.599000000000000421,-0.095617146782275994
0.600000000000000311,-0.092439837295888311
0.601000000000000423,-0.089430550499381978
0.602000000000000313,-0.086585895831164952
0.603000000000000425,-0.083902510126578997
0.604000000000000314,-0.081377058181367631
0.605000000000000426,-0.079006233287244126
0.606000000000000316,-0.076786757740223366
0.607000000000000428,-0.074715383322233944
0.608000000000000318,-0.072788891756628421
0.609000000000000430,-0.071004095138123002
0.610000000000000320,-0.069357836337761478
0.611000000000000432,-0.067846989383450670
0.612000000000000322,-0.066468459816615422
0.613000000000000433,-0.065219185025553184
0.614000000000000323,-0.064096134556001119
0.615000000000000435,-0.063096310399490235
0.616000000000000325,-0.062216747259989602
0.617000000000000437,-0.061454512799400327
0.618000000000000327,-0.060806707862417798
0.619000000000000439,-0.060270466681258759
0.620000000000000329,-0.059842957060802893
0.621000000000000441,-0.059521380544637993
0.622000000000000330,-0.059302972562497426
0.623000000000000442,-0.059185002559622016
0.624000000000000332,-0.059164774108479777
0.625000000000000444,-0.059239625003400298
0.626000000000000334,-0.059406927338514569
0.627000000000000446,-0.059664087569544930
0.628000000000000336,-0.060008546559854457
0.629000000000000448,-0.060437779611245246
0.630000000000000338,-0.060949296479928403
0.631000000000000449,-0.061540641378138916
0.632000000000000339,-0.062209392961786403
0.633000000000000451,-0.062953164304623499
0.634000000000000341,-0.063769602859298030
0.635000000000000453,-0.064656390405765429
0.636000000000000343,-0.065611242987387686
0.637000000000000455,-0.066631910835215635
0.638000000000000345,-0.067716178280762054
0.639000000000000457,-0.068861863657705275
0.640000000000000346,-0.070066819192882976
0.641000000000000458,-0.071328930886952926
0.642000000000000348,-0.072646118385082420
0.643000000000000460,-0.074016334838037975
0.644000000000000350,-0.075437566754002719
0.645000000000000462,-0.076907833841506110
0.646000000000000352,-0.078425188843755295
0.647000000000000464,-0.079987717364745164
0.648000000000000353,-0.081593537687443318
0.649000000000000465,-0.083240800584386251
0.650000000000000355,-0.084927689120978117
0.651000000000000467,-0.086652418451822921
0.652000000000000357,-0.088413235610369872
0.653000000000000469,-0.090208419292171077
0.654000000000000359,-0.092036279632043305
0.655000000000000471,-0.093895157975394675
0.656000000000000361,-0.095783426644017622
0.657000000000000473,-0.097699488696592729
0.658000000000000362,-0.099641777684177174
0.659000000000000474,-0.101608757400921096
0.660000000000000364,-0.103598921630278215
0.661000000000000476,-0.105610793886943985
0.662000000000000366,-0.107642927154744467
0.663000000000000478,-0.109693903620751113
