# grapheneoxide_Water
# h[nm],U(h)[kJ/mol]
0.149999999999999994,45.600252059660526527
0.150999999999999995,44.555750007778250676
0.151999999999999996,43.935187008681069187
0.152999999999999997,43.356215300212070929
0.153999999999999998,42.700881417268007567
0.154999999999999999,41.966820321425515772
0.156000000000000000,41.190160058673534138
0.157000000000000001,40.409488451507023399
0.158000000000000002,39.652155533231947970
0.159000000000000002,38.931801853070076902
0.160000000000000003,38.250779824254259154
0.161000000000000004,37.604062566834329573
0.162000000000000005,36.982974512263993461
0.163000000000000006,36.378069304173408227
0.164000000000000007,35.781010740640546430
0.165000000000000008,35.185567310795747176
0.166000000000000009,34.587928079359407718
0.167000000000000010,33.986560348314625912
0.168000000000000010,33.381801684952456810
0.169000000000000011,32.775335970464638535
0.170000000000000012,32.169658876977166528
0.171000000000000013,31.567599324422985774
0.172000000000000014,30.971932556847058038
0.173000000000000015,30.385097776595056729
0.174000000000000016,29.809017906047678537
0.175000000000000017,29.245009668460443919
0.176000000000000018,28.693767371523769327
0.177000000000000018,28.155402239394398123
0.178000000000000019,27.629519778738533375
0.179000000000000020,27.115319619291415876
0.180000000000000021,26.611704894399082377
0.181000000000000022,26.117391064859258876
0.182000000000000023,25.631006836294808693
0.183000000000000024,25.151182291425314475
0.184000000000000025,24.676621457416956673
0.185000000000000026,24.206158221001430775
0.186000000000000026,23.738795798154448846
0.187000000000000027,23.273730894674141467
0.188000000000000028,22.810364307015195351
0.189000000000000029,22.348300062992102255
0.190000000000000030,21.887335343293123913
0.191000000000000031,21.427443407410013521
0.192000000000000032,20.968751616213090472
0.193000000000000033,20.511516436002597885
0.194000000000000034,20.056097056659176303
0.195000000000000034,19.602928984197699691
0.196000000000000035,19.152498694389038292
0.197000000000000036,18.705320172780481869
0.198000000000000037,18.261913926692734833
0.199000000000000038,17.822788842315322455
0.200000000000000039,17.388427077761615891
0.201000000000000040,16.959272031620059806
0.202000000000000041,16.535719305303324234
0.203000000000000042,16.118110484402365046
0.204000000000000042,15.706729496629170839
0.205000000000000043,15.301801258713922493
0.206000000000000044,14.903492298576804131
0.207000000000000045,14.511913029009827270
0.208000000000000046,14.127121351911858582
0.209000000000000047,13.749127284986252917
0.210000000000000048,13.377898323185409168
0.211000000000000049,13.013365272834684916
0.212000000000000050,12.655428325370181142
0.213000000000000050,12.303963168378382775
0.214000000000000051,11.958826962818031703
0.215000000000000052,11.619864045897356775
0.216000000000000053,11.286911248275895758
0.217000000000000054,10.959802741474669929
0.218000000000000055,10.638374356211834026
0.219000000000000056,10.322467334586628240
0.220000000000000057,10.011931498492460335
0.221000000000000058,9.706627833337636346
0.222000000000000058,9.406430500150019469
0.223000000000000059,9.111228300570473948
0.224000000000000060,8.820925628265900542
0.225000000000000061,8.535442947119303625
0.226000000000000062,8.254716841398570537
0.227000000000000063,7.978699686195923846
0.228000000000000064,7.707358987993357502
0.229000000000000065,7.440676445468101363
0.230000000000000066,7.178646779819556123
0.231000000000000066,6.921276382172334429
0.232000000000000067,6.668581823174354994
0.233000000000000068,6.420588266928805687
0.234000000000000069,6.177327828024268719
0.235000000000000070,5.938837906788531740
0.236000000000000071,5.705159534103010799
0.237000000000000072,5.476335753272404183
0.238000000000000073,5.252410062631046372
0.239000000000000073,5.033424938849876185
0.240000000000000074,4.819420457339192332
0.241000000000000075,4.610433022766367905
0.242000000000000076,4.406494219553848346
0.243000000000000077,4.207629789314339952
0.244000000000000078,4.013858739530858699
0.245000000000000079,3.825192585405949863
0.246000000000000080,3.641634724688969094
0.247000000000000081,3.463179943437721953
0.248000000000000081,3.289814049075338254
0.249000000000000082,3.121513625752484700
0.250000000000000111,2.958245905906901729
0.251000000000000112,2.799968751011580270
0.252000000000000113,2.646630733802995739
0.253000000000000114,2.498171313766341939
0.254000000000000115,2.354521097306390143
0.255000000000000115,2.215602173835197419
0.256000000000000116,2.081328518943269312
0.257000000000000117,1.951606455872925583
0.258000000000000118,1.826335166666311682
0.259000000000000119,1.705407244599789873
0.260000000000000120,1.588709279828349086
0.261000000000000121,1.476122470534836140
0.262000000000000122,1.367523252296972691
0.263000000000000123,1.262783938840009501
0.264000000000000123,1.161773367823788483
0.265000000000000124,1.064357545811877248
0.266000000000000125,0.970400287078631685
0.267000000000000126,0.879763841421312143
0.268000000000000127,0.792309506651951545
0.269000000000000128,0.707898221943101591
0.270000000000000129,0.626391138687835580
0.271000000000000130,0.547650166004020833
0.272000000000000131,0.471538488463076777
0.273000000000000131,0.397921054051426193
0.274000000000000132,0.326665030777135768
0.275000000000000133,0.257640230713212348
0.276000000000000134,0.190719500622002408
0.277000000000000135,0.125779078631576086
0.278000000000000136,0.062698916734471741
0.279000000000000137,0.001362969152267257
0.280000000000000138,-0.058340553143732987
0.281000000000000139,-0.116518961244285291
0.282000000000000139,-0.173274899738601551
0.283000000000000140,-0.228706189895021395
0.284000000000000141,-0.282905703555892063
0.285000000000000142,-0.335961266588609919
0.286000000000000143,-0.387955590627216795
0.287000000000000144,-0.438966231750485214
0.288000000000000145,-0.489065574672217118
0.289000000000000146,-0.538320840965345160
0.290000000000000147,-0.586794119803253911
0.291000000000000147,-0.634542419677039726
0.292000000000000148,-0.681617739536023892
0.293000000000000149,-0.728067157798594211
0.294000000000000150,-0.773932937690947731
0.295000000000000151,-0.819252647390923627
0.296000000000000152,-0.864059293481959423
0.297000000000000153,-0.908381466257289771
0.298000000000000154,-0.952243495455751821
0.299000000000000155,-0.995665615057173548
0.300000000000000155,-1.038664135816379286
0.301000000000000156,-1.081251624269540468
0.302000000000000157,-1.123437087004404811
0.303000000000000158,-1.165226159045743781
0.304000000000000159,-1.206621295269171501
0.305000000000000160,-1.247621963819053770
0.306000000000000161,-1.288224840569667906
0.307000000000000162,-1.328424003732199044
0.308000000000000163,-1.368211127773297786
0.309000000000000163,-1.407575675873508736
0.310000000000000164,-1.446505090215434386
0.311000000000000165,-1.484984979451787979
0.312000000000000166,-1.522999302762368057
0.313000000000000167,-1.560530549966065550
0.314000000000000168,-1.597559917209267155
0.315000000000000169,-1.634067477805258850
0.316000000000000170,-1.670032347850315402
0.317000000000000171,-1.705432846290972693
0.318000000000000171,-1.740246649163535109
0.319000000000000172,-1.774450937771127501
0.320000000000000173,-1.808022540605284778
0.321000000000000174,-1.840938068858610333
0.322000000000000175,-1.873174045412011823
0.323000000000000176,-1.904707027214717741
0.324000000000000177,-1.935513721007581012
0.325000000000000178,-1.965571092370196782
0.326000000000000179,-1.994856468100239422
0.327000000000000179,-2.023347631958848147
0.328000000000000180,-2.051022913839516182
0.329000000000000181,-2.077861272439261775
0.330000000000000182,-2.103842371530272537
0.331000000000000183,-2.128946649947823122
0.332000000000000184,-2.153155385425834289
0.333000000000000185,-2.176450752425523660
0.334000000000000186,-2.198815874114789626
0.335000000000000187,-2.220234868666749684
0.336000000000000187,-2.240692890055115960
0.337000000000000188,-2.260176163531784965
0.338000000000000189,-2.278672015978709720
0.339000000000000190,-2.296168901331270273
0.340000000000000191,-2.312656421274449592
0.341000000000000192,-2.328125341416273919
0.342000000000000193,-2.342567603144863231
0.343000000000000194,-2.355976331376660404
0.344000000000000195,-2.368345838403490777
0.345000000000000195,-2.379671624045792022
0.346000000000000196,-2.389950372317813709
0.347000000000000197,-2.399179944808893961
0.348000000000000198,-2.407359370982281810
0.349000000000000199,-2.414488835589919891
0.350000000000000200,-2.420569663398176363
0.351000000000000201,-2.425604301415391184
0.352000000000000202,-2.429596298807891408
0.353000000000000203,-2.432550284686415765
0.354000000000000203,-2.434471943939926497
0.355000000000000204,-2.435367991288560852
0.356000000000000205,-2.435246143722122003
0.357000000000000206,-2.434115091484927884
0.358000000000000207,-2.431984467762013047
0.359000000000000208,-2.428864817216035199
0.360000000000000209,-2.424767563518222868
0.361000000000000210,-2.419704976010792485
0.362000000000000210,-2.413690135632317268
0.363000000000000211,-2.406736900231548404
0.364000000000000212,-2.398859869389297295
0.365000000000000213,-2.390074348861998210
0.366000000000000214,-2.380396314754825049
0.367000000000000215,-2.369842377526396149
0.368000000000000216,-2.358429745921478027
0.369000000000000217,-2.346176190922445226
0.370000000000000218,-2.333100009804875974
0.371000000000000218,-2.319219990377191287
0.372000000000000219,-2.304555375479147905
0.373000000000000220,-2.289125827808808911
0.374000000000000221,-2.272951395142752684
0.375000000000000222,-2.256052476009372310
0.376000000000000223,-2.238449785870613162
0.377000000000000224,-2.220164323862894751
0.378000000000000225,-2.201217340143660994
0.379000000000000226,-2.181630303885831346
0.380000000000000226,-2.161424871958456784
0.381000000000000227,-2.140622858327895894
0.382000000000000228,-2.119246204210307294
0.383000000000000229,-2.097316949002590469
0.384000000000000230,-2.074857202015551572
0.385000000000000231,-2.051889115029942978
0.386000000000000232,-2.028434855692818672
0.387000000000000233,-2.004516581768868821
0.388000000000000234,-1.980156416258517904
0.389000000000000234,-1.955376423392089169
0.390000000000000235,-1.930198585506726072
0.391000000000000236,-1.904644780810555105
0.392000000000000237,-1.878736762036286922
0.393000000000000238,-1.852496135984485148
0.394000000000000239,-1.825944343954692739
0.395000000000000240,-1.799102643060926043
0.396000000000000241,-1.771992088426281198
0.397000000000000242,-1.744633516249825433
0.398000000000000242,-1.717047527737597390
0.399000000000000243,-1.689254473888073038
0.400000000000000244,-1.661274441121285417
0.401000000000000245,-1.633127237739697035
0.402000000000000246,-1.604832381207767611
0.403000000000000247,-1.576409086236316925
0.404000000000000248,-1.547876253656917944
0.405000000000000249,-1.519252460070736888
0.406000000000000250,-1.490555948255588570
0.407000000000000250,-1.461804618314373583
0.408000000000000251,-1.433016019547488140
0.409000000000000252,-1.404207343031384170
0.410000000000000253,-1.375395414885003609
0.411000000000000254,-1.346596690205525082
0.412000000000000255,-1.317827247654544287
0.413000000000000256,-1.289102784675631552
0.414000000000000257,-1.260438613323962453
0.415000000000000258,-1.231849656688735362
0.416000000000000258,-1.203350445888859088
0.417000000000000259,-1.174955117622500378
0.418000000000000260,-1.146677412251014605
0.419000000000000261,-1.118530672397863857
0.420000000000000262,-1.090527842043217621
0.421000000000000263,-1.062681466095046767
0.422000000000000264,-1.035003690417670486
0.423000000000000265,-1.007506262298872857
0.424000000000000266,-0.980200531337008130
0.425000000000000266,-0.953097450729576856
0.426000000000000267,-0.926207578945189125
0.427000000000000268,-0.899541081760956152
0.428000000000000269,-0.873107734647726175
0.429000000000000270,-0.846916925485891703
0.430000000000000271,-0.820977657594711419
0.431000000000000272,-0.795298553058586877
0.432000000000000273,-0.769887856333925091
0.433000000000000274,-0.744753438120691280
0.434000000000000274,-0.719902799483020273
0.435000000000000275,-0.695343076203722488
0.436000000000000276,-0.671081043357836360
0.437000000000000277,-0.647123120090752568
0.438000000000000278,-0.623475374586886621
0.439000000000000279,-0.600143529215210969
0.440000000000000280,-0.577132965838352829
0.441000000000000281,-0.554448731272381812
0.442000000000000282,-0.532095542884807426
0.443000000000000282,-0.510077794318639532
0.444000000000000283,-0.488399561330853771
0.445000000000000284,-0.467064607733912840
0.446000000000000285,-0.446076391429375552
0.447000000000000286,-0.425438070523136980
0.448000000000000287,-0.405152509512011594
0.449000000000000288,-0.385222285531972464
0.450000000000000289,-0.365649694658538471
0.451000000000000290,-0.346436758250310561
0.452000000000000290,-0.327585229326939009
0.453000000000000291,-0.309096598973176317
0.454000000000000292,-0.290972102761053675
0.455000000000000293,-0.273212727182497839
0.456000000000000294,-0.255819216085115264
0.457000000000000295,-0.238792077104145850
0.458000000000000296,-0.222131588083936654
0.459000000000000297,-0.205837803482600556
0.460000000000000298,-0.189910560753823343
0.461000000000000298,-0.174349486700110884
0.462000000000000299,-0.159154003792029847
0.463000000000000300,-0.144323336448294509
0.464000000000000301,-0.129856517271858179
0.465000000000000302,-0.115752393237410850
0.466000000000000303,-0.102009631825935657
0.467000000000000304,-0.088626727102282990
0.468000000000000305,-0.075602005731946337
0.469000000000000306,-0.062933632933434097
0.470000000000000306,-0.050619618362945415
0.471000000000000307,-0.038657821928184101
0.472000000000000308,-0.027045959528472375
0.473000000000000309,-0.015781608718442652
0.474000000000000310,-0.004862214292874345
0.475000000000000311,0.005714906209642634
0.476000000000000312,0.015952557086227403
0.477000000000000313,0.025853659134394837
0.478000000000000314,0.035421244403551565
0.479000000000000314,0.044658451034876735
0.480000000000000315,0.053568518190976390
0.481000000000000316,0.062154781076504892
0.482000000000000317,0.070420666050849581
0.483000000000000318,0.078369685833776820
0.484000000000000319,0.086005434804847652
0.485000000000000320,0.093331584397216602
0.486000000000000321,0.100351878586367599
0.487000000000000322,0.107070129474155687
0.488000000000000322,0.113490212968465135
0.489000000000000323,0.119616064558605698
0.490000000000000324,0.125451675186557532
0.491000000000000325,0.131001087213982875
0.492000000000000326,0.136268390484906077
0.493000000000000327,0.141257718483794981
0.494000000000000328,0.145973244588752299
0.495000000000000329,0.150419178419418598
0.496000000000000330,0.154599762279098274
0.497000000000000330,0.158519267690569232
0.498000000000000331,0.162181992024960003
0.499000000000000332,0.165592255222999168
0.500000000000000333,0.168754396607897927
0.501000000000000334,0.171672771789073086
0.502000000000000335,0.174351749655833110
0.503000000000000336,0.176795709460133871
0.504000000000000337,0.179009037987451991
0.505000000000000338,0.180996126814764347
0.506000000000000338,0.182761369654606598
0.507000000000000339,0.184309159784135923
0.508000000000000340,0.185643887558078535
0.509000000000000341,0.186769938004424318
0.510000000000000342,0.187691688501699816
0.511000000000000343,0.188413506536621478
0.512000000000000344,0.188939747540903313
0.513000000000000345,0.189274752805987490
0.514000000000000346,0.189422847474418898
0.515000000000000346,0.189388338606602702
0.516000000000000347,0.189175513321650474
0.517000000000000348,0.188788637010984139
0.518000000000000349,0.188231951623424404
0.519000000000000350,0.187509674020402139
0.520000000000000351,0.186625994399973461
0.521000000000000352,0.185585074788305687
0.522000000000000353,0.184391047597284169
0.523000000000000353,0.183048014246903312
0.524000000000000354,0.181560043851093283
0.525000000000000355,0.179931171965634601
0.526000000000000356,0.178165399396834762
0.527000000000000357,0.176266691069604020
0.528000000000000358,0.174238974953619452
0.529000000000000359,0.172086141046230046
0.530000000000000360,0.169812040410794923
0.531000000000000361,0.167420484269126923
0.532000000000000361,0.164915243146747437
0.533000000000000362,0.162300046069640214
0.534000000000000363,0.159578579811234522
0.535000000000000364,0.156754488188327268
0.536000000000000365,0.153831371404687056
0.537000000000000366,0.150812785441083785
0.538000000000000367,0.147702241490510255
0.539000000000000368,0.144503205437360255
0.540000000000000369,0.141219097379361697
0.541000000000000369,0.137853291191060323
0.542000000000000370,0.134409114127674062
0.543000000000000371,0.130889846468154020
0.544000000000000372,0.127298721196292430
0.545000000000000373,0.123638923718752999
0.546000000000000374,0.119913591618897586
0.547000000000000375,0.116125814445312864
0.548000000000000376,0.112278633533940381
0.549000000000000377,0.108375041862763283
0.550000000000000377,0.104417983937977965
0.551000000000000378,0.100410355710626287
0.552000000000000379,0.096355004522682475
0.553000000000000380,0.092254729081574852
0.554000000000000381,0.088112279462190329
0.555000000000000382,0.083930357135375028
0.556000000000000383,0.079711615022005577
0.557000000000000384,0.075458657571693843
0.558000000000000385,0.071174040865227411
0.559000000000000385,0.066860272739843213
0.560000000000000386,0.062519812936480068
0.561000000000000387,0.058155073268139387
0.562000000000000388,0.053768417808531754
0.563000000000000389,0.049362163100179414
0.564000000000000390,0.044938578381187887
0.565000000000000391,0.040499885829890281
0.566000000000000392,0.036048260826613797
0.567000000000000393,0.031585832231803654
0.568000000000000393,0.027114682679795221
0.569000000000000394,0.022636848887493323
0.570000000000000395,0.018154321977297737
0.571000000000000396,0.013669047813562051
0.572000000000000397,0.009182927351936909
0.573000000000000398,0.004697817000964099
0.574000000000000399,0.000215528995262160
0.575000000000000400,-0.004262168220282314
0.576000000000000401,-0.008733549595930678
0.577000000000000401,-0.013196933072698114
0.578000000000000402,-0.017650679168714302
0.579000000000000403,-0.022093190556878806
0.580000000000000404,-0.026522911634374181
0.581000000000000405,-0.030938328084531140
0.582000000000000406,-0.035337966431569813
0.583000000000000407,-0.039720393588709629
0.584000000000000408,-0.044084216400111786
0.585000000000000409,-0.048428081177136081
0.586000000000000409,-0.052750673229357468
0.587000000000000410,-0.057050716390774268
0.588000000000000411,-0.061326972541638027
0.589000000000000412,-0.065578241126318854
0.590000000000000413,-0.069803358667594267
0.591000000000000414,-0.074001198277760374
0.592000000000000415,-0.078170669166926429
0.593000000000000416,-0.082310716148865509
0.594000000000000417,-0.086420319144764585
0.595000000000000417,-0.090498492685211013
0.596000000000000418,-0.094544285410746956
0.597000000000000419,-0.098556779571303349
0.598000000000000420,-0.102535090524820280
0.599000000000000421,-0.106478366235343833
0.600000000000000422,-0.110385786770891586
0.601000000000000423,-0.114256563801343039
0.602000000000000424,-0.118089940096639534
0.603000000000000425,-0.121885189025533511
0.604000000000000425,-0.125641614055128303
0.605000000000000426,-0.129358548251449518
0.606000000000000427,-0.133035353781283672
0.607000000000000428,-0.136671421415459904
0.608000000000000429,-0.140266170033850640
0.609000000000000430,-0.143819046132206807
0.610000000000000431,-0.147329523331096335
0.611000000000000432,-0.150797101887076901
0.612000000000000433,-0.154221308206289182
0.613000000000000433,-0.157601694360662403
0.614000000000000434,-0.160937837606852513
0.615000000000000435,-0.164229339908091576
0.616000000000000436,-0.167475827459086513
