# grapheneoxide_BSAI5
# h[nm],U(h)[kJ/mol]
0.149999999999999994,122.849420515030217871
0.150999999999999995,120.613999310951470534
0.151999999999999996,118.732543993596522114
0.152999999999999997,116.889269662942822947
0.153999999999999998,114.985332592488560977
0.154999999999999999,113.020280211815176585
0.156000000000000000,111.028441013643913493
0.157000000000000001,109.047754438418039058
0.158000000000000002,107.106923547696140986
0.159000000000000002,105.222252921515064372
0.160000000000000003,103.399060792593076030
0.161000000000000004,101.634780460929619039
0.162000000000000005,99.922236536913985105
0.163000000000000006,98.252397604412948340
0.164000000000000007,96.616370213683637758
0.165000000000000008,95.006643346492836599
0.166000000000000009,93.417704944930065381
0.167000000000000010,91.846188811141203701
0.168000000000000010,90.290706360465236457
0.169000000000000011,88.751494795726486586
0.170000000000000012,87.229983804256008284
0.171000000000000013,85.728353736410383590
0.172000000000000014,84.249132775123285910
0.173000000000000015,82.794860130755694172
0.174000000000000016,81.367826895354852468
0.175000000000000017,79.969895359761054010
0.176000000000000018,78.602390571981544554
0.177000000000000018,77.266053876560448543
0.178000000000000019,75.961046357014495811
0.179000000000000020,74.686989847092519312
0.180000000000000021,73.443033944540417224
0.181000000000000022,72.227938835995061595
0.182000000000000023,71.040165413587288867
0.183000000000000024,69.877965913170669410
0.184000000000000025,68.739469983960816535
0.185000000000000026,67.622762619327843936
0.186000000000000026,66.525951690195483934
0.187000000000000027,65.447223907794480624
0.188000000000000028,64.384888903859888387
0.189000000000000029,63.337411769409698081
0.190000000000000030,62.303434861282923407
0.191000000000000031,61.281789995503729074
0.192000000000000032,60.271502325881520790
0.193000000000000033,59.271787281517774204
0.194000000000000034,58.282041932259765815
0.195000000000000034,57.301832087888953993
0.196000000000000035,56.330876333086294494
0.197000000000000036,55.369028070964624533
0.198000000000000037,54.416256505235821805
0.199000000000000038,53.472627344252870785
0.200000000000000039,52.538283866261316746
0.201000000000000040,51.613428849242680485
0.202000000000000041,50.698307744115446383
0.203000000000000042,49.793193358818072625
0.204000000000000042,48.898372223914755352
0.205000000000000043,48.014132728019625063
0.206000000000000044,47.140755043102942068
0.207000000000000045,46.278502804786583624
0.208000000000000046,45.427616469938058685
0.209000000000000047,44.588308241951757793
0.210000000000000048,43.760758431714464223
0.211000000000000049,42.945113108034909999
0.212000000000000050,42.141482883961259631
0.213000000000000050,41.349942683691246259
0.214000000000000051,40.570532337565026637
0.215000000000000052,39.803257858909709910
0.216000000000000053,39.048093265385411144
0.217000000000000054,38.304982818191170679
0.218000000000000055,37.573843564370619674
0.219000000000000056,36.854568079964039384
0.220000000000000057,36.147027324436805884
0.221000000000000058,35.451073529321334377
0.222000000000000058,34.766543056057379601
0.223000000000000059,34.093259169404511510
0.224000000000000060,33.431034683377703232
0.225000000000000061,32.779674446330105297
0.226000000000000062,32.138977640520103307
0.227000000000000063,31.508739879234770598
0.228000000000000064,30.888755091305405642
0.229000000000000065,30.278817188673180283
0.230000000000000066,29.678721517589188750
0.231000000000000066,29.088266098120509895
0.232000000000000067,28.507252659947006634
0.233000000000000068,27.935487485041893052
0.234000000000000069,27.372782069804770799
0.235000000000000070,26.818953620628992240
0.236000000000000071,26.273825397808217019
0.237000000000000072,25.737226923183925464
0.238000000000000073,25.208994067071841982
0.239000000000000073,24.688969029840713176
0.240000000000000074,24.177000233100848448
0.241000000000000075,23.672942134848806717
0.242000000000000076,23.176654982146693840
0.243000000000000077,22.688004514031149483
0.244000000000000078,22.206861626384689856
0.245000000000000079,21.733102009486252371
0.246000000000000080,21.266605767918811409
0.247000000000000081,20.807257031467525366
0.248000000000000081,20.354943564612771212
0.249000000000000082,19.909556381221740651
0.250000000000000111,19.470989370082691039
0.251000000000000112,19.039138936015518766
0.252000000000000113,18.613903660438367638
0.253000000000000114,18.195183984477964145
0.254000000000000115,17.782881916982109516
0.255000000000000115,17.376900769129996149
0.256000000000000116,16.977144916738200919
0.257000000000000117,16.583519590827325629
0.258000000000000118,16.195930696544973415
0.259000000000000119,15.814284660131033178
0.260000000000000120,15.438488303259799039
0.261000000000000121,15.068448743796810874
0.262000000000000122,14.704073321761232052
0.263000000000000123,14.345269549085902128
0.264000000000000123,13.991945081610438706
0.265000000000000124,13.644007711626112922
0.266000000000000125,13.301365379209595829
0.267000000000000126,12.963926200532942090
0.268000000000000127,12.631598511314996003
0.269000000000000128,12.304290923582863471
0.270000000000000129,11.981912393935882477
0.271000000000000130,11.664372301546874766
0.272000000000000131,11.351580534193729477
0.273000000000000131,11.043447580684556897
0.274000000000000132,10.739884628120915266
0.275000000000000133,10.440803662532335494
0.276000000000000134,10.146117571510536948
0.277000000000000135,9.855740247571421975
0.278000000000000136,9.569586691074503548
0.279000000000000137,9.287573111632967837
0.280000000000000138,9.009617027051017857
0.281000000000000139,8.735637358927050400
0.282000000000000139,8.465554524161765571
0.283000000000000140,8.199290521707533586
0.284000000000000141,7.936769013989540156
0.285000000000000142,7.677915402519206900
0.286000000000000143,7.422656897305995649
0.287000000000000144,7.170922579755003134
0.288000000000000145,6.922643458813206863
0.289000000000000146,6.677752520198955821
0.290000000000000147,6.436184768614273466
0.291000000000000147,6.197877262900762574
0.292000000000000148,5.962769144154734136
0.293000000000000149,5.730801656867967608
0.294000000000000150,5.501918163205409940
0.295000000000000151,5.276064150571733613
0.296000000000000152,5.053187232654385852
0.297000000000000153,4.833237144162124466
0.298000000000000154,4.616165729504849935
0.299000000000000155,4.401926925683607550
0.300000000000000155,4.190476739678740792
0.301000000000000156,3.981773220639740263
0.302000000000000157,3.775776427192278017
0.303000000000000158,3.572448390187344724
0.304000000000000159,3.371753071223296594
0.305000000000000160,3.173656317275356908
0.306000000000000161,2.978125811768208120
0.307000000000000162,2.785131022426251768
0.308000000000000163,2.594643146233182929
0.309000000000000163,2.406635051827745286
0.310000000000000164,2.221081219656153571
0.311000000000000165,2.037957680194018906
0.312000000000000166,1.857241950541688169
0.313000000000000167,1.678912969686948475
0.314000000000000168,1.502951032718317981
0.315000000000000169,1.329337724260478470
0.316000000000000170,1.158055851391326829
0.317000000000000171,0.989089376287547006
0.318000000000000171,0.822423348832699519
0.319000000000000172,0.658043839408376519
0.320000000000000173,0.495937872075982944
0.321000000000000174,0.336093358343115045
0.322000000000000175,0.178499031695079413
0.323000000000000176,0.023144383059023797
0.324000000000000177,-0.129980402645194004
0.325000000000000178,-0.280884508725906201
0.326000000000000179,-0.429576547583786994
0.327000000000000179,-0.576064620102631708
0.328000000000000180,-0.720356373462515021
0.329000000000000181,-0.862459057282378927
0.330000000000000182,-1.002379578010377914
0.331000000000000183,-1.140124551491160876
0.332000000000000184,-1.275700353649391161
0.333000000000000185,-1.409113169238725316
0.334000000000000186,-1.540369038614943786
0.335000000000000187,-1.669473902500626439
0.336000000000000187,-1.796433644717469802
0.337000000000000188,-1.921254132869872011
0.338000000000000189,-2.043941256971337772
0.339000000000000190,-2.164500966011983607
0.340000000000000191,-2.282939302471906018
0.341000000000000192,-2.399262434791451959
0.342000000000000193,-2.513476687814910626
0.343000000000000194,-2.625588571229460655
0.344000000000000195,-2.735604806025655922
0.345000000000000195,-2.843532349010689408
0.346000000000000196,-2.949378415408895560
0.347000000000000197,-3.053150499588196176
0.348000000000000198,-3.154856393953930471
0.349000000000000199,-3.254504206054632753
0.350000000000000200,-3.352102373946736602
0.351000000000000201,-3.447659679867455473
0.352000000000000202,-3.541185262266877576
0.353000000000000203,-3.632688626252016384
0.354000000000000203,-3.722179652496987678
0.355000000000000204,-3.809668604674217640
0.356000000000000205,-3.895166135462825086
0.357000000000000206,-3.978683291190816984
0.358000000000000207,-4.060231515167846084
0.359000000000000208,-4.139822649765921625
0.360000000000000209,-4.217468937305258514
0.361000000000000210,-4.293183019802152778
0.362000000000000210,-4.366977937635823537
0.363000000000000211,-4.438867127190340156
0.364000000000000212,-4.508864417527442825
0.365000000000000213,-4.576984026145131779
0.366000000000000214,-4.643240553876276877
0.367000000000000215,-4.707648978980372156
0.368000000000000216,-4.770224650480836992
0.369000000000000217,-4.830983280798775148
0.370000000000000218,-4.889940937733399551
0.371000000000000218,-4.947114035837680390
0.372000000000000219,-5.002519327236816693
0.373000000000000220,-5.056173891935702436
0.374000000000000221,-5.108095127660108759
0.375000000000000222,-5.158300739274936930
0.376000000000000223,-5.206808727821785610
0.377000000000000224,-5.253637379216082870
0.378000000000000225,-5.298805252643079555
0.379000000000000226,-5.342331168690213516
0.380000000000000226,-5.384234197252217413
0.381000000000000227,-5.424533645243402091
0.382000000000000228,-5.463249044150678913
0.383000000000000229,-5.500400137458897554
0.384000000000000230,-5.536006867978953139
0.385000000000000231,-5.570089365107683932
0.386000000000000232,-5.602667932046953680
0.387000000000000233,-5.633763033008234444
0.388000000000000234,-5.663395280427335976
0.389000000000000234,-5.691585422212904533
0.390000000000000235,-5.718354329050694851
0.391000000000000236,-5.743722981784605608
0.392000000000000237,-5.767712458894004079
0.393000000000000238,-5.790343924085842531
0.394000000000000239,-5.811638614018653115
0.395000000000000240,-5.831617826174608332
0.396000000000000241,-5.850302906894484067
0.397000000000000242,-5.867715239589406551
0.398000000000000242,-5.883876233142224521
0.399000000000000243,-5.898807310510158608
0.400000000000000244,-5.912529897539668511
0.401000000000000245,-5.925065412003304388
0.402000000000000246,-5.936435252867434897
0.403000000000000247,-5.946660789799004476
0.404000000000000248,-5.955763352918459930
0.405000000000000249,-5.963764222805286508
0.406000000000000250,-5.970684620761717909
0.407000000000000250,-5.976545699339590456
0.408000000000000251,-5.981368533134467036
0.409000000000000252,-5.985174109850530222
0.410000000000000253,-5.987983321639119616
0.411000000000000254,-5.989816956713175600
0.412000000000000255,-5.990695691239186438
0.413000000000000256,-5.990640081507864423
0.414000000000000257,-5.989670556383991595
0.415000000000000258,-5.987807410035709488
0.416000000000000258,-5.985070794942716432
0.417000000000000259,-5.981480715182692087
0.418000000000000260,-5.977057019994647113
0.419000000000000261,-5.971819397617649017
0.420000000000000262,-5.965787369402909768
0.421000000000000263,-5.958980284196996102
0.422000000000000264,-5.951417312993434017
0.423000000000000265,-5.943117443849878612
0.424000000000000266,-5.934099477067701578
0.425000000000000266,-5.924382020630391210
0.426000000000000267,-5.913983485897285952
0.427000000000000268,-5.902922083548665100
0.428000000000000269,-5.891215819778095053
0.429000000000000270,-5.878882492727922404
0.430000000000000271,-5.865939689163292670
0.431000000000000272,-5.852404781380372789
0.432000000000000273,-5.838294924343924386
0.433000000000000274,-5.823627053049540869
0.434000000000000274,-5.808417880105603004
0.435000000000000275,-5.792683893530007566
0.436000000000000276,-5.776441354756642887
0.437000000000000277,-5.759706296846436757
0.438000000000000278,-5.742494522897873210
0.439000000000000279,-5.724821604651830320
0.440000000000000280,-5.706702881285378837
0.441000000000000281,-5.688153458389427541
0.442000000000000282,-5.669188207124959966
0.443000000000000282,-5.649821763552513865
0.444000000000000283,-5.630068528129777761
0.445000000000000284,-5.609942665372025239
0.446000000000000285,-5.589458103670144951
0.447000000000000286,-5.568628535261233026
0.448000000000000287,-5.547467416346397506
0.449000000000000288,-5.525987967350912911
0.450000000000000289,-5.504203173321469578
0.451000000000000290,-5.482125784455650575
0.452000000000000290,-5.459768316758657036
0.453000000000000291,-5.437143052822382749
0.454000000000000292,-5.414262042722039148
0.455000000000000293,-5.391137105025571863
0.456000000000000294,-5.367779827911212998
0.457000000000000295,-5.344201570388555034
0.458000000000000296,-5.320413463618576699
0.459000000000000297,-5.296426412328270494
0.460000000000000298,-5.272251096315394570
0.461000000000000298,-5.247897972039170078
0.462000000000000299,-5.223377274292650974
0.463000000000000300,-5.198699017952669088
0.464000000000000301,-5.173872999803386108
0.465000000000000302,-5.148908800429444099
0.466000000000000303,-5.123815786174891862
0.467000000000000304,-5.098603111164193180
0.468000000000000305,-5.073279719381528885
0.469000000000000306,-5.047854346804912851
0.470000000000000306,-5.022335523591674900
0.471000000000000307,-4.996731576311724154
0.472000000000000308,-4.971050630225540168
0.473000000000000309,-4.945300611603508756
0.474000000000000310,-4.919489250083524112
0.475000000000000311,-4.893624081063824072
0.476000000000000312,-4.867712448128175495
0.477000000000000313,-4.841761505500430829
0.478000000000000314,-4.815778220525784192
0.479000000000000314,-4.789769376176024274
0.480000000000000315,-4.763741573576146138
0.481000000000000316,-4.737701234549881235
0.482000000000000317,-4.711654604181637396
0.483000000000000318,-4.685607753392566188
0.484000000000000319,-4.659566581528449269
0.485000000000000320,-4.633536818957247228
0.486000000000000321,-4.607524029674192612
0.487000000000000322,-4.581533613912405656
0.488000000000000322,-4.555570810757009426
0.489000000000000323,-4.529640700761028427
0.490000000000000324,-4.503748208561079380
0.491000000000000325,-4.477898105491257219
0.492000000000000326,-4.452095012193431955
0.493000000000000327,-4.426343401222521123
0.494000000000000328,-4.400647599645029828
0.495000000000000329,-4.375011791629562552
0.496000000000000330,-4.349440021027746184
0.497000000000000330,-4.323936193944438067
0.498000000000000331,-4.298504081295672741
0.499000000000000332,-4.273147321353429007
0.500000000000000333,-4.247869422275867279
0.501000000000000334,-4.222673764621960757
0.502000000000000335,-4.197563603849572722
0.503000000000000336,-4.172542072795918600
0.504000000000000337,-4.147612184139488178
0.505000000000000338,-4.122776832842555805
0.506000000000000338,-4.098038798573456987
0.507000000000000339,-4.073400748107822267
0.508000000000000340,-4.048865237708011655
0.509000000000000341,-4.024434715480174063
0.510000000000000342,-4.000111523708094197
0.511000000000000343,-3.975897901163414794
0.512000000000000344,-3.951795985391513888
0.513000000000000345,-3.927807814972609890
0.514000000000000346,-3.903935331757614424
0.515000000000000346,-3.880180383078200457
0.516000000000000347,-3.856544723930746876
0.517000000000000348,-3.833030019133815358
0.518000000000000349,-3.809637845458690553
0.519000000000000350,-3.786369693732843267
0.520000000000000351,-3.763226970915867220
0.521000000000000352,-3.740211002147822761
0.522000000000000353,-3.717323032769610514
0.523000000000000353,-3.694564230315275921
0.524000000000000354,-3.671935686476090588
0.525000000000000355,-3.649438419036217685
0.526000000000000356,-3.627073373779890808
0.527000000000000357,-3.604841426370042345
0.528000000000000358,-3.582743384198239234
0.529000000000000359,-3.560779988206015823
0.530000000000000360,-3.538951914677428867
0.531000000000000361,-3.517259777002976762
0.532000000000000361,-3.495704127414822615
0.533000000000000362,-3.474285458693385120
0.534000000000000363,-3.453004205845358054
0.535000000000000364,-3.431860747753242347
0.536000000000000365,-3.410855408796448440
0.537000000000000366,-3.389988460444131047
0.538000000000000367,-3.369260122819799363
0.539000000000000368,-3.348670566237951451
0.540000000000000369,-3.328219912712742090
0.541000000000000369,-3.307908237438998977
0.542000000000000370,-3.287735570245604144
0.543000000000000371,-3.267701897021566104
0.544000000000000372,-3.247807161114876440
0.545000000000000373,-3.228051264704430601
0.546000000000000374,-3.208434070145159467
0.547000000000000375,-3.188955401286647895
0.548000000000000376,-3.169615044765466738
0.549000000000000377,-3.150412751271430167
0.550000000000000377,-3.131348236788054518
0.551000000000000378,-3.112421183807442482
0.552000000000000379,-3.093631242519919056
0.553000000000000380,-3.074978031978591986
0.554000000000000381,-3.056461141239168455
0.555000000000000382,-3.038080130475344642
0.556000000000000383,-3.019834532069906263
0.557000000000000384,-3.001723851682027711
0.558000000000000385,-2.983747569290858159
0.559000000000000385,-2.965905140215838731
0.560000000000000386,-2.948195996113979866
0.561000000000000387,-2.930619545954397775
0.562000000000000388,-2.913175176970423941
0.563000000000000389,-2.895862255589601197
0.564000000000000390,-2.878680128341849720
0.565000000000000391,-2.861628122746124880
0.566000000000000392,-2.844705548175860077
0.567000000000000393,-2.827911696703548472
0.568000000000000393,-2.811245843924691012
0.569000000000000394,-2.794707249761493983
0.570000000000000395,-2.778295159246623403
0.571000000000000396,-2.762008803287243630
0.572000000000000397,-2.745847399409790057
0.573000000000000398,-2.729810152485629082
0.574000000000000399,-2.713896255438061456
0.575000000000000400,-2.698104889930859507
0.576000000000000401,-2.682435227038693082
0.577000000000000401,-2.666886427899812340
0.578000000000000402,-2.651457644351153053
0.579000000000000403,-2.636148019546273868
0.580000000000000404,-2.620956688556440817
0.581000000000000405,-2.605882778955042944
0.582000000000000406,-2.590925411385776034
0.583000000000000407,-2.576083700114778274
0.584000000000000408,-2.561356753567094025
0.585000000000000409,-2.546743674847703254
0.586000000000000409,-2.532243562247418200
0.587000000000000410,-2.517855509733977648
0.588000000000000411,-2.503578607428525338
0.589000000000000412,-2.489411942067893513
0.590000000000000413,-2.475354597452811500
0.591000000000000414,-2.461405654882457217
0.592000000000000415,-2.447564193575548774
0.593000000000000416,-2.433829291078246193
0.594000000000000417,-2.420200023659144328
0.595000000000000417,-2.406675466691695409
0.596000000000000418,-2.393254695024128686
0.597000000000000419,-2.379936783337385009
0.598000000000000420,-2.366720806491071194
0.599000000000000421,-2.353605839857888959
0.600000000000000422,-2.340590959646654312
0.601000000000000423,-2.327675243214202716
0.602000000000000424,-2.314857769366449602
0.603000000000000425,-2.302137618648790074
0.604000000000000425,-2.289513873626106921
0.605000000000000426,-2.276985619152611662
0.606000000000000427,-2.264551942631793935
0.607000000000000428,-2.252211934266554305
0.608000000000000429,-2.239964687300004531
0.609000000000000430,-2.227809298246853587
0.610000000000000431,-2.215744867115858163
0.611000000000000432,-2.203770497623380287
0.612000000000000433,-2.191885297398315835
0.613000000000000433,-2.180088378178644426
