# grapheneoxide_ACYLSYRINGYL-AC
# h[nm],U(h)[kJ/mol]
0.149999999999999994,161.047499648603718470
0.150999999999999995,157.499038034901730043
0.151999999999999996,155.243200224596535008
0.152999999999999997,153.242073191162830881
0.153999999999999998,151.111576886948540732
0.154999999999999999,148.780500768540321133
0.156000000000000000,146.303370231984786187
0.157000000000000001,143.765161097990500139
0.158000000000000002,141.238733081933844460
0.159000000000000002,138.770847808853488914
0.160000000000000003,136.382331585569232857
0.161000000000000004,134.074098081791561299
0.162000000000000005,131.834564381977997982
0.163000000000000006,129.646291397466683293
0.164000000000000007,127.491004548933076990
0.165000000000000008,125.352867242519465663
0.166000000000000009,123.220226873126307510
0.167000000000000010,121.086185010847401600
0.168000000000000010,118.948357425106706842
0.169000000000000011,116.808145516731158864
0.170000000000000012,114.669773964968655378
0.171000000000000013,112.539279744374837833
0.172000000000000014,110.423575184658290027
0.173000000000000015,108.329656632731897048
0.174000000000000016,106.263991368834084028
0.175000000000000017,104.232087789444605619
0.176000000000000018,102.238235755626789114
0.177000000000000018,100.285393440231175077
0.178000000000000019,98.375192097405161462
0.179000000000000020,96.508029266601241147
0.180000000000000021,94.683222649358441458
0.181000000000000022,92.899200196193206125
0.182000000000000023,91.153706018554856882
0.183000000000000024,89.444006032239826709
0.184000000000000025,87.767081365471156573
0.185000000000000026,86.119801293568102096
0.186000000000000026,84.499070667835013637
0.187000000000000027,82.901949442036396931
0.188000000000000028,81.325743971961372836
0.189000000000000029,79.768071312600724809
0.190000000000000030,78.226898823503717040
0.191000000000000031,76.700562085217399044
0.192000000000000032,75.187764499396820383
0.193000000000000033,73.687562060166825972
0.194000000000000034,72.199336706518394635
0.195000000000000034,70.722761449151079205
0.196000000000000035,69.257760156174384747
0.197000000000000036,67.804464518195715073
0.198000000000000037,66.363170324571186143
0.199000000000000038,64.934294792068115498
0.200000000000000039,63.518336311904668889
0.201000000000000040,62.115837632981524052
0.202000000000000041,60.727353185749151976
0.203000000000000042,59.353420976810454590
0.204000000000000042,57.994539250615922299
0.205000000000000043,56.651147921053926382
0.206000000000000044,55.323614620479318660
0.207000000000000045,54.012225093892240579
0.208000000000000046,52.717177578071996891
0.209000000000000047,51.438580745657567661
0.210000000000000048,50.176454758523178157
0.211000000000000049,48.930734959460593814
0.212000000000000050,47.701277732481813132
0.213000000000000050,46.487868076605764145
0.214000000000000051,45.290228462714885893
0.215000000000000052,44.108028575246898129
0.216000000000000053,42.940895577759043533
0.217000000000000054,41.788424581754547660
0.218000000000000055,40.650189039914138789
0.219000000000000056,39.525750826660292603
0.220000000000000057,38.414669809701806003
0.221000000000000058,37.316512755031553183
0.222000000000000058,36.230861444146796657
0.223000000000000059,35.157319915610010241
0.224000000000000060,34.095520773187701025
0.225000000000000061,33.045130529562719346
0.226000000000000062,32.005853977980720515
0.227000000000000063,30.977437604221496059
0.228000000000000064,29.959672068109000520
0.229000000000000065,28.952393797560450395
0.230000000000000066,27.955485749144958874
0.231000000000000066,26.968877397502808435
0.232000000000000067,25.992544022024837602
0.233000000000000068,25.026505363155585826
0.234000000000000069,24.070823722820847479
0.235000000000000070,23.125601584033017133
0.236000000000000071,22.190978823933466657
0.237000000000000072,21.267129592607311395
0.238000000000000073,20.354258927161186676
0.239000000000000073,19.452599166976170864
0.240000000000000074,18.562406231900769882
0.241000000000000075,17.683955820593894259
0.242000000000000076,16.817539581391947934
0.243000000000000077,15.963461303077801645
0.244000000000000078,15.122033167875141402
0.245000000000000079,14.293572103962713271
0.246000000000000080,13.478396269874888702
0.247000000000000081,12.676821698382273240
0.248000000000000081,11.889159122880892383
0.249000000000000082,11.115711004995024069
0.250000000000000111,10.356768778043978330
0.251000000000000112,9.612610317258990733
0.252000000000000113,8.883497644170553542
0.253000000000000114,8.169674869431425179
0.254000000000000115,7.471366375488403655
0.255000000000000115,6.788775237971027998
0.256000000000000116,6.122081882414124543
0.257000000000000117,5.471442970966545083
0.258000000000000118,4.836990512047210977
0.259000000000000119,4.218831184475824614
0.260000000000000120,3.617045866414733801
0.261000000000000121,3.031689358494470632
0.262000000000000122,2.462790289738831184
0.263000000000000123,1.910351194342038594
0.264000000000000123,1.374348746959518808
0.265000000000000124,0.854734143941981772
0.266000000000000125,0.351433617849970736
0.267000000000000126,-0.135650927380402908
0.268000000000000127,-0.606641173107991705
0.269000000000000128,-1.061681546741835902
0.270000000000000129,-1.500938298510138935
0.271000000000000130,-1.924598505783401858
0.272000000000000131,-2.332869016044854416
0.273000000000000131,-2.725975339108793527
0.274000000000000132,-3.104160498657136724
0.275000000000000133,-3.467683852606916695
0.276000000000000134,-3.816819891244183083
0.277000000000000135,-4.151857021469308684
0.278000000000000136,-4.473096344903779276
0.279000000000000137,-4.780850437012239773
0.280000000000000138,-5.075442133802225086
0.281000000000000139,-5.357203332082754343
0.282000000000000139,-5.626473808693373435
0.283000000000000140,-5.883600063562790083
0.284000000000000141,-6.128934190921692782
0.285000000000000142,-6.362832782481262051
0.286000000000000143,-6.585655865897956929
0.287000000000000144,-6.797765881377999975
0.288000000000000145,-6.999526698833511418
0.289000000000000146,-7.191302677584483938
0.290000000000000147,-7.373457770210949391
0.291000000000000147,-7.546354671793793045
0.292000000000000148,-7.710354015444055520
0.293000000000000149,-7.865813614706182122
0.294000000000000150,-8.013087753132129620
0.295000000000000151,-8.152526521058856446
0.296000000000000152,-8.284475199380468169
0.297000000000000153,-8.409273689888804526
0.298000000000000154,-8.527255991559673731
0.299000000000000155,-8.638749721987233343
0.300000000000000155,-8.744075683013642575
0.301000000000000156,-8.843547469464969168
0.302000000000000157,-8.937471119786135176
0.303000000000000158,-9.026144807266160086
0.304000000000000159,-9.109858570459431704
0.305000000000000160,-9.188894081337565467
0.306000000000000161,-9.263524449649590764
0.307000000000000162,-9.334014061923525674
0.308000000000000163,-9.400618453509581585
0.309000000000000163,-9.463584212043400612
0.310000000000000164,-9.523148910695592662
0.311000000000000165,-9.579541069570527867
0.312000000000000166,-9.632980143622623004
0.313000000000000167,-9.683676535470310043
0.314000000000000168,-9.731831631506944191
0.315000000000000169,-9.777637859732585923
0.316000000000000170,-9.821278767760501793
0.317000000000000171,-9.862929119486389951
0.318000000000000171,-9.902755008946776627
0.319000000000000172,-9.940913989934824002
0.320000000000000173,-9.977555219985870139
0.321000000000000174,-10.012819617392125338
0.322000000000000175,-10.046840029954678286
0.323000000000000176,-10.079741414230920071
0.324000000000000177,-10.111641024087159479
0.325000000000000178,-10.142648607417838136
0.326000000000000179,-10.172866609945790728
0.327000000000000179,-10.202390385070177814
0.328000000000000180,-10.231308408781586650
0.329000000000000181,-10.259702498716100294
0.330000000000000182,-10.287648036471454205
0.331000000000000183,-10.315214192360048884
0.332000000000000184,-10.342464151823000051
0.333000000000000185,-10.369455342778936213
0.334000000000000186,-10.396239663229167149
0.335000000000000187,-10.422863708487273726
0.336000000000000187,-10.449368997446963903
0.337000000000000188,-10.475792197345334955
0.338000000000000189,-10.502165346521866951
0.339000000000000190,-10.528516074713980544
0.340000000000000191,-10.554867820469260309
0.341000000000000192,-10.581240045292769736
0.342000000000000193,-10.607648444183489289
0.343000000000000194,-10.634105152249130555
0.344000000000000195,-10.660618947120774180
0.345000000000000195,-10.687195446921204933
0.346000000000000196,-10.713837303569638593
0.347000000000000197,-10.740544391234585930
0.348000000000000198,-10.767313989772832272
0.349000000000000199,-10.794140963017973434
0.350000000000000200,-10.821017931805652523
0.351000000000000201,-10.847935441645010002
0.352000000000000202,-10.874882124966566366
0.353000000000000203,-10.901844857896668017
0.354000000000000203,-10.928808911526573411
0.355000000000000204,-10.955758097661377093
0.356000000000000205,-10.982674909049583434
0.357000000000000206,-11.009540654109127189
0.358000000000000207,-11.036335586178367407
0.359000000000000208,-11.063039027333569919
0.360000000000000209,-11.089629486825545612
0.361000000000000210,-11.116084774198091267
0.362000000000000210,-11.142382107160820226
0.363000000000000211,-11.168498214296937121
0.364000000000000212,-11.194409432694442330
0.365000000000000213,-11.220091800595946907
0.366000000000000214,-11.245521145168316579
0.367000000000000215,-11.270673165498608981
0.368000000000000216,-11.295523510927663935
0.369000000000000217,-11.320047854836271739
0.370000000000000218,-11.344221964002603187
0.371000000000000218,-11.368021763652119915
0.372000000000000219,-11.391423398323652805
0.373000000000000220,-11.414403288677023696
0.374000000000000221,-11.436938184368882432
0.375000000000000222,-11.459005213124241251
0.376000000000000223,-11.480581926132057191
0.377000000000000224,-11.501646339892765525
0.378000000000000225,-11.522176974645846670
0.379000000000000226,-11.542152889504802005
0.380000000000000226,-11.561553714426249684
0.381000000000000227,-11.580359679138412687
0.382000000000000228,-11.598551639153418691
0.383000000000000229,-11.616111098985857808
0.384000000000000230,-11.633020232698511265
0.385000000000000231,-11.649261901894305993
0.386000000000000232,-11.664819671271203561
0.387000000000000233,-11.679677821854854258
0.388000000000000234,-11.693821362021157739
0.389000000000000234,-11.707236036418805725
0.390000000000000235,-11.719908332898892667
0.391000000000000236,-11.731825487556545085
0.392000000000000237,-11.742975487986340610
0.393000000000000238,-11.753347074851090426
0.394000000000000239,-11.762929741860164157
0.395000000000000240,-11.771713734251266104
0.396000000000000241,-11.779690045866477277
0.397000000000000242,-11.786850414910462703
0.398000000000000242,-11.793187318476078929
0.399000000000000243,-11.798693965919643034
0.400000000000000244,-11.803364291165305389
0.401000000000000245,-11.807192944015167058
0.402000000000000246,-11.810175280538910414
0.403000000000000247,-11.812307352614059397
0.404000000000000248,-11.813585896685053100
0.405000000000000249,-11.814008321806870327
0.406000000000000250,-11.813572697035922943
0.407000000000000250,-11.812277738228694091
0.408000000000000251,-11.810122794305694782
0.409000000000000252,-11.807107833036024402
0.410000000000000253,-11.803233426395136618
0.411000000000000254,-11.798500735546221918
0.412000000000000255,-11.792911495492951701
0.413000000000000256,-11.786467999449426358
0.414000000000000257,-11.779173082970414654
0.415000000000000258,-11.771030107883300175
0.416000000000000258,-11.762042946060583759
0.417000000000000259,-11.752215963070014482
0.418000000000000260,-11.741554001737306123
0.419000000000000261,-11.730062365654369216
0.420000000000000262,-11.717746802664240846
0.421000000000000263,-11.704613488352105577
0.422000000000000264,-11.690669009569674586
0.423000000000000265,-11.675920348019065642
0.424000000000000266,-11.660374863920214494
0.425000000000000266,-11.644040279784382719
0.426000000000000267,-11.626924664314966407
0.427000000000000268,-11.609036416455129626
0.428000000000000269,-11.590384249600479194
0.429000000000000270,-11.570977175993670372
0.430000000000000271,-11.550824491316390663
0.431000000000000272,-11.529935759493145753
0.432000000000000273,-11.508320797719852280
0.433000000000000274,-11.485989661729229638
0.434000000000000274,-11.462952631303867435
0.435000000000000275,-11.439220196046791855
0.436000000000000276,-11.414803041418378982
0.437000000000000277,-11.389712035047409699
0.438000000000000278,-11.363958213323353874
0.439000000000000279,-11.337552768275980242
0.440000000000000280,-11.310507034747493194
0.441000000000000281,-11.282832477861822085
0.442000000000000282,-11.254540680794907104
0.443000000000000282,-11.225643332848830980
0.444000000000000283,-11.196152217832576525
0.445000000000000284,-11.166079202750898602
0.446000000000000285,-11.135436226802724491
0.447000000000000286,-11.104235290689794979
0.448000000000000287,-11.072488446235448478
0.449000000000000288,-11.040207786313557037
0.450000000000000289,-11.007405435086527135
0.451000000000000290,-10.974093538551253246
0.452000000000000290,-10.940284255391528490
0.453000000000000291,-10.905989748134617301
0.454000000000000292,-10.871222174609973976
0.455000000000000293,-10.835993679707176085
0.456000000000000294,-10.800316387430228815
0.457000000000000295,-10.764202393245053457
0.458000000000000296,-10.727663756716440346
0.459000000000000297,-10.690712494431011237
0.460000000000000298,-10.653360573201975825
0.461000000000000298,-10.615619903551799297
0.462000000000000299,-10.577502333468208562
0.463000000000000300,-10.539019642429229506
0.464000000000000301,-10.500183535692576342
0.465000000000000302,-10.461005638844643073
0.466000000000000303,-10.421497492604194335
0.467000000000000304,-10.381670547875918587
0.468000000000000305,-10.341536161048583864
0.469000000000000306,-10.301105589532879137
0.470000000000000306,-10.260389987533724110
0.471000000000000307,-10.219400402051622478
0.472000000000000308,-10.178147769108093712
0.473000000000000309,-10.136642910189660682
0.474000000000000310,-10.094896528905122679
0.475000000000000311,-10.052919207850855798
0.476000000000000312,-10.010721405678776108
0.477000000000000313,-9.968313454361588555
0.478000000000000314,-9.925705556650072481
0.479000000000000314,-9.882907783717158168
0.480000000000000315,-9.839930072983362308
0.481000000000000316,-9.796782226118610382
0.482000000000000317,-9.753473907214990746
0.483000000000000318,-9.710014641125493284
0.484000000000000319,-9.666413811963527891
0.485000000000000320,-9.622680661758218790
0.486000000000000321,-9.578824289260484903
0.487000000000000322,-9.534853648894989320
0.488000000000000322,-9.490777549852989381
0.489000000000000323,-9.446604655321532817
0.490000000000000324,-9.402343481843976392
0.491000000000000325,-9.358002398807439448
0.492000000000000326,-9.313589628052371339
0.493000000000000327,-9.269113243600013874
0.494000000000000328,-9.224581171493003495
0.495000000000000329,-9.180001189745109258
0.496000000000000330,-9.135380928395548494
0.497000000000000330,-9.090727869663966842
0.498000000000000331,-9.046049348201709250
0.499000000000000332,-9.001352551435678251
0.500000000000000333,-8.956644520000610399
0.501000000000000334,-8.911932148256022757
0.502000000000000335,-8.867222184884111513
0.503000000000000336,-8.822521233564893706
0.504000000000000337,-8.777835753725021561
0.505000000000000338,-8.733172061356748728
0.506000000000000338,-8.688536329903719491
0.507000000000000339,-8.643934591210157947
0.508000000000000340,-8.599372736530268568
0.509000000000000341,-8.554856517594766174
0.510000000000000342,-8.510391547731291695
0.511000000000000343,-8.465983303035931939
0.512000000000000344,-8.421637123592777385
0.513000000000000345,-8.377358214738759301
0.514000000000000346,-8.333151648371112330
0.515000000000000346,-8.289022364294645229
0.516000000000000347,-8.244975171606307995
0.517000000000000348,-8.201014750114655527
0.518000000000000349,-8.157145651791571694
0.519000000000000350,-8.113372302254138191
0.520000000000000351,-8.069699002274123956
0.521000000000000352,-8.026129929313208677
0.522000000000000353,-7.982669139081447263
0.523000000000000353,-7.939320567117206906
0.524000000000000354,-7.896088030386493983
0.525000000000000355,-7.852975228899690130
0.526000000000000356,-7.809985747343899831
0.527000000000000357,-7.767123056729194452
0.528000000000000358,-7.724390516046847566
0.529000000000000359,-7.681791373938125389
0.530000000000000360,-7.639328770371832888
0.531000000000000361,-7.597005738329232649
0.532000000000000361,-7.554825205494770657
0.533000000000000362,-7.512789995951226096
0.534000000000000363,-7.470902831877919148
0.535000000000000364,-7.429166335250667608
0.536000000000000365,-7.387583029542217794
0.537000000000000366,-7.346155341422038632
0.538000000000000367,-7.304885602454136873
0.539000000000000368,-7.263776050792083439
0.540000000000000369,-7.222828832869879534
0.541000000000000369,-7.182046005087957319
0.542000000000000370,-7.141429535493104552
0.543000000000000371,-7.100981305451600001
0.544000000000000372,-7.060703111314561298
0.545000000000000373,-7.020596666074764514
0.546000000000000374,-6.980663601014091668
0.547000000000000375,-6.940905467340866331
0.548000000000000376,-6.901323737816454695
0.549000000000000377,-6.861919808370357643
0.550000000000000377,-6.822694999703214691
0.551000000000000378,-6.783650558877113212
0.552000000000000379,-6.744787660892688663
0.553000000000000380,-6.706107410252405643
0.554000000000000381,-6.667610842509556157
0.555000000000000382,-6.629298925802622477
0.556000000000000383,-6.591172562374323363
0.557000000000000384,-6.553232590075242392
0.558000000000000385,-6.515479783851384710
0.559000000000000385,-6.477914857215526290
0.560000000000000386,-6.440538463701912519
0.561000000000000387,-6.403351198304053860
0.562000000000000388,-6.366353598895312160
0.563000000000000389,-6.329546147632119535
0.564000000000000390,-6.292929272339469193
0.565000000000000391,-6.256503347878590304
0.566000000000000392,-6.220268697496567967
0.567000000000000393,-6.184225594157787498
0.568000000000000393,-6.148374261856991652
0.569000000000000394,-6.112714876913882378
0.570000000000000395,-6.077247569249204062
0.571000000000000396,-6.041972423642072876
0.572000000000000397,-6.006889480968675699
0.573000000000000398,-5.971998739422111235
0.574000000000000399,-5.937300155713457706
0.575000000000000400,-5.902793646253953419
0.576000000000000401,-5.868479088318323100
0.577000000000000401,-5.834356321189313910
0.578000000000000402,-5.800425147283288396
0.579000000000000403,-5.766685333257063562
0.580000000000000404,-5.733136611096007584
0.581000000000000405,-5.699778679183331143
0.582000000000000406,-5.666611203350817583
0.583000000000000407,-5.633633817910864039
0.584000000000000408,-5.600846126670108838
0.585000000000000409,-5.568247703924583014
0.586000000000000409,-5.535838095436558248
0.587000000000000410,-5.503616819393212900
0.588000000000000411,-5.471583367347148119
0.589000000000000412,-5.439737205139015153
0.590000000000000413,-5.408077773802198784
0.591000000000000414,-5.376604490449873097
0.592000000000000415,-5.345316749144483737
0.593000000000000416,-5.314213921749765035
0.594000000000000417,-5.283295358765517591
0.595000000000000417,-5.252560390145367464
0.596000000000000418,-5.222008326097385300
0.597000000000000419,-5.191638457868176459
0.598000000000000420,-5.161450058510150818
0.599000000000000421,-5.131442383632526472
0.600000000000000422,-5.101614672135977635
0.601000000000000423,-5.071966146931279340
0.602000000000000424,-5.042496015642055518
0.603000000000000425,-5.013203471291826752
0.604000000000000425,-4.984087692975556649
0.605000000000000426,-4.955147846515892240
0.606000000000000427,-4.926383085104335535
0.607000000000000428,-4.897792549927354244
0.608000000000000429,-4.869375370777990319
