# grapheneoxide_DIHYDROXYPHOSPHANIUM-AC
# h[nm],U(h)[kJ/mol]
0.149999999999999994,94.191992448478146116
0.150999999999999995,91.780308986317919562
0.151999999999999996,90.177425308287467942
0.152999999999999997,88.752155195046015024
0.153999999999999998,87.274201960726898619
0.154999999999999999,85.702316296814885277
0.156000000000000000,84.069378380416850405
0.157000000000000001,82.424796433525884254
0.158000000000000002,80.809423410632419404
0.159000000000000002,79.247839592459712321
0.160000000000000003,77.749035560368000120
0.161000000000000004,76.310422660125198036
0.162000000000000005,74.922487987418463717
0.163000000000000006,73.572831112914556684
0.164000000000000007,72.249125690937688660
0.165000000000000008,70.940975115493301928
0.166000000000000009,69.640829826649081724
0.167000000000000010,68.344202009278959054
0.168000000000000010,67.049412002991260806
0.169000000000000011,65.757066553942522091
0.170000000000000012,64.469423452415128395
0.171000000000000013,63.189751739735562808
0.172000000000000014,61.921757177568544250
0.173000000000000015,60.669111159812928236
0.174000000000000016,59.435097847855693942
0.175000000000000017,58.222378161159966226
0.176000000000000018,57.032859083136770550
0.177000000000000018,55.867651198532030321
0.178000000000000019,54.727095218559512091
0.179000000000000020,53.610838414049261758
0.180000000000000021,52.517943513834680402
0.181000000000000022,51.447015084724981193
0.182000000000000023,50.396331216464474778
0.183000000000000024,49.363971162434523876
0.184000000000000025,48.347932223192167100
0.185000000000000026,47.346231482554259173
0.186000000000000026,46.356989956913217554
0.187000000000000027,45.378498285188392458
0.188000000000000028,44.409264286531858090
0.189000000000000029,43.448043581003553015
0.190000000000000030,42.493855049773131327
0.191000000000000031,41.545983254197253132
0.192000000000000032,40.603970084768576498
0.193000000000000033,39.667597915410468090
0.194000000000000034,38.736866434969869033
0.195000000000000034,37.811965149507884121
0.196000000000000035,36.893243323871459438
0.197000000000000036,35.981178881360996513
0.198000000000000037,35.076347523427827468
0.199000000000000038,34.179393080199176325
0.200000000000000039,33.290999866466222556
0.201000000000000040,32.411867602699452107
0.202000000000000041,31.542689270295131365
0.203000000000000042,30.684132106254224936
0.204000000000000042,29.836821804999878793
0.205000000000000043,29.001329883111196750
0.206000000000000044,28.178164074680360329
0.207000000000000045,27.367761558598125760
0.208000000000000046,26.570484771870695795
0.209000000000000047,25.786619532498917806
0.210000000000000048,25.016375178954426417
0.211000000000000049,24.259886428426835181
0.212000000000000050,23.517216660513209803
0.213000000000000050,22.788362344819766747
0.214000000000000051,22.073258348203854240
0.215000000000000052,21.371783878510161259
0.216000000000000053,20.683768845280059878
0.217000000000000054,20.009000442893913885
0.218000000000000055,19.347229787006256174
0.219000000000000056,18.698178460203749296
0.220000000000000057,18.061544846968867972
0.221000000000000058,17.437010160840578976
0.222000000000000058,16.824244087805844572
0.223000000000000059,16.222909989241490081
0.224000000000000060,15.632669625032116656
0.225000000000000061,15.053187372780763909
0.226000000000000062,14.484133932320272464
0.227000000000000063,13.925189516086982522
0.228000000000000064,13.376046535432461582
0.229000000000000065,12.836411800741540645
0.230000000000000066,12.306008259436344687
0.231000000000000066,11.784576300719274755
0.232000000000000067,11.271874659396951657
0.233000000000000068,10.767680953479256800
0.234000000000000069,10.271791891611808722
0.235000000000000070,9.784023186914959425
0.236000000000000071,9.304209213601296824
0.237000000000000072,8.832202441947321958
0.238000000000000073,8.367872685917605580
0.239000000000000073,7.911106196082809738
0.240000000000000074,7.461804628524745908
0.241000000000000075,7.019883918267000311
0.242000000000000076,6.585273083474922018
0.243000000000000077,6.157912984296137537
0.244000000000000078,5.737755057814185378
0.245000000000000079,5.324760048205209095
0.246000000000000080,4.918896748858354151
0.247000000000000081,4.520140770970765054
0.248000000000000081,4.128473350983216328
0.249000000000000082,3.743880207197456400
0.250000000000000111,3.366350454024217065
0.251000000000000112,2.995875580560322327
0.252000000000000113,2.632448498587016683
0.253000000000000114,2.276062663624867977
0.254000000000000115,1.926711271367160361
0.255000000000000115,1.584386530645893965
0.256000000000000116,1.249079013053694620
0.257000000000000117,0.920777078447090114
0.258000000000000118,0.599466374784903833
0.259000000000000119,0.285129410100806946
0.260000000000000120,-0.022254806135547422
0.261000000000000121,-0.322711055457195806
0.262000000000000122,-0.616268140177738566
0.263000000000000123,-0.902959054313396736
0.264000000000000123,-1.182821099644967067
0.265000000000000124,-1.455895951037283975
0.266000000000000125,-1.722229675196305099
0.267000000000000126,-1.981872707053102589
0.268000000000000127,-2.234879787928256256
0.269000000000000128,-2.481309869554058967
0.270000000000000129,-2.721225987923511003
0.271000000000000130,-2.954695110798923885
0.272000000000000131,-3.181787962553733085
0.273000000000000131,-3.402578829844835617
0.274000000000000132,-3.617145351422134780
0.275000000000000133,-3.825568295182050882
0.276000000000000134,-4.027931325364950688
0.277000000000000135,-4.224320762585835887
0.278000000000000136,-4.414825339176838170
0.279000000000000137,-4.599535952109624404
0.280000000000000138,-4.778545415558979492
0.281000000000000139,-4.951948214966847672
0.282000000000000139,-5.119840264270029806
0.283000000000000140,-5.282318667766134901
0.284000000000000141,-5.439481487911683288
0.285000000000000142,-5.591427520174709009
0.286000000000000143,-5.738256075901693620
0.287000000000000144,-5.880066774005856090
0.288000000000000145,-6.016959342141412037
0.289000000000000146,-6.149033427894909032
0.290000000000000147,-6.276388420402557955
0.291000000000000147,-6.399123282688831793
0.292000000000000148,-6.517336394918717524
0.293000000000000149,-6.631125408661583620
0.294000000000000150,-6.740587112179999174
0.295000000000000151,-6.845817306680581638
0.296000000000000152,-6.946910693396193714
0.297000000000000153,-7.043960771308837465
0.298000000000000154,-7.137059745270457611
0.299000000000000155,-7.226298444233458795
0.300000000000000155,-7.311766249264245232
0.301000000000000156,-7.393551030980513694
0.302000000000000157,-7.471739096026619897
0.303000000000000158,-7.546415142179684565
0.304000000000000159,-7.617662221662941491
0.305000000000000160,-7.685561712230449594
0.306000000000000161,-7.750193295579795638
0.307000000000000162,-7.811634942644774426
0.308000000000000163,-7.869962905319345836
0.309000000000000163,-7.925251714166018147
0.310000000000000164,-7.977574181666672537
0.311000000000000165,-8.027001410580538732
0.312000000000000166,-8.073602806983386060
0.313000000000000167,-8.117446097572402763
0.314000000000000168,-8.158597350833726836
0.315000000000000169,-8.197121001682969421
0.316000000000000170,-8.233079879203756946
0.317000000000000171,-8.266535237124505997
0.318000000000000171,-8.297546786689810716
0.319000000000000172,-8.326172731599402965
0.320000000000000173,-8.352469804704309553
0.321000000000000174,-8.376493306166992170
0.322000000000000175,-8.398297142809393989
0.323000000000000176,-8.417933868389782859
0.324000000000000177,-8.435454724566325169
0.325000000000000178,-8.450909682321812610
0.326000000000000179,-8.464347483640759506
0.327000000000000179,-8.475815683245611964
0.328000000000000180,-8.485360690214744039
0.329000000000000181,-8.493027809320103927
0.330000000000000182,-8.498861281936562762
0.331000000000000183,-8.502904326389669976
0.332000000000000184,-8.505199177621525664
0.333000000000000185,-8.505787126067669845
0.334000000000000186,-8.504708555650152491
0.335000000000000187,-8.502002980803542442
0.336000000000000187,-8.497709082461948782
0.337000000000000188,-8.491864742945216094
0.338000000000000189,-8.484507079692777509
0.339000000000000190,-8.475672477802591587
0.340000000000000191,-8.465396621341172434
0.341000000000000192,-8.453714523399252556
0.342000000000000193,-8.440660554874440891
0.343000000000000194,-8.426268471969939000
0.344000000000000195,-8.410571442403993458
0.345000000000000195,-8.393602070331409593
0.346000000000000196,-8.375392419983231918
0.347000000000000197,-8.355974038035938634
0.348000000000000198,-8.335377974725849626
0.349000000000000199,-8.313634803728360723
0.350000000000000200,-8.290774640825397057
0.351000000000000201,-8.266827161387428902
0.352000000000000202,-8.241821616699327890
0.353000000000000203,-8.215786849161847982
0.354000000000000203,-8.188751306402469510
0.355000000000000204,-8.160743054331213386
0.356000000000000205,-8.131789789178581529
0.357000000000000206,-8.101918848554037211
0.358000000000000207,-8.071157221564114082
0.359000000000000208,-8.039531558030425629
0.360000000000000209,-8.007068176847988994
0.361000000000000210,-7.973793073524747754
0.362000000000000210,-7.939731926943229823
0.363000000000000211,-7.904910105385257957
0.364000000000000212,-7.869352671860404769
0.365000000000000213,-7.833084388778504881
0.366000000000000214,-7.796129722006095442
0.367000000000000215,-7.758512844345934134
0.368000000000000216,-7.720257638478275730
0.369000000000000217,-7.681387699401470925
0.370000000000000218,-7.641926336408896070
0.371000000000000218,-7.601896574637962090
0.372000000000000219,-7.561321156226183504
0.373000000000000220,-7.520222541108118719
0.374000000000000221,-7.478622907485897642
0.375000000000000222,-7.436544152004780805
0.376000000000000223,-7.394007889664353961
0.377000000000000224,-7.351035453494409566
0.378000000000000225,-7.307647894023520330
0.379000000000000226,-7.263865978567078052
0.380000000000000226,-7.219710190360442148
0.381000000000000227,-7.175200727561303893
0.382000000000000228,-7.130357502144590853
0.383000000000000229,-7.085200138711698514
0.384000000000000230,-7.039747973234669942
0.385000000000000231,-6.994020051755031275
0.386000000000000232,-6.948035129055464054
0.387000000000000233,-6.901811667321605448
0.388000000000000234,-6.855367834810031979
0.389000000000000234,-6.808721504537508906
0.390000000000000235,-6.761890253005342188
0.391000000000000236,-6.714891358971843083
0.392000000000000237,-6.667741802284720798
0.393000000000000238,-6.620458262784436165
0.394000000000000239,-6.573057119288407080
0.395000000000000240,-6.525554448665242369
0.396000000000000241,-6.477966025007184214
0.397000000000000242,-6.430307318908094594
0.398000000000000242,-6.382593496853670167
0.399000000000000243,-6.334839420729573511
0.400000000000000244,-6.287059647452556632
0.401000000000000245,-6.239268428729070948
0.402000000000000246,-6.191479710944858716
0.403000000000000247,-6.143707135188703816
0.404000000000000248,-6.095964037412797687
0.405000000000000249,-6.048263448731534098
0.406000000000000250,-6.000618095860112078
0.407000000000000250,-5.953040401693799666
0.408000000000000251,-5.905542486028131144
0.409000000000000252,-5.858136166420047530
0.410000000000000253,-5.810832959189372815
0.411000000000000254,-5.763644080559758187
0.412000000000000255,-5.716580447937798404
0.413000000000000256,-5.669652681328757993
0.414000000000000257,-5.622871104886855598
0.415000000000000258,-5.576245748598054774
0.416000000000000258,-5.529786350092721570
0.417000000000000259,-5.483502356585516324
0.418000000000000260,-5.437402926939546077
0.419000000000000261,-5.391496933851604112
0.420000000000000262,-5.345792966155196169
0.421000000000000263,-5.300299331237871669
0.422000000000000264,-5.255024057569178453
0.423000000000000265,-5.209974897335504451
0.424000000000000266,-5.165159329177997805
0.425000000000000266,-5.120584561029503767
0.426000000000000267,-5.076257533046547366
0.427000000000000268,-5.032184920632246872
0.428000000000000269,-4.988373137545991653
0.429000000000000270,-4.944828339095735714
0.430000000000000271,-4.901556425408617912
0.431000000000000272,-4.858563044775769058
0.432000000000000273,-4.815853597066996450
0.433000000000000274,-4.773433237211193614
0.434000000000000274,-4.731306878738168464
0.435000000000000275,-4.689479197377798059
0.436000000000000276,-4.647954634712329280
0.437000000000000277,-4.606737401877637694
0.438000000000000278,-4.565831483309475303
0.439000000000000279,-4.525240640530662439
0.440000000000000280,-4.484968415975196798
0.441000000000000281,-4.445018136845476420
0.442000000000000282,-4.405392918998789931
0.443000000000000282,-4.366095670859238886
0.444000000000000283,-4.327129097351551046
0.445000000000000284,-4.288495703853081764
0.446000000000000285,-4.250197800160497863
0.447000000000000286,-4.212237504467823079
0.448000000000000287,-4.174616747352330570
0.449000000000000288,-4.137337275765231581
0.450000000000000289,-4.100400657023825168
0.451000000000000290,-4.063808282802176208
0.452000000000000290,-4.027561373117304555
0.453000000000000291,-3.991660980307997875
0.454000000000000292,-3.956107993003536105
0.455000000000000293,-3.920903140079569305
0.456000000000000294,-3.886046994598646442
0.457000000000000295,-3.851539977732877595
0.458000000000000296,-3.817382362666322138
0.459000000000000297,-3.783574278474884700
0.460000000000000298,-3.750115713981442500
0.461000000000000298,-3.717006521584173218
0.462000000000000299,-3.684246421056066367
0.463000000000000300,-3.651835003313670391
0.464000000000000301,-3.619771734153309772
0.465000000000000302,-3.588055957953048214
0.466000000000000303,-3.556686901338710349
0.467000000000000304,-3.525663676812462288
0.468000000000000305,-3.494985286342493502
0.469000000000000306,-3.464650624912380295
0.470000000000000306,-3.434658484028931813
0.471000000000000307,-3.405007555187173018
0.472000000000000308,-3.375696433291485388
0.473000000000000309,-3.346723620031755164
0.474000000000000310,-3.318087527213590793
0.475000000000000311,-3.289786480041699157
0.476000000000000312,-3.261818720355657231
0.477000000000000313,-3.234182409817216719
0.478000000000000314,-3.206875633048526630
0.479000000000000314,-3.179896400720692018
0.480000000000000315,-3.153242652591997430
0.481000000000000316,-3.126912260495445572
0.482000000000000317,-3.100903031275063615
0.483000000000000318,-3.075212709670688493
0.484000000000000319,-3.049838981150872819
0.485000000000000320,-3.024779474693686687
0.486000000000000321,-3.000031765515189797
0.487000000000000322,-2.975593377745438417
0.488000000000000322,-2.951461787051874452
0.489000000000000323,-2.927634423210152548
0.490000000000000324,-2.904108672622272902
0.491000000000000325,-2.880881880782133919
0.492000000000000326,-2.857951354688534895
0.493000000000000327,-2.835314365205793496
0.494000000000000328,-2.812968149372090387
0.495000000000000329,-2.790909912655766156
0.496000000000000330,-2.769136831159765499
0.497000000000000330,-2.747646053774539077
0.498000000000000331,-2.726434704279623755
0.499000000000000332,-2.705499883394318239
0.500000000000000333,-2.684838670777729419
0.501000000000000334,-2.664448126978598452
0.502000000000000335,-2.644325295335314685
0.503000000000000336,-2.624467203826558848
0.504000000000000337,-2.604870866872995183
0.505000000000000338,-2.585533287090520993
0.506000000000000338,-2.566451456995554992
0.507000000000000339,-2.547622360662871621
0.508000000000000340,-2.529042975336518673
0.509000000000000341,-2.510710272994398640
0.510000000000000342,-2.492621221867005854
0.511000000000000343,-2.474772787910974436
0.512000000000000344,-2.457161936237969968
0.513000000000000345,-2.439785632499560375
0.514000000000000346,-2.422640844228689083
0.515000000000000346,-2.405724542138321542
0.516000000000000347,-2.389033701377950347
0.517000000000000348,-2.372565302748614879
0.518000000000000349,-2.356316333876981250
0.519000000000000350,-2.340283790349274362
0.520000000000000351,-2.324464676805616747
0.521000000000000352,-2.308856007995495840
0.522000000000000353,-2.293454809795005378
0.523000000000000353,-2.278258120186511526
0.524000000000000354,-2.263262990201496905
0.525000000000000355,-2.248466484827149170
0.526000000000000356,-2.233865683877447772
0.527000000000000357,-2.219457682829420797
0.528000000000000358,-2.205239593625189620
0.529000000000000359,-2.191208545440570976
0.530000000000000360,-2.177361685420811543
0.531000000000000361,-2.163696179384217100
0.532000000000000361,-2.150209212494276212
0.533000000000000362,-2.136897989901001438
0.534000000000000363,-2.123759737352112875
0.535000000000000364,-2.110791701774753726
0.536000000000000365,-2.097991151828369816
0.537000000000000366,-2.085355378429440520
0.538000000000000367,-2.072881695248654399
0.539000000000000368,-2.060567439181256066
0.540000000000000369,-2.048409970791096324
0.541000000000000369,-2.036406674729126287
0.542000000000000370,-2.024554960126873304
0.543000000000000371,-2.012852260965567464
0.544000000000000372,-2.001296036421524871
0.545000000000000373,-1.989883771188383221
0.546000000000000374,-1.978612975776792293
0.547000000000000375,-1.967481186792153336
0.548000000000000376,-1.956485967191009534
0.549000000000000377,-1.945624906516640662
0.550000000000000377,-1.934895621114431474
0.551000000000000378,-1.924295754327606023
0.552000000000000379,-1.913822976673849707
0.553000000000000380,-1.903474986003394820
0.554000000000000381,-1.893249507639068741
0.555000000000000382,-1.883144294498897864
0.556000000000000383,-1.873157127201705352
0.557000000000000384,-1.863285814156312892
0.558000000000000385,-1.853528191634759015
0.559000000000000385,-1.843882123830108188
0.560000000000000386,-1.834345502899286329
0.561000000000000387,-1.824916248991459877
0.562000000000000388,-1.815592310262392983
0.563000000000000389,-1.806371662875294160
0.564000000000000390,-1.797252310988562529
0.565000000000000391,-1.788232286730902176
0.566000000000000392,-1.779309650164244250
0.567000000000000393,-1.770482489234906254
0.568000000000000393,-1.761748919713390649
0.569000000000000394,-1.753107085123261744
0.570000000000000395,-1.744555156659498341
0.571000000000000396,-1.736091333096696498
0.572000000000000397,-1.727713840687557845
0.573000000000000398,-1.719420933051977629
0.574000000000000399,-1.711210891057179939
0.575000000000000400,-1.703082022689190067
0.576000000000000401,-1.695032662916043265
0.577000000000000401,-1.687061173543095149
0.578000000000000402,-1.679165943060709099
0.579000000000000403,-1.671345386484696771
0.580000000000000404,-1.663597945189860594
0.581000000000000405,-1.655922086736882237
0.582000000000000406,-1.648316304692933443
0.583000000000000407,-1.640779118446276996
0.584000000000000408,-1.633309073015157820
0.585000000000000409,-1.625904738851273068
0.586000000000000409,-1.618564711638104781
0.587000000000000410,-1.611287612084383536
0.588000000000000411,-1.604072085712935136
0.589000000000000412,-1.596916802645211186
0.590000000000000413,-1.589820457381693419
0.591000000000000414,-1.582781768578470638
0.592000000000000415,-1.575799478820208765
0.593000000000000416,-1.568872354389725388
0.594000000000000417,-1.561999185034422144
0.595000000000000417,-1.555178783729804337
0.596000000000000418,-1.548409986440234754
0.597000000000000419,-1.541691651877229674
0.598000000000000420,-1.535022661255393661
0.599000000000000421,-1.528401918046273122
0.600000000000000422,-1.521828347730266318
0.601000000000000423,-1.515300897546790093
0.602000000000000424,-1.508818536242882535
0.603000000000000425,-1.502380253820420508
0.604000000000000425,-1.495985061282096407
0.605000000000000426,-1.489631990376330650
0.606000000000000427,-1.483320093341311985
0.607000000000000428,-1.477048442648205562
0.608000000000000429,-1.470816130743852312
0.609000000000000430,-1.464622269792894782
0.610000000000000431,-1.458465991419665375
0.611000000000000432,-1.452346446449816586
0.612000000000000433,-1.446262804651887279
0.613000000000000433,-1.440214254478955569
