# grapheneoxide_PIPERAZINE-AC
# h[nm],U(h)[kJ/mol]
0.149999999999999994,142.820335887654493945
0.150999999999999995,140.256125393390618683
0.151999999999999996,138.091751293522918331
0.152999999999999997,136.020623979621774424
0.153999999999999998,133.921572438193550170
0.154999999999999999,131.767458212260009986
0.156000000000000000,129.572397588618684949
0.157000000000000001,127.363109876800464804
0.158000000000000002,125.164861481359338313
0.159000000000000002,122.995852133074592416
0.160000000000000003,120.866164788904299598
0.161000000000000004,118.778911642848044039
0.162000000000000005,116.732194322213558735
0.163000000000000006,114.721124847080702125
0.164000000000000007,112.739542834451754061
0.165000000000000008,110.781295185264667680
0.166000000000000009,108.841072996274220941
0.167000000000000010,106.914864592870827664
0.168000000000000010,105.000108716041424373
0.169000000000000011,103.095634643525983165
0.170000000000000012,101.201467041054371521
0.171000000000000013,99.318559244851101653
0.172000000000000014,97.448503400813677899
0.173000000000000015,95.593251600575385396
0.174000000000000016,93.754869913326487563
0.175000000000000017,91.935337381853074135
0.176000000000000018,90.136394599967033514
0.177000000000000018,88.359441172743714787
0.178000000000000019,86.605477843617762801
0.179000000000000020,84.875086994554308717
0.180000000000000021,83.168444247635903821
0.181000000000000022,81.485353719088067237
0.182000000000000023,79.825299849141032382
0.183000000000000024,78.187509451525770032
0.184000000000000025,76.571018538826095323
0.185000000000000026,74.974739468304761658
0.186000000000000026,73.397524934675260511
0.187000000000000027,71.838226256233937761
0.188000000000000028,70.295744224720522197
0.189000000000000029,68.769071499327395713
0.190000000000000030,67.257326115365543728
0.191000000000000031,65.759776150471381584
0.192000000000000032,64.275855953685123723
0.193000000000000033,62.805174606369064350
0.194000000000000034,61.347517461624946122
0.195000000000000034,59.902841713993552730
0.196000000000000035,58.471266996888381584
0.197000000000000036,57.053062003683905345
0.198000000000000037,55.648628090742832342
0.199000000000000038,54.258480756673790779
0.200000000000000039,52.883229810110449876
0.201000000000000040,51.523558945272611709
0.202000000000000041,50.180205346194767912
0.203000000000000042,48.853939841300466185
0.204000000000000042,47.545548033419223088
0.205000000000000043,46.255812738951206597
0.206000000000000044,44.985497985462153281
0.207000000000000045,43.735334740689594923
0.208000000000000046,42.506008478379570192
0.209000000000000047,41.298148627762863327
0.210000000000000048,40.112319903705255797
0.211000000000000049,38.949015473278151944
0.212000000000000050,37.808651881162418817
0.213000000000000050,36.691565630285360555
0.214000000000000051,35.598011294680205197
0.215000000000000052,34.528161028012760880
0.216000000000000053,33.482105322791106516
0.217000000000000054,32.459854871234746554
0.218000000000000055,31.461343378437298668
0.219000000000000056,30.486431181165226434
0.220000000000000057,29.534909530796589650
0.221000000000000058,28.606505405991221380
0.222000000000000058,27.700886729206132486
0.223000000000000059,26.817667870722821988
0.224000000000000060,25.956415334061226474
0.225000000000000061,25.116653527217074782
0.226000000000000062,24.297870534811881527
0.227000000000000063,23.499523816774956941
0.228000000000000064,22.721045769413098725
0.229000000000000065,21.961849094527575943
0.230000000000000066,21.221331931510910351
0.231000000000000066,20.498882716018467676
0.232000000000000067,19.793884736816455217
0.233000000000000068,19.105720369725155194
0.234000000000000069,18.433774974195731744
0.235000000000000070,17.777440443980687235
0.236000000000000071,17.136118408598708385
0.237000000000000072,16.509223086874037278
0.238000000000000073,15.896183797783578484
0.239000000000000073,15.296447137204665978
0.240000000000000074,14.709478831961385836
0.241000000000000075,14.134765284862888635
0.242000000000000076,13.571814826252753150
0.243000000000000077,13.020158688988464846
0.244000000000000078,12.479351724787912659
0.245000000000000079,11.948972880555523091
0.246000000000000080,11.428625453675865131
0.247000000000000081,10.917937145372732743
0.248000000000000081,10.416559931115642712
0.249000000000000082,9.924169766744272536
0.250000000000000111,9.440466148506425625
0.251000000000000112,8.965171544595415654
0.252000000000000113,8.498030715052042439
0.253000000000000114,8.038809936092311759
0.254000000000000115,7.587296144049247459
0.255000000000000115,7.143296013200756356
0.256000000000000116,6.706634980807033131
0.257000000000000117,6.277156231717131440
0.258000000000000118,5.854719653938142088
0.259000000000000119,5.439200775599876359
0.260000000000000120,5.030489692804850144
0.261000000000000121,4.628489996934398221
0.262000000000000122,4.233117709091763992
0.263000000000000123,3.844300228509816009
0.264000000000000123,3.461975300935075328
0.265000000000000124,3.086090012227330703
0.266000000000000125,2.716599811684536014
0.267000000000000126,2.353467568919310082
0.268000000000000127,1.996662667474967012
0.269000000000000128,1.646160137777894716
0.270000000000000129,1.301939831476807585
0.271000000000000130,0.963985638717944626
0.272000000000000131,0.632284749448484118
0.273000000000000131,0.306826959424907675
0.274000000000000132,-0.012395978770692029
0.275000000000000133,-0.325390959739088714
0.276000000000000134,-0.632164084628013989
0.277000000000000135,-0.932721176445433953
0.278000000000000136,-1.227068252146441552
0.279000000000000137,-1.515211952517156568
0.280000000000000138,-1.797159931049191695
0.281000000000000139,-2.072921203142666702
0.282000000000000139,-2.342506457094086336
0.283000000000000140,-2.605928328422290718
0.284000000000000141,-2.863201639160741774
0.285000000000000142,-3.114343603801407845
0.286000000000000143,-3.359374003614733706
0.287000000000000144,-3.598315331094027236
0.288000000000000145,-3.831192906283280131
0.289000000000000146,-4.058034966744280325
0.290000000000000147,-4.278872732906704890
0.291000000000000147,-4.493740450521272578
0.292000000000000148,-4.702675411905662628
0.293000000000000149,-4.905717957633966009
0.294000000000000150,-5.102911460276440714
0.295000000000000151,-5.294302291746583400
0.296000000000000152,-5.479939775758716713
0.297000000000000153,-5.659876126842000588
0.298000000000000154,-5.834166377296930328
0.299000000000000155,-6.002868293418382351
0.300000000000000155,-6.166042282245981276
0.301000000000000156,-6.323751290038279294
0.302000000000000157,-6.476060693603036711
0.303000000000000158,-6.623038185551065382
0.304000000000000159,-6.764753654477547506
0.305000000000000160,-6.901279061011207361
0.306000000000000161,-7.032688310609984228
0.307000000000000162,-7.159057123920985255
0.308000000000000163,-7.280462905463338075
0.309000000000000163,-7.396984611335132520
0.310000000000000164,-7.508702616590251289
0.311000000000000165,-7.615698582877088896
0.312000000000000166,-7.718055326879944111
0.313000000000000167,-7.815856690054472367
0.314000000000000168,-7.909187410101440108
0.315000000000000169,-7.998132994578254440
0.316000000000000170,-8.082779597005195882
0.317000000000000171,-8.163213895782767793
0.318000000000000171,-8.239522976198461635
0.319000000000000172,-8.311794215765567984
0.320000000000000173,-8.380115173102561599
0.321000000000000174,-8.444573480530117138
0.322000000000000175,-8.505256740533329918
0.323000000000000176,-8.562252426208983636
0.324000000000000177,-8.615647785792294400
0.325000000000000178,-8.665529751333597375
0.326000000000000179,-8.711984851573909339
0.327000000000000179,-8.755099129047732021
0.328000000000000180,-8.794958061423187701
0.329000000000000181,-8.831646487072813301
0.330000000000000182,-8.865248534852485207
0.331000000000000183,-8.895847558052620840
0.332000000000000184,-8.923526072472718340
0.333000000000000185,-8.948365698559243242
0.334000000000000186,-8.970447107536893228
0.335000000000000187,-8.989849971454074051
0.336000000000000187,-9.006652917056054974
0.337000000000000188,-9.020933483391793573
0.338000000000000189,-9.032768083055302100
0.339000000000000190,-9.042231966956938649
0.340000000000000191,-9.049399192515853230
0.341000000000000192,-9.054342595161809726
0.342000000000000193,-9.057133763031430362
0.343000000000000194,-9.057843014742315901
0.344000000000000195,-9.056539380126519490
0.345000000000000195,-9.053290583804699310
0.346000000000000196,-9.048163031481076146
0.347000000000000197,-9.041221798840050283
0.348000000000000198,-9.032530622925504460
0.349000000000000199,-9.022151895884695350
0.350000000000000200,-9.010146660960030474
0.351000000000000201,-8.996574610613352618
0.352000000000000202,-8.981494086669199461
0.353000000000000203,-8.964962082365648399
0.354000000000000203,-8.947034246203468655
0.355000000000000204,-8.927764887486684842
0.356000000000000205,-8.907206983450405957
0.357000000000000206,-8.885412187874520029
0.358000000000000207,-8.862430841084265154
0.359000000000000208,-8.838311981242247484
0.360000000000000209,-8.813103356839034674
0.361000000000000210,-8.786851440292558379
0.362000000000000210,-8.759601442569898921
0.363000000000000211,-8.731397328747833697
0.364000000000000212,-8.702281834431968122
0.365000000000000213,-8.672296482957166930
0.366000000000000214,-8.641481603295297020
0.367000000000000215,-8.609876348599296847
0.368000000000000216,-8.577518715315852305
0.369000000000000217,-8.544445562801694649
0.370000000000000218,-8.510692633381953698
0.371000000000000218,-8.476294572791534421
0.372000000000000219,-8.441284950943707344
0.373000000000000220,-8.405696282972833444
0.374000000000000221,-8.369560050500925996
0.375000000000000222,-8.332906723080281353
0.376000000000000223,-8.295765779767581449
0.377000000000000224,-8.258165730786739545
0.378000000000000225,-8.220134139240837357
0.379000000000000226,-8.181697642835517925
0.380000000000000226,-8.142881975578916354
0.381000000000000227,-8.103711989425004703
0.382000000000000228,-8.064211675829906056
0.383000000000000229,-8.024404187192459403
0.384000000000000230,-7.984311858152507213
0.385000000000000231,-7.943956226722358238
0.386000000000000232,-7.903358055228595802
0.387000000000000233,-7.862537351043394906
0.388000000000000234,-7.821513387085987645
0.389000000000000234,-7.780304722076822443
0.390000000000000235,-7.738929220528305564
0.391000000000000236,-7.697404072457636914
0.392000000000000237,-7.655745812808595119
0.393000000000000238,-7.613970340570647366
0.394000000000000239,-7.572092937584708139
0.395000000000000240,-7.530128287026540690
0.396000000000000241,-7.488090491559600714
0.397000000000000242,-7.445993091150309162
0.398000000000000242,-7.403849080539936622
0.399000000000000243,-7.361670926368016232
0.400000000000000244,-7.319470583943255448
0.401000000000000245,-7.277259513658870915
0.402000000000000246,-7.235048697049838218
0.403000000000000247,-7.192848652490558159
0.404000000000000248,-7.150669450532009641
0.405000000000000249,-7.108520728878242601
0.406000000000000250,-7.066411707002491660
0.407000000000000250,-7.024351200404069573
0.408000000000000251,-6.982347634507412693
0.409000000000000252,-6.940409058205443849
0.410000000000000253,-6.898543157049639163
0.411000000000000254,-6.856757266089822167
0.412000000000000255,-6.815058382366862233
0.413000000000000256,-6.773453177062141783
0.414000000000000257,-6.731948007307563486
0.415000000000000258,-6.690548927660623590
0.416000000000000258,-6.649261701248926570
0.417000000000000259,-6.608091810589071358
0.418000000000000260,-6.567044468084930031
0.419000000000000261,-6.526124626210465074
0.420000000000000262,-6.485336987382557261
0.421000000000000263,-6.444686013529404178
0.422000000000000264,-6.404175935360062688
0.423000000000000265,-6.363810761340980449
0.424000000000000266,-6.323594286385494811
0.425000000000000266,-6.283530100262026075
0.426000000000000267,-6.243621595727205431
0.427000000000000268,-6.203871976389856435
0.428000000000000269,-6.164284264311957529
0.429000000000000270,-6.124861307352757578
0.430000000000000271,-6.085605786262020978
0.431000000000000272,-6.046520221528692396
0.432000000000000273,-6.007606979990889329
0.433000000000000274,-5.968868281213482341
0.434000000000000274,-5.930306203639122309
0.435000000000000275,-5.891922690518853756
0.436000000000000276,-5.853719555628194016
0.437000000000000277,-5.815698488774550867
0.438000000000000278,-5.777861061101859264
0.439000000000000279,-5.740208730198185449
0.440000000000000280,-5.702742845011940176
0.441000000000000281,-5.665464650582352490
0.442000000000000282,-5.628375292589752554
0.443000000000000282,-5.591475821731004103
0.444000000000000283,-5.554767197925578159
0.445000000000000284,-5.518250294357400776
0.446000000000000285,-5.481925901357652009
0.447000000000000286,-5.445794730133735939
0.448000000000000287,-5.409857416349113990
0.449000000000000288,-5.374114523559136991
0.450000000000000289,-5.338566546507454547
0.451000000000000290,-5.303213914287734809
0.452000000000000290,-5.268056993375269670
0.453000000000000291,-5.233096090532841416
0.454000000000000292,-5.198331455595292638
0.455000000000000293,-5.163763284136940968
0.456000000000000294,-5.129391720026069024
0.457000000000000295,-5.095216857870456195
0.458000000000000296,-5.061238745357901969
0.459000000000000297,-5.027457385495583964
0.460000000000000298,-4.993872738751941043
0.461000000000000298,-4.960484725104731929
0.462000000000000299,-4.927293225998783832
0.463000000000000300,-4.894298086216810617
0.464000000000000301,-4.861499115666702231
0.465000000000000302,-4.828896091088457077
0.466000000000000303,-4.796488757683879278
0.467000000000000304,-4.764276830672114826
0.468000000000000305,-4.732259996773949595
0.469000000000000306,-4.700437915627697194
0.470000000000000306,-4.668810221139535699
0.471000000000000307,-4.637376522770794374
0.472000000000000308,-4.606136406764975710
0.473000000000000309,-4.575089437316870900
0.474000000000000310,-4.544235157686257409
0.475000000000000311,-4.513573091258479941
0.476000000000000312,-4.483102742554260445
0.477000000000000313,-4.452823598190792431
0.478000000000000314,-4.422735127796312504
0.479000000000000314,-4.392836784880204348
0.480000000000000315,-4.363128007660487029
0.481000000000000316,-4.333608219850729526
0.482000000000000317,-4.304276831408062165
0.483000000000000318,-4.275133239244166994
0.484000000000000319,-4.246176827900848494
0.485000000000000320,-4.217406970191875715
0.486000000000000321,-4.188823027812633271
0.487000000000000322,-4.160424351919095542
0.488000000000000322,-4.132210283677517637
0.489000000000000323,-4.104180154786384982
0.490000000000000324,-4.076333287971778851
0.491000000000000325,-4.048668997457584240
0.492000000000000326,-4.021186589411654744
0.493000000000000327,-3.993885362369240966
0.494000000000000328,-3.966764607634719830
0.495000000000000329,-3.939823609662761239
0.496000000000000330,-3.913061646419952133
0.497000000000000330,-3.886477989727924687
0.498000000000000331,-3.860071905588834174
0.499000000000000332,-3.833842654494261204
0.500000000000000333,-3.807789491718297281
0.501000000000000334,-3.781911667595648563
0.502000000000000335,-3.756208427785652226
0.503000000000000336,-3.730679013522879561
0.504000000000000337,-3.705322661855099398
0.505000000000000338,-3.680138605869287094
0.506000000000000338,-3.655126074906353217
0.507000000000000339,-3.630284294765214526
0.508000000000000340,-3.605612487896798335
0.509000000000000341,-3.581109873588642412
0.510000000000000342,-3.556775668140482960
0.511000000000000343,-3.532609085031521712
0.512000000000000344,-3.508609335079735381
0.513000000000000345,-3.484775626593761277
0.514000000000000346,-3.461107165517854689
0.515000000000000346,-3.437603155570212898
0.516000000000000347,-3.414262798375168106
0.517000000000000348,-3.391085293589674698
0.518000000000000349,-3.368069839024281809
0.519000000000000350,-3.345215630759133862
0.520000000000000351,-3.322521863255173180
0.521000000000000352,-3.299987729460970520
0.522000000000000353,-3.277612420915364311
0.523000000000000353,-3.255395127846250070
0.524000000000000354,-3.233335039265804678
0.525000000000000355,-3.211431343062299160
0.526000000000000356,-3.189683226088798840
0.527000000000000357,-3.168089874248984916
0.528000000000000358,-3.146650472580200919
0.529000000000000359,-3.125364205334068224
0.530000000000000360,-3.104230256054672843
0.531000000000000361,-3.083247807654665884
0.532000000000000361,-3.062416042489291446
0.533000000000000362,-3.041734142428604404
0.534000000000000363,-3.021201288927918505
0.535000000000000364,-3.000816663096693038
0.536000000000000365,-2.980579445765918045
0.537000000000000366,-2.960488817554171703
0.538000000000000367,-2.940543958932352098
0.539000000000000368,-2.920744050287344518
0.540000000000000369,-2.901088271984498590
0.541000000000000369,-2.881575804429220788
0.542000000000000370,-2.862205828127573959
0.543000000000000371,-2.842977523746059720
0.544000000000000372,-2.823890072170623711
0.545000000000000373,-2.804942654564931637
0.546000000000000374,-2.786134452427963204
0.547000000000000375,-2.767464647650984322
0.548000000000000376,-2.748932422573974410
0.549000000000000377,-2.730536960041477723
0.550000000000000377,-2.712277443457965731
0.551000000000000378,-2.694153056842725213
0.552000000000000379,-2.676162984884319140
0.553000000000000380,-2.658306412994620338
0.554000000000000381,-2.640582527362419718
0.555000000000000382,-2.622990515006741852
0.556000000000000383,-2.605529563829688922
0.557000000000000384,-2.588198862669044864
0.558000000000000385,-2.570997601350456740
0.559000000000000385,-2.553924970739353206
0.560000000000000386,-2.536980162792510374
0.561000000000000387,-2.520162370609312585
0.562000000000000388,-2.503470788482700549
0.563000000000000389,-2.486904611949821930
0.564000000000000390,-2.470463037842352438
0.565000000000000391,-2.454145264336525578
0.566000000000000392,-2.437950491002832454
0.567000000000000393,-2.421877918855435574
0.568000000000000393,-2.405926750401223835
0.569000000000000394,-2.390096189688564188
0.570000000000000395,-2.374385442355733122
0.571000000000000396,-2.358793715678959124
0.572000000000000397,-2.343320218620191575
0.573000000000000398,-2.327964161874441551
0.574000000000000399,-2.312724757916817975
0.575000000000000400,-2.297601221049143216
0.576000000000000401,-2.282592767446200988
0.577000000000000401,-2.267698615201619639
0.578000000000000402,-2.252917984373315807
0.579000000000000403,-2.238250097028513075
0.580000000000000404,-2.223694177288396467
0.581000000000000405,-2.209249451372264250
0.582000000000000406,-2.194915147641279596
0.583000000000000407,-2.180690496641738196
0.584000000000000408,-2.166574731147884680
0.585000000000000409,-2.152567086204244529
0.586000000000000409,-2.138666799167456833
0.587000000000000410,-2.124873109747640321
0.588000000000000411,-2.111185260049198043
0.589000000000000412,-2.097602494611166435
0.590000000000000413,-2.084124060446969740
0.591000000000000414,-2.070749207083677934
0.592000000000000415,-2.057477186600714880
0.593000000000000416,-2.044307253667981605
0.594000000000000417,-2.031238665583417369
0.595000000000000417,-2.018270682310041586
0.596000000000000418,-2.005402566512310081
0.597000000000000419,-1.992633583591989277
0.598000000000000420,-1.979963001723332949
0.599000000000000421,-1.967390091887732506
0.600000000000000422,-1.954914127907700916
0.601000000000000423,-1.942534386480258890
0.602000000000000424,-1.930250147209691791
0.603000000000000425,-1.918060692639678377
0.604000000000000425,-1.905965308284768067
0.605000000000000426,-1.893963282661219605
0.606000000000000427,-1.882053907317235542
0.607000000000000428,-1.870236476862436437
0.608000000000000429,-1.858510288996833237
0.609000000000000430,-1.846874644538975874
0.610000000000000431,-1.835328847453578049
0.611000000000000432,-1.823872204878400627
0.612000000000000433,-1.812504027150460217
0.613000000000000433,-1.801223627831628704
