# CNT15-COO--3_PHO
# h[nm],U(h)[kJ/mol]
0.200000000000000011,149.140054070667105179
0.201000000000000012,146.792065441585009467
0.202000000000000013,144.726432747806825319
0.203000000000000014,142.819204732711511951
0.204000000000000015,140.995767495504907174
0.205000000000000016,139.213564561469667069
0.206000000000000016,137.450250165494423982
0.207000000000000017,135.695712345513356922
0.208000000000000018,133.946821035760223140
0.209000000000000019,132.204069190413179058
0.210000000000000020,130.469507562953310753
0.211000000000000021,128.745545691036340941
0.212000000000000022,127.034317875985379942
0.213000000000000023,125.337404938696664658
0.214000000000000024,123.655768983857598187
0.215000000000000024,121.989805912239219765
0.216000000000000025,120.339453972196182008
0.217000000000000026,118.704319986371388040
0.218000000000000027,117.083800834751244224
0.219000000000000028,115.477188410073495106
0.220000000000000029,113.883753131801853442
0.221000000000000030,112.302805345676887327
0.222000000000000031,110.733736374068215014
0.223000000000000032,109.176042214300238697
0.224000000000000032,107.629333332812208823
0.225000000000000033,106.093333971029323948
0.226000000000000034,104.567874070155681920
0.227000000000000035,103.052876475601735251
0.228000000000000036,101.548341588061035168
0.229000000000000037,100.054331143903439738
0.230000000000000038,98.570952365353292635
0.231000000000000039,97.098343337513469464
0.232000000000000040,95.636660150635577793
0.233000000000000040,94.186066091296964942
0.234000000000000041,92.746722970475687475
0.235000000000000042,91.318784532923956476
0.236000000000000043,89.902391792876272802
0.237000000000000044,88.497670078103368496
0.238000000000000045,87.104727530206872643
0.239000000000000046,85.723654797179477782
0.240000000000000047,84.354525658827483880
0.241000000000000048,82.997398341800504795
0.242000000000000048,81.652317304689319144
0.243000000000000049,80.319315301741838198
0.244000000000000050,78.998415563743236589
0.245000000000000051,77.689633964630985474
0.246000000000000052,76.392981071150416028
0.247000000000000053,75.108463999368410668
0.248000000000000054,73.836088025596069429
0.249000000000000055,72.575857919919585015
0.250000000000000056,71.327778988010393846
0.251000000000000056,70.091857821240367343
0.252000000000000057,68.868102766529233350
0.253000000000000058,67.656524136045874229
0.254000000000000059,66.457134183145228690
0.255000000000000060,65.269946875063041603
0.256000000000000061,64.094977495210784468
0.257000000000000062,62.932242108719968599
0.258000000000000063,61.781756924457269520
0.259000000000000064,60.643537585334492235
0.260000000000000064,59.517598416600982603
0.261000000000000065,58.403951659144169639
0.262000000000000066,57.302606711807683837
0.263000000000000067,56.213569403527024804
0.264000000000000068,55.136841312800903836
0.265000000000000069,54.072419148765604291
0.266000000000000070,53.020294205006052835
0.267000000000000071,51.980451894275589098
0.268000000000000071,50.952871369559758818
0.269000000000000072,49.937525234432634136
0.270000000000000073,48.934379343439289300
0.271000000000000074,47.943392691303110098
0.272000000000000075,46.964517388099963568
0.273000000000000076,45.997698716158325283
0.274000000000000077,45.042875263322372348
0.275000000000000078,44.099979126337494506
0.276000000000000079,43.168936177469149129
0.277000000000000079,42.249666387020241132
0.278000000000000080,41.342084194157109778
0.279000000000000081,40.446098918357698437
0.280000000000000082,39.561615203845953204
0.281000000000000083,38.688533489545044119
0.282000000000000084,37.826750497355867253
0.283000000000000085,36.976159731922734863
0.284000000000000086,36.136651985469036674
0.285000000000000087,35.308115841760105980
0.286000000000000087,34.490438173757667073
0.287000000000000088,33.683504630062586216
0.288000000000000089,32.887200105787179893
0.289000000000000090,32.101409194044308038
0.290000000000000091,31.326016614781753589
0.291000000000000092,30.560907618216599957
0.292000000000000093,29.805968360633492864
0.293000000000000094,29.061086250795028718
0.294000000000000095,28.326150265669561179
0.295000000000000095,27.601051234608185325
0.296000000000000096,26.885682091497805857
0.297000000000000097,26.179938094777572388
0.298000000000000098,25.483717015533510875
0.299000000000000099,24.796919294178003668
0.300000000000000100,24.119448166480832896
0.301000000000000101,23.451209759943047573
0.302000000000000102,22.792113161700438440
0.303000000000000103,22.142070459305251973
0.304000000000000103,21.500996755870939836
0.305000000000000104,20.868810161170991080
0.306000000000000105,20.245431760365399043
0.307000000000000106,19.630785562086789042
0.308000000000000107,19.024798427655134958
0.309000000000000108,18.427399983207756407
0.310000000000000109,17.838522516530243678
0.311000000000000110,17.258100860359682827
0.312000000000000111,16.686072263899326629
0.313000000000000111,16.122376254243878435
0.314000000000000112,15.566954489360762537
0.315000000000000113,15.019750604211500544
0.316000000000000114,14.480710051528390636
0.317000000000000115,13.949779938686651448
0.318000000000000116,13.426908862032245651
0.319000000000000117,12.912046739942317330
0.320000000000000118,12.405144645809370374
0.321000000000000119,11.906154642052360515
0.322000000000000119,11.415029616170190963
0.323000000000000120,10.931723119765390351
0.324000000000000121,10.456189211377541426
0.325000000000000122,9.988382303881369495
0.326000000000000123,9.528257017120269623
0.327000000000000124,9.075768036364518565
0.328000000000000125,8.630869977105163571
0.329000000000000126,8.193517256619255562
0.330000000000000127,7.763663972669692548
0.331000000000000127,7.341263789635131154
0.332000000000000128,6.926269832300252283
0.333000000000000129,6.518634587476054953
0.334000000000000130,6.118309813563143962
0.335000000000000131,5.725246458117315917
0.336000000000000132,5.339394583428838104
0.337000000000000133,4.960703300080711919
0.338000000000000134,4.589120708409918592
0.339000000000000135,4.224593847759330778
0.340000000000000135,3.867068653372178311
0.341000000000000136,3.516489920752292164
0.342000000000000137,3.172801277285343780
0.343000000000000138,2.835945160893431627
0.344000000000000139,2.505862805473805466
0.345000000000000140,2.182494232856063476
0.346000000000000141,1.865778250996454890
0.347000000000000142,1.555652458116393744
0.348000000000000143,1.252053252482251633
0.349000000000000143,0.954915847516397798
0.350000000000000144,0.664174291924049975
0.351000000000000145,0.379761494517743659
0.352000000000000146,0.101609253419237031
0.353000000000000147,-0.170351710680240270
0.354000000000000148,-0.436191717519198718
0.355000000000000149,-0.695982086838756175
0.356000000000000150,-0.949795094838806642
0.357000000000000151,-1.197703927821579306
0.358000000000000151,-1.439782633319825589
0.359000000000000152,-1.676106068999371201
0.360000000000000153,-1.906749849617667802
0.361000000000000154,-2.131790292310212109
0.362000000000000155,-2.351304360468152499
0.363000000000000156,-2.565369606459490193
0.364000000000000157,-2.774064113436188972
0.365000000000000158,-2.977466436459087262
0.366000000000000159,-3.175655543160670558
0.367000000000000159,-3.368710754155833431
0.368000000000000160,-3.556711683398407153
0.369000000000000161,-3.739738178670800384
0.370000000000000162,-3.917870262382652236
0.371000000000000163,-4.091188072843014112
0.372000000000000164,-4.259771806159977636
0.373000000000000165,-4.423701658910426104
0.374000000000000166,-4.583057771712440776
0.375000000000000167,-4.737920173821509096
0.376000000000000167,-4.888368728862660717
0.377000000000000168,-5.034483081799860038
0.378000000000000169,-5.176342607234654558
0.379000000000000170,-5.314026359116756915
0.380000000000000171,-5.447613021940428624
0.381000000000000172,-5.577180863491349783
0.382000000000000173,-5.702807689200954044
0.383000000000000174,-5.824570798156956108
0.384000000000000175,-5.942546940811133993
0.385000000000000175,-6.056812278418239437
0.386000000000000176,-6.167442344233418083
0.387000000000000177,-6.274512006488109250
0.388000000000000178,-6.378095433159342242
0.389000000000000179,-6.478266058540528505
0.390000000000000180,-6.575096551617079399
0.391000000000000181,-6.668658786244824555
0.392000000000000182,-6.759023813124184876
0.393000000000000183,-6.846261833559131205
0.394000000000000183,-6.930442174985242509
0.395000000000000184,-7.011633268247882356
0.396000000000000185,-7.089902626607546665
0.397000000000000186,-7.165316826446435527
0.398000000000000187,-7.237941489647435667
0.399000000000000188,-7.307841267613817138
0.400000000000000189,-7.375079826895492019
0.401000000000000190,-7.439719836385957130
0.402000000000000191,-7.501822956051500846
0.403000000000000191,-7.561449827152989300
0.404000000000000192,-7.618660063918971659
0.405000000000000193,-7.673512246627389288
0.406000000000000194,-7.726063916052416047
0.407000000000000195,-7.776371569231744552
0.408000000000000196,-7.824490656509100361
0.409000000000000197,-7.870475579806205602
0.410000000000000198,-7.914379692078024497
0.411000000000000199,-7.956255297904569090
0.412000000000000199,-7.996153655173190877
0.413000000000000200,-8.034124977804196988
0.414000000000000201,-8.070218439473920924
0.415000000000000202,-8.104482178288687777
0.416000000000000203,-8.136963302363975359
0.417000000000000204,-8.167707896263397771
0.418000000000000205,-8.196761028252566916
0.419000000000000206,-8.224166758323583792
0.420000000000000207,-8.249968146946507375
0.421000000000000207,-8.274207264505111681
0.422000000000000208,-8.296925201374511616
0.423000000000000209,-8.318162078599863563
0.424000000000000210,-8.337957059135487015
0.425000000000000211,-8.356348359605123122
0.426000000000000212,-8.373373262545033668
0.427000000000000213,-8.389068129092288828
0.428000000000000214,-8.403468412082066408
0.429000000000000214,-8.416608669518517161
0.430000000000000215,-8.428522578384963992
0.431000000000000216,-8.439242948760240282
0.432000000000000217,-8.448801738209095191
0.433000000000000218,-8.457230066415606373
0.434000000000000219,-8.464558230029757269
0.435000000000000220,-8.470815717698430447
0.436000000000000221,-8.476031225252999235
0.437000000000000222,-8.480232671026993074
0.438000000000000222,-8.483447211278335232
0.439000000000000223,-8.485701255691694200
0.440000000000000224,-8.487020482937573718
0.441000000000000225,-8.487429856265810812
0.442000000000000226,-8.486953639112304160
0.443000000000000227,-8.485615410698503780
0.444000000000000228,-8.483438081604726122
0.445000000000000229,-8.480443909298731597
0.446000000000000230,-8.476654513602380092
0.447000000000000230,-8.472090892080132107
0.448000000000000231,-8.466773435333786679
0.449000000000000232,-8.460721942188936140
0.450000000000000233,-8.453955634759740434
0.451000000000000234,-8.446493173378822661
0.452000000000000235,-8.438352671380759062
0.453000000000000236,-8.429551709727599373
0.454000000000000237,-8.420107351466414869
0.455000000000000238,-8.410036156009002895
0.456000000000000238,-8.399354193224969123
0.457000000000000239,-8.388077057340073139
0.458000000000000240,-8.376219880632266523
0.459000000000000241,-8.363797346918598663
0.460000000000000242,-8.350823704826941807
0.461000000000000243,-8.337312780846760418
0.462000000000000244,-8.323277992154213933
0.463000000000000245,-8.308732359206768336
0.464000000000000246,-8.293688518103959240
0.465000000000000246,-8.278158732710497958
0.466000000000000247,-8.262154906539100452
0.467000000000000248,-8.245688594390596649
0.468000000000000249,-8.228771013749398122
0.469000000000000250,-8.211413055932787586
0.470000000000000251,-8.193625296992994578
0.471000000000000252,-8.175418008371210021
0.472000000000000253,-8.156801167303544986
0.473000000000000254,-8.137784466978461140
0.474000000000000254,-8.118377326446511333
0.475000000000000255,-8.098588900282674530
0.476000000000000256,-8.078428088002500118
0.477000000000000257,-8.057903543233146948
0.478000000000000258,-8.037023682640908717
0.479000000000000259,-8.015796694616863505
0.480000000000000260,-7.994230547722795954
0.481000000000000261,-7.972332998899354095
0.482000000000000262,-7.950111601438988984
0.483000000000000262,-7.927573712726251998
0.484000000000000263,-7.904726501748020162
0.485000000000000264,-7.881576956376792786
0.486000000000000265,-7.858131890429942423
0.487000000000000266,-7.834397950508076747
0.488000000000000267,-7.810381622615961028
0.489000000000000268,-7.786089238569289250
0.490000000000000269,-7.761526982190845914
0.491000000000000270,-7.736700895299662761
0.492000000000000270,-7.711616883496854591
0.493000000000000271,-7.686280721751859168
0.494000000000000272,-7.660698059792947490
0.495000000000000273,-7.634874427305748057
0.496000000000000274,-7.608815238943845038
0.497000000000000275,-7.582525799155237500
0.498000000000000276,-7.556011306828766649
0.499000000000000277,-7.529276859764412855
0.500000000000000222,-7.502327458971450369
0.501000000000000334,-7.475168012798606654
0.502000000000000224,-7.447803340900082780
0.503000000000000336,-7.420238178041539179
0.504000000000000226,-7.392477177750086170
0.505000000000000338,-7.364524915812142858
0.506000000000000227,-7.336385893623289967
0.507000000000000339,-7.308064541393983760
0.508000000000000229,-7.279565221215081650
0.509000000000000341,-7.250892229987009330
0.510000000000000231,-7.222049802216650605
0.511000000000000343,-7.193042112685458456
0.512000000000000233,-7.163873278992890725
0.513000000000000345,-7.134547363978628098
0.514000000000000234,-7.105068378027631582
0.515000000000000346,-7.075440281261217379
0.516000000000000236,-7.045666985618224132
0.517000000000000348,-7.015752356829447756
0.518000000000000238,-6.985700216289133735
0.519000000000000350,-6.955514342826694119
0.520000000000000240,-6.925198474382218805
0.521000000000000352,-6.894756309589075371
0.522000000000000242,-6.864191509266762914
0.523000000000000353,-6.833507697827340799
0.524000000000000243,-6.802708464598467231
0.525000000000000355,-6.771797365066215768
0.526000000000000245,-6.740777922040666503
0.527000000000000357,-6.709653626747126509
0.528000000000000247,-6.678427939846014461
0.529000000000000359,-6.647104292384128144
0.530000000000000249,-6.615686086680104161
0.531000000000000361,-6.584176697146729040
0.532000000000000250,-6.552579471052780491
0.533000000000000362,-6.520897729226922124
0.534000000000000252,-6.489134766706169621
0.535000000000000364,-6.457293853331352196
0.536000000000000254,-6.425378234292042912
0.537000000000000366,-6.393391130623036211
0.538000000000000256,-6.361335739654967014
0.539000000000000368,-6.329215235420875274
0.540000000000000258,-6.297032769021224219
0.541000000000000369,-6.264791468949076680
0.542000000000000259,-6.232494441377764538
0.543000000000000371,-6.200144770412722828
0.544000000000000261,-6.167745518309573072
0.545000000000000373,-6.135299725660173564
0.546000000000000263,-6.102810411548504455
0.547000000000000375,-6.070280573677894864
0.548000000000000265,-6.037713188471661496
0.549000000000000377,-6.005111211148220107
0.550000000000000266,-5.972477575772776603
0.551000000000000378,-5.939815195286634264
0.552000000000000268,-5.907126961515890784
0.553000000000000380,-5.874415745160737501
0.554000000000000270,-5.841684395766846727
0.555000000000000382,-5.808935741679933429
0.556000000000000272,-5.776172589985099748
0.557000000000000384,-5.743397726431691552
0.558000000000000274,-5.710613915345359892
0.559000000000000385,-5.677823899527925100
0.560000000000000275,-5.645030400146552552
0.561000000000000387,-5.612236116612957737
0.562000000000000277,-5.579443726453785501
0.563000000000000389,-5.546655885173082723
0.564000000000000279,-5.513875226107755267
0.565000000000000391,-5.481104360276846776
0.566000000000000281,-5.448345876225561213
0.567000000000000393,-5.415602339864689085
0.568000000000000282,-5.382876294306376153
0.569000000000000394,-5.350170259696717778
0.570000000000000284,-5.317486733046118630
0.571000000000000396,-5.284828188057867138
0.572000000000000286,-5.252197074955737399
0.573000000000000398,-5.219595820310963141
0.574000000000000288,-5.187026826869443497
0.575000000000000400,-5.154492473379442607
0.576000000000000290,-5.121995114420520245
0.577000000000000401,-5.089537080233936805
0.578000000000000291,-5.057120676555193484
0.579000000000000403,-5.024748184448998956
0.580000000000000293,-4.992421860147148394
0.581000000000000405,-4.960143934889547523
0.582000000000000295,-4.927916614768987458
0.583000000000000407,-4.895742080579688960
0.584000000000000297,-4.863622487670177463
0.585000000000000409,-4.831559965800626522
0.586000000000000298,-4.799556619005030278
0.587000000000000410,-4.767614525458350627
0.588000000000000300,-4.735735737348987229
0.589000000000000412,-4.703922280756627217
0.590000000000000302,-4.672176155535834319
0.591000000000000414,-4.640499335205423570
0.592000000000000304,-4.608893766843867645
0.593000000000000416,-4.577361370990741030
0.594000000000000306,-4.545904041554574171
0.595000000000000417,-4.514523645726923107
0.596000000000000307,-4.483222023903030262
0.597000000000000419,-4.452000989608976944
0.598000000000000309,-4.420862329435506055
0.599000000000000421,-4.389807802978499041
0.600000000000000311,-4.358839142786246512
0.601000000000000423,-4.327958054313434388
0.602000000000000313,-4.297166215882033846
0.603000000000000425,-4.266465278648878368
0.604000000000000314,-4.235856866580261837
0.605000000000000426,-4.205342576433177548
0.606000000000000316,-4.174923977743532966
0.607000000000000428,-4.144602612821067567
0.608000000000000318,-4.114379996751156732
0.609000000000000430,-4.084257617403214802
0.610000000000000320,-4.054236935445997503
0.611000000000000432,-4.024319384369358765
0.612000000000000322,-3.994506370512787008
0.613000000000000433,-3.964799273100376720
0.614000000000000323,-3.935199444282339698
0.615000000000000435,-3.905708209182900070
0.616000000000000325,-3.876326865954546896
0.617000000000000437,-3.847056685838501799
0.618000000000000327,-3.817898913231445590
0.619000000000000439,-3.788854765758203680
0.620000000000000329,-3.759925434350531503
0.621000000000000441,-3.731112083331750817
0.622000000000000330,-3.702415850507174699
0.623000000000000442,-3.673837847260247091
0.624000000000000332,-3.645379158654269869
0.625000000000000444,-3.617040843539586881
0.626000000000000334,-3.588823934666216964
0.627000000000000446,-3.560729438801632174
0.628000000000000336,-3.532758336853793146
0.629000000000000448,-3.504911583999158697
0.630000000000000338,-3.477190109815651020
0.631000000000000449,-3.449594818420375297
0.632000000000000339,-3.422126588612070641
0.633000000000000451,-3.394786274018076089
0.634000000000000341,-3.367574703245785450
0.635000000000000453,-3.340492680038381401
0.636000000000000343,-3.313540983434803966
0.637000000000000455,-3.286720367933732234
0.638000000000000345,-3.260031563661647702
0.639000000000000457,-3.233475276544544919
0.640000000000000346,-3.207052188483561217
0.641000000000000458,-3.180762957533985968
0.642000000000000348,-3.154608218087938010
0.643000000000000460,-3.128588581060216978
0.644000000000000350,-3.102704634077501744
0.645000000000000462,-3.076956941670569101
0.646000000000000352,-3.051346045469580659
0.647000000000000464,-3.025872464402113771
0.648000000000000353,-3.000536694894124778
0.649000000000000465,-2.975339211073322776
0.650000000000000355,-2.950280464975273187
0.651000000000000467,-2.925360886751721345
0.652000000000000357,-2.900580884881353683
0.653000000000000469,-2.875940846382599947
0.654000000000000359,-2.851441137028623896
0.655000000000000471,-2.827082101564145855
0.656000000000000361,-2.802864063924242366
0.657000000000000473,-2.778787327454726785
0.658000000000000362,-2.754852175134316461
0.659000000000000474,-2.731058869798208999
0.660000000000000364,-2.707407654363175098
0.661000000000000476,-2.683898752053870407
0.662000000000000366,-2.660532366630477874
0.663000000000000478,-2.637308682617387490
