# CNT15_GAN
# h[nm],U(h)[kJ/mol]
0.200000000000000011,65.822044896022873672
0.201000000000000012,65.025055435336227561
0.202000000000000013,63.823600936636964320
0.203000000000000014,62.452459625551867362
0.204000000000000015,61.038764760927868736
0.205000000000000016,59.643758404016196550
0.206000000000000016,58.290411587002417093
0.207000000000000017,56.981198643317455321
0.208000000000000018,55.709121358255721645
0.209000000000000019,54.464195851968590034
0.210000000000000020,53.236965660714687942
0.211000000000000021,52.020130209406360677
0.212000000000000022,50.809034479501875126
0.213000000000000023,49.601519537944966487
0.214000000000000024,48.397459259409671972
0.215000000000000024,47.198186874324576934
0.216000000000000025,46.005931532649242399
0.217000000000000026,44.823329164467310193
0.218000000000000027,43.653035592249089802
0.219000000000000028,42.497447251930381640
0.220000000000000029,41.358521734994013741
0.221000000000000030,40.237683578170731380
0.222000000000000031,39.135798088549663021
0.223000000000000032,38.053195938891619221
0.224000000000000032,36.989732718499830355
0.225000000000000033,35.944869845271412601
0.226000000000000034,34.917765751612030556
0.227000000000000035,33.907368746249893832
0.228000000000000036,32.912505245970180567
0.229000000000000037,31.931959071817516360
0.230000000000000038,30.964539176363576445
0.231000000000000039,30.009134511826800917
0.232000000000000040,29.064755784955345064
0.233000000000000040,28.130564607587217552
0.234000000000000041,27.205891080972016027
0.235000000000000042,26.290241187455315242
0.236000000000000043,25.383295543267262673
0.237000000000000044,24.484901125696715951
0.238000000000000045,23.595057557333451115
0.239000000000000046,22.713899435241554414
0.240000000000000047,21.841676055329340755
0.241000000000000048,20.978729719117843899
0.242000000000000048,20.125473635159671915
0.243000000000000049,19.282370250869668382
0.244000000000000050,18.449910680094429694
0.245000000000000051,17.628595732664656737
0.246000000000000052,16.818918907894509829
0.247000000000000053,16.021351586468718153
0.248000000000000054,15.236330545209790799
0.249000000000000055,14.464247826788005469
0.250000000000000056,13.705442920842340726
0.251000000000000056,12.960197153100697420
0.252000000000000057,12.228730133520153700
0.253000000000000058,11.511198081656228709
0.254000000000000059,10.807693825790213538
0.255000000000000060,10.118248260187957754
0.256000000000000061,9.442833040679415646
0.257000000000000062,8.781364301086052038
0.258000000000000063,8.133707180550215909
0.259000000000000064,7.499680963340765061
0.260000000000000064,6.879064647164094382
0.261000000000000065,6.271602772482851584
0.262000000000000066,5.677011363048030113
0.263000000000000067,5.094983846131169614
0.264000000000000068,4.525196839257760395
0.265000000000000069,3.967315708157417298
0.266000000000000070,3.420999817823084932
0.267000000000000071,2.885907414751249789
0.268000000000000071,2.361700093437825387
0.269000000000000072,1.848046813905481311
0.270000000000000073,1.344627449370056294
0.271000000000000074,0.851135854089517307
0.272000000000000075,0.367282450986842479
0.273000000000000076,-0.107203653163565088
0.274000000000000077,-0.572573010291223095
0.275000000000000078,-1.029054610944241999
0.276000000000000079,-1.476855076625227525
0.277000000000000079,-1.916158236094840372
0.278000000000000080,-2.347125054614025430
0.279000000000000081,-2.769893883366367771
0.280000000000000082,-3.184580995316808494
0.281000000000000083,-3.591281373430541102
0.282000000000000084,-3.990069717403218696
0.283000000000000085,-4.381001635756228474
0.284000000000000086,-4.764114991249210007
0.285000000000000087,-5.139431368980006631
0.286000000000000087,-5.506957638215835615
0.287000000000000088,-5.866687580864995866
0.288000000000000089,-6.218603561502755284
0.289000000000000090,-6.562678215960201733
0.290000000000000091,-6.898876137627100391
0.291000000000000092,-7.227155542775403951
0.292000000000000093,-7.547469898344734140
0.293000000000000094,-7.859769497721262432
0.294000000000000095,-8.164002972063617136
0.295000000000000095,-8.460118726667975153
0.296000000000000096,-8.748066293703219642
0.297000000000000097,-9.027797594378286661
0.298000000000000098,-9.299268105217848301
0.299000000000000099,-9.562437924616109086
0.300000000000000100,-9.817272737207835220
0.301000000000000101,-10.063744674841828441
0.302000000000000102,-10.301833074063493356
0.303000000000000103,-10.531525131015852637
0.304000000000000103,-10.752816455551824859
0.305000000000000104,-10.965711527123030322
0.306000000000000105,-11.170224055674847108
0.307000000000000106,-11.366377251340020749
0.308000000000000107,-11.554204007191174242
0.309000000000000108,-11.733746999690728430
0.310000000000000109,-11.905058711773627067
0.311000000000000110,-12.068201383718122344
0.312000000000000111,-12.223246897112499454
0.313000000000000111,-12.370276597313711875
0.314000000000000112,-12.509381059827244798
0.315000000000000113,-12.640659806019948874
0.316000000000000114,-12.764220973515973512
0.317000000000000115,-12.880180946525408459
0.318000000000000116,-12.988663951221358417
0.319000000000000117,-13.089801621118628105
0.320000000000000118,-13.183732537220510750
0.321000000000000119,-13.270601747494220390
0.322000000000000119,-13.350560270013028585
0.323000000000000120,-13.423764583868969424
0.324000000000000121,-13.490376111716980034
0.325000000000000122,-13.550560697561587986
0.326000000000000123,-13.604488083145156452
0.327000000000000124,-13.652331386042732220
0.328000000000000125,-13.694266582316632963
0.329000000000000126,-13.730471996334131290
0.330000000000000127,-13.761127800107024299
0.331000000000000127,-13.786415524273166966
0.332000000000000128,-13.806517582608275774
0.333000000000000129,-13.821616811733084873
0.334000000000000130,-13.831896027466072496
0.335000000000000131,-13.837537599067621485
0.336000000000000132,-13.838723042425987941
0.337000000000000133,-13.835632633051574203
0.338000000000000134,-13.828445039572098807
0.339000000000000135,-13.817336978258168756
0.340000000000000135,-13.802482888957154472
0.341000000000000136,-13.784054632671523422
0.342000000000000137,-13.762221210887565448
0.343000000000000138,-13.737148506640039614
0.344000000000000139,-13.708999047188783038
0.345000000000000140,-13.677931788083151687
0.346000000000000141,-13.644101918300018284
0.347000000000000142,-13.607660686060077282
0.348000000000000143,-13.568755244855205788
0.349000000000000143,-13.527528519155898934
0.350000000000000144,-13.484119089212512677
0.351000000000000145,-13.438661094315872191
0.352000000000000146,-13.391284153842599736
0.353000000000000147,-13.342113305376233967
0.354000000000000148,-13.291268959168089481
0.355000000000000149,-13.238866868179922420
0.356000000000000150,-13.185018112934679735
0.357000000000000151,-13.129829100390413288
0.358000000000000151,-13.073401576046355999
0.359000000000000152,-13.015832648487968726
0.360000000000000153,-12.957214825579924877
0.361000000000000154,-12.897636061521424722
0.362000000000000155,-12.837179813986873356
0.363000000000000156,-12.775925110586838329
0.364000000000000157,-12.713946623897987465
0.365000000000000158,-12.651314754327751544
0.366000000000000159,-12.588095720097303598
0.367000000000000159,-12.524351653647139315
0.368000000000000160,-12.460140703790958838
0.369000000000000161,-12.395517142966591351
0.370000000000000162,-12.330531478956485714
0.371000000000000163,-12.265230570475441851
0.372000000000000164,-12.199657746048160334
0.373000000000000165,-12.133852925625578933
0.374000000000000166,-12.067852744414858890
0.375000000000000167,-12.001690678424285608
0.376000000000000167,-11.935397171250901494
0.377000000000000168,-11.868999761664781545
0.378000000000000169,-11.802523211570079553
0.379000000000000170,-11.735989633948863187
0.380000000000000171,-11.669418620418904098
0.381000000000000172,-11.602827368061968016
0.382000000000000173,-11.536230805203084415
0.383000000000000174,-11.469641715845643404
0.384000000000000175,-11.403070862489954607
0.385000000000000175,-11.336527107085633048
0.386000000000000176,-11.270017529889987173
0.387000000000000177,-11.203547546025463433
0.388000000000000178,-11.137121019549811152
0.389000000000000179,-11.070740374871647305
0.390000000000000180,-11.004406705363269481
0.391000000000000181,-10.938119879040041127
0.392000000000000182,-10.871878641193012172
0.393000000000000183,-10.805680713877418242
0.394000000000000183,-10.739522892175264346
0.395000000000000184,-10.673401137164841401
0.396000000000000185,-10.607310665543543848
0.397000000000000186,-10.541246035863801822
0.398000000000000187,-10.475201231353770126
0.399000000000000188,-10.409169739306120661
0.400000000000000189,-10.343144627028939553
0.401000000000000190,-10.277118614362763083
0.402000000000000191,-10.211084142777128392
0.403000000000000191,-10.145033441068488145
0.404000000000000192,-10.078958587689566428
0.405000000000000193,-10.012851569747267533
0.406000000000000194,-9.946704338713189486
0.407000000000000195,-9.880508862896869360
0.408000000000000196,-9.814257176737312349
0.409000000000000197,-9.747941426973579127
0.410000000000000198,-9.681553915759613105
0.411000000000000199,-9.615087140792427434
0.412000000000000199,-9.548533832526429066
0.413000000000000200,-9.481886988549701911
0.414000000000000201,-9.415139905200780035
0.415000000000000202,-9.348286206506561058
0.416000000000000203,-9.281319870524150417
0.417000000000000204,-9.214235253170723894
0.418000000000000205,-9.147027109626844066
0.419000000000000206,-9.079690613399588273
0.420000000000000207,-9.012221373132149438
0.421000000000000207,-8.944615447247425521
0.422000000000000208,-8.876869356512496978
0.423000000000000209,-8.808980094611417400
0.424000000000000210,-8.740945136812824146
0.425000000000000211,-8.672762446818477855
0.426000000000000212,-8.604430481878203807
0.427000000000000213,-8.535948196255420228
0.428000000000000214,-8.467315043126721008
0.429000000000000214,-8.398530974997379772
0.430000000000000215,-8.329596442713510740
0.431000000000000216,-8.260512393150094113
0.432000000000000217,-8.191280265652316928
0.433000000000000218,-8.121901987306202386
0.434000000000000219,-8.052379967112644366
0.435000000000000220,-7.982717089137143951
0.436000000000000221,-7.912916704705622806
0.437000000000000222,-7.842982623714759072
0.438000000000000222,-7.772919105123378358
0.439000000000000223,-7.702730846689307853
0.440000000000000224,-7.632422974014109407
0.441000000000000225,-7.562001028955990023
0.442000000000000226,-7.491470957469299030
0.443000000000000227,-7.420839096926594713
0.444000000000000228,-7.350112162977556984
0.445000000000000229,-7.279297235996702753
0.446000000000000230,-7.208401747169792095
0.447000000000000230,-7.137433464266981886
0.448000000000000231,-7.066400477148489401
0.449000000000000232,-6.995311183046565517
0.450000000000000233,-6.924174271665862079
0.451000000000000234,-6.852998710141835481
0.452000000000000235,-6.781793727895413681
0.453000000000000236,-6.710568801419794838
0.454000000000000237,-6.639333639033860202
0.455000000000000238,-6.568098165634362218
0.456000000000000238,-6.496872507477763570
0.457000000000000239,-6.425666977020452642
0.458000000000000240,-6.354492057844717046
0.459000000000000241,-6.283358389695829160
0.460000000000000242,-6.212276753654492722
0.461000000000000243,-6.141258057466737696
0.462000000000000244,-6.070313321052497990
0.463000000000000245,-5.999453662211941207
0.464000000000000246,-5.928690282547900203
0.465000000000000246,-5.858034453620829751
0.466000000000000247,-5.787497503351701766
0.467000000000000248,-5.717090802686833229
0.468000000000000249,-5.646825752537538712
0.469000000000000250,-5.576713771006133413
0.470000000000000251,-5.506766280908895084
0.471000000000000252,-5.436994697605230797
0.472000000000000253,-5.367410417141606160
0.473000000000000254,-5.298024804717394787
0.474000000000000254,-5.228849183479169938
0.475000000000000255,-5.159894823648834894
0.476000000000000256,-5.091172931990228356
0.477000000000000257,-5.022694641618015154
0.478000000000000258,-4.954471002151711545
0.479000000000000259,-4.886512970217212981
0.480000000000000260,-4.818831400297256984
0.481000000000000261,-4.751437035931611597
0.482000000000000262,-4.684340501267284296
0.483000000000000262,-4.617552292958260196
0.484000000000000263,-4.551082772413783673
0.485000000000000264,-4.484942158393712575
0.486000000000000265,-4.419140519948871138
0.487000000000000266,-4.353687769703917354
0.488000000000000267,-4.288593657479770727
0.489000000000000268,-4.223867764252309698
0.490000000000000269,-4.159519496443484066
0.491000000000000270,-4.095558080540895318
0.492000000000000270,-4.031992558041269881
0.493000000000000271,-3.968831780713227175
0.494000000000000272,-3.906084406174280765
0.495000000000000273,-3.843758893776743513
0.496000000000000274,-3.781863500797221889
0.497000000000000275,-3.720406278923780174
0.498000000000000276,-3.659395071035016489
0.499000000000000277,-3.598837508264968399
0.500000000000000222,-3.538741007347536716
0.501000000000000334,-3.479112768234188913
0.502000000000000224,-3.419959771978446472
0.503000000000000336,-3.361288778880469064
0.504000000000000226,-3.303106326885340227
0.505000000000000338,-3.245418730227967785
0.506000000000000227,-3.188232078318277374
0.507000000000000339,-3.131552234859411143
0.508000000000000229,-3.075384837192516763
0.509000000000000341,-3.019735295860870306
0.510000000000000231,-2.964608794386925261
0.511000000000000343,-2.910010289254910898
0.512000000000000233,-2.855944510092644162
0.513000000000000345,-2.802415960045291143
0.514000000000000234,-2.749428916334771600
0.515000000000000346,-2.696987430997540347
0.516000000000000236,-2.645095331794585114
0.517000000000000348,-2.593756223286592721
0.518000000000000238,-2.542973488068061894
0.519000000000000350,-2.492750288153565030
0.520000000000000240,-2.443089566510038058
0.521000000000000352,-2.393994048728560475
0.522000000000000242,-2.345466244829528257
0.523000000000000353,-2.297508451194942847
0.524000000000000243,-2.250122752621925848
0.525000000000000355,-2.203311024491328762
0.526000000000000245,-2.157074935045824482
0.527000000000000357,-2.111415947771436930
0.528000000000000247,-2.066335323877246832
0.529000000000000359,-2.021834124867392113
0.530000000000000249,-1.977913215200280961
0.531000000000000361,-1.934573265029460476
0.532000000000000250,-1.891814753021240136
0.533000000000000362,-1.849637969243735025
0.534000000000000252,-1.808043018122675205
0.535000000000000364,-1.767029821458936834
0.536000000000000254,-1.726598121503339245
0.537000000000000366,-1.686747484083852111
0.538000000000000256,-1.647477301781129722
0.539000000000000368,-1.608786797147654823
0.540000000000000258,-1.570675025966692839
0.541000000000000369,-1.533140880546568940
0.542000000000000259,-1.496183093046715040
0.543000000000000371,-1.459800238831282959
0.544000000000000261,-1.423990739846874298
0.545000000000000373,-1.388752868020615372
0.546000000000000263,-1.354084748675237204
0.547000000000000375,-1.319984363957571460
0.548000000000000265,-1.286449556277542428
0.549000000000000377,-1.253478031754130972
0.550000000000000266,-1.221067363665624850
0.551000000000000378,-1.189214995900992999
0.552000000000000268,-1.157918246409729957
0.553000000000000380,-1.127174310647362621
0.554000000000000270,-1.096980265014145139
0.555000000000000382,-1.067333070284283814
0.556000000000000272,-1.038229575023522200
0.557000000000000384,-1.009666518992543338
0.558000000000000274,-0.981640536534279406
0.559000000000000385,-0.954148159942747931
0.560000000000000275,-0.927185822811696148
0.561000000000000387,-0.900749863360916669
0.562000000000000277,-0.874836527738571790
0.563000000000000389,-0.849441973297718200
0.564000000000000279,-0.824562271845460493
0.565000000000000391,-0.800193412863108966
0.566000000000000281,-0.776331306695933199
0.567000000000000393,-0.752971787711063767
0.568000000000000282,-0.730110617422327524
0.569000000000000394,-0.707743487580627550
0.570000000000000284,-0.685866023228892230
0.571000000000000396,-0.664473785720333998
0.572000000000000286,-0.643562275699172792
0.573000000000000398,-0.623126936042688429
0.574000000000000288,-0.603163154763899478
0.575000000000000400,-0.583666267873946709
0.576000000000000290,-0.564631562203460780
0.577000000000000401,-0.546054278182220743
0.578000000000000291,-0.527929612576494511
0.579000000000000403,-0.510252721183426683
0.580000000000000293,-0.493018721482046174
0.581000000000000405,-0.476222695240324512
0.582000000000000295,-0.459859691077985300
0.583000000000000407,-0.443924726984582019
0.584000000000000297,-0.428412792792641217
0.585000000000000409,-0.413318852605521869
0.586000000000000298,-0.398637847179822535
0.587000000000000410,-0.384364696262117111
0.588000000000000300,-0.370494300879926519
0.589000000000000412,-0.357021545586767686
0.590000000000000302,-0.343941300661282701
0.591000000000000414,-0.331248424260416452
0.592000000000000304,-0.318937764526608714
0.593000000000000416,-0.307004161649100438
0.594000000000000306,-0.295442449879438296
0.595000000000000417,-0.284247459501249522
0.596000000000000307,-0.273414018754453259
0.597000000000000419,-0.262936955714092868
0.598000000000000309,-0.252811100123988219
0.599000000000000421,-0.243031285185371454
0.600000000000000311,-0.233592349300870972
0.601000000000000423,-0.224489137773992070
0.602000000000000313,-0.215716504464514985
0.603000000000000425,-0.207269313399977090
0.604000000000000314,-0.199142440343770405
0.605000000000000426,-0.191330774320002506
0.606000000000000316,-0.183829219095681312
0.607000000000000428,-0.176632694620463465
0.608000000000000318,-0.169736138424503025
0.609000000000000430,-0.163134506974719679
0.610000000000000320,-0.156822776989995694
0.611000000000000432,-0.150795946715713225
0.612000000000000322,-0.145049037158105770
0.613000000000000433,-0.139577093278902359
0.614000000000000323,-0.134375185150746590
0.615000000000000435,-0.129438409073885957
0.616000000000000325,-0.124761888654627742
0.617000000000000437,-0.120340775846087891
0.618000000000000327,-0.116170251951747086
0.619000000000000439,-0.112245528592325616
0.620000000000000329,-0.108561848636540864
0.621000000000000441,-0.105114487096258841
0.622000000000000330,-0.101898751986600852
0.623000000000000442,-0.098909985151539301
0.624000000000000332,-0.096143563055539227
0.625000000000000444,-0.093594897541820599
0.626000000000000334,-0.091259436557752399
0.627000000000000446,-0.089132664847997284
0.628000000000000336,-0.087210104615913928
0.629000000000000448,-0.085487316153813039
0.630000000000000338,-0.083959898442625497
0.631000000000000449,-0.082623489721536880
0.632000000000000339,-0.081473768028151400
0.633000000000000451,-0.080506451709763518
0.634000000000000341,-0.079717299906275518
0.635000000000000453,-0.079102113005363586
0.636000000000000343,-0.078656733070366705
0.637000000000000455,-0.078377044241583427
0.638000000000000345,-0.078258973111399205
0.639000000000000457,-0.078298489073886396
0.640000000000000346,-0.078491604649383651
0.641000000000000458,-0.078834375784625071
0.642000000000000348,-0.079322902128928535
0.643000000000000460,-0.079953327287021536
0.644000000000000350,-0.080721839049007330
0.645000000000000462,-0.081624669598026695
0.646000000000000352,-0.082658095696112724
0.647000000000000464,-0.083818438848790297
0.648000000000000353,-0.085102065448919142
0.649000000000000465,-0.086505386900296688
0.650000000000000355,-0.088024859721528723
0.651000000000000467,-0.089656985630667235
0.652000000000000357,-0.091398311611112698
0.653000000000000469,-0.093245429959278231
0.654000000000000359,-0.095194978314488657
0.655000000000000471,-0.097243639671595619
0.656000000000000361,-0.099388142376796121
0.657000000000000473,-0.101625260107107290
0.658000000000000362,-0.103951811833967817
0.659000000000000474,-0.106364661771401692
0.660000000000000364,-0.108860719309236659
0.661000000000000476,-0.111436938931774865
