# SS304-111_PHO-AC
# h[nm],U(h)[kJ/mol]
0.149999999999999994,117.209138423359490844
0.150999999999999995,113.083892673443330068
0.151999999999999996,108.950079443537248380
0.152999999999999997,104.835613244992444493
0.153999999999999998,100.771136881697742638
0.154999999999999999,96.780054758452664032
0.156000000000000000,92.876375564541106655
0.157000000000000001,89.066016194318791577
0.158000000000000002,85.349228584904352601
0.159000000000000002,81.723000187148684859
0.160000000000000003,78.182953692927512179
0.161000000000000004,74.724631853846858576
0.162000000000000005,71.344226608371897669
0.163000000000000006,68.038878824706415571
0.164000000000000007,64.806685358949451370
0.165000000000000008,61.646533456157314390
0.166000000000000009,58.557855762743109551
0.167000000000000010,55.540371494338785396
0.168000000000000010,52.593854999781413539
0.169000000000000011,49.717953721708923354
0.170000000000000012,46.912063524215184884
0.171000000000000013,44.175259950170598700
0.172000000000000014,41.506278309471085208
0.173000000000000015,38.903532669657423071
0.174000000000000016,36.365162993836932515
0.175000000000000017,33.889100159055530526
0.176000000000000018,31.473139853499578322
0.177000000000000018,29.115017995759576053
0.178000000000000019,26.812482066278839454
0.179000000000000020,24.563354408836922005
0.180000000000000021,22.365585041170110259
0.181000000000000022,20.217292755334245413
0.182000000000000023,18.116794274578275292
0.183000000000000024,16.062621973427674504
0.184000000000000025,14.053531185351067379
0.185000000000000026,12.088498449461557271
0.186000000000000026,10.166712218502690135
0.187000000000000027,8.287557598538935366
0.188000000000000028,6.450596647231778391
0.189000000000000029,4.655545649425556043
0.190000000000000030,2.902250638781494807
0.191000000000000031,1.190662260872223710
0.192000000000000032,-0.479189109069842356
0.193000000000000033,-2.107217260835038353
0.194000000000000034,-3.693302494035322070
0.195000000000000034,-5.237312006495123740
0.196000000000000035,-6.739118057628441072
0.197000000000000036,-8.198613756827146659
0.198000000000000037,-9.615726426039165275
0.199000000000000038,-10.990428566094694318
0.200000000000000039,-12.322746519254824449
0.201000000000000040,-13.612766967605599788
0.202000000000000041,-14.860641440195632157
0.203000000000000042,-16.066589023179933093
0.204000000000000042,-17.230897478620381236
0.205000000000000043,-18.353922980827451994
0.206000000000000044,-19.436088675896606048
0.207000000000000045,-20.477882261895445026
0.208000000000000046,-21.479852775319852043
0.209000000000000047,-22.442606755088927883
0.210000000000000048,-23.366803939441670224
0.211000000000000049,-24.253152634412824540
0.212000000000000050,-25.102404875732936773
0.213000000000000050,-25.915351489499720117
0.214000000000000051,-26.692817141181627960
0.215000000000000052,-27.435655447698707121
0.216000000000000053,-28.144744213661699206
0.217000000000000054,-28.820980840443382931
0.218000000000000055,-29.465277945654758440
0.219000000000000056,-30.078559220802617347
0.220000000000000057,-30.661755546386757487
0.221000000000000058,-31.215801376384632704
0.222000000000000058,-31.741631397904257028
0.223000000000000059,-32.240177466658579419
0.224000000000000060,-32.712365814739257530
0.225000000000000061,-33.159114523840933941
0.226000000000000062,-33.581331254508789641
0.227000000000000063,-33.979911220059499044
0.228000000000000064,-34.355735392463280675
0.229000000000000065,-34.709668926592300409
0.230000000000000066,-35.042559788754282124
0.231000000000000066,-35.355237575275104689
0.232000000000000067,-35.648512507001463234
0.233000000000000068,-35.923174585912590828
0.234000000000000069,-36.179992900506775300
0.235000000000000070,-36.419715067224160521
0.236000000000000071,-36.643066795843211025
0.237000000000000072,-36.850751567518692298
0.238000000000000073,-37.043450414884091515
0.239000000000000073,-37.221821794404100103
0.240000000000000074,-37.386501541916956626
0.241000000000000075,-37.538102903038016223
0.242000000000000076,-37.677216630795598462
0.243000000000000077,-37.804411143534103701
0.244000000000000078,-37.920232736738952894
0.245000000000000079,-38.025205843013324625
0.246000000000000080,-38.119833334966166660
0.247000000000000081,-38.204596866254192378
0.248000000000000081,-38.279957246459431985
0.249000000000000082,-38.346354845879119466
0.250000000000000111,-38.404210026660109634
0.251000000000000112,-38.453923597026495429
0.252000000000000113,-38.495877285632801090
0.253000000000000114,-38.530434233323269666
0.254000000000000115,-38.557939499801847205
0.255000000000000115,-38.578720582911763870
0.256000000000000116,-38.593087948398029141
0.257000000000000117,-38.601335568179550251
0.258000000000000118,-38.603741465293538226
0.259000000000000119,-38.600568263796446900
0.260000000000000120,-38.592063742015319860
0.261000000000000121,-38.578461387640629709
0.262000000000000122,-38.559980953242032342
0.263000000000000123,-38.536829010870270906
0.264000000000000123,-38.509199504485216892
0.265000000000000124,-38.477274299021217985
0.266000000000000125,-38.441223724969262321
0.267000000000000126,-38.401207117420355530
0.268000000000000127,-38.357373348577418426
0.269000000000000128,-38.309861352803999068
0.270000000000000129,-38.258800643337984582
0.271000000000000130,-38.204311819857764476
0.272000000000000131,-38.146507066145950660
0.273000000000000131,-38.085490637153739613
0.274000000000000132,-38.021359334825817200
0.275000000000000133,-37.954202972102422109
0.276000000000000134,-37.884104824570997039
0.277000000000000135,-37.811142069295208046
0.278000000000000136,-37.735386210403973450
0.279000000000000137,-37.656903491076583634
0.280000000000000138,-37.575755291613191389
0.281000000000000139,-37.491998513331473930
0.282000000000000139,-37.405685948080567016
0.283000000000000140,-37.316866633213166438
0.284000000000000141,-37.225586191903275335
0.285000000000000142,-37.131887158744021349
0.286000000000000143,-37.035809290603125987
0.287000000000000144,-36.937389862756752734
0.288000000000000145,-36.836663950362371622
0.289000000000000146,-36.733664695369242281
0.290000000000000147,-36.628423559001980436
0.291000000000000147,-36.520970559985762804
0.292000000000000148,-36.411334498714140295
0.293000000000000149,-36.299543167589725101
0.294000000000000150,-36.185623547794804722
0.295000000000000151,-36.069601992774813937
0.296000000000000152,-35.951504398739238866
0.297000000000000153,-35.831356362506326718
0.298000000000000154,-35.709183327034921263
0.299000000000000155,-35.585010715004102622
0.300000000000000155,-35.458864050814995039
0.301000000000000156,-35.330769071400844439
0.302000000000000157,-35.200751826242331788
0.303000000000000158,-35.068838766992755041
0.304000000000000159,-34.935056827124462586
0.305000000000000160,-34.799433492012539659
0.306000000000000161,-34.661996859874776078
0.307000000000000162,-34.522775693988663193
0.308000000000000163,-34.381799466606210558
0.309000000000000163,-34.239098394985568063
0.310000000000000164,-34.094703469956883168
0.311000000000000165,-33.948646477434934354
0.312000000000000166,-33.800960013286911021
0.313000000000000167,-33.651677491957848076
0.314000000000000168,-33.500833149248684606
0.315000000000000169,-33.348462039635236920
0.316000000000000170,-33.194600028507366574
0.317000000000000171,-33.039283779698600085
0.318000000000000171,-32.882550738666949997
0.319000000000000172,-32.724439111677511960
0.320000000000000173,-32.564987841326356488
0.321000000000000174,-32.404236578734952445
0.322000000000000175,-32.242225652732130925
0.323000000000000176,-32.078996036329726849
0.324000000000000177,-31.914589310785867582
0.325000000000000178,-31.749047627537901661
0.326000000000000179,-31.582413668275279406
0.327000000000000179,-31.414730603410141896
0.328000000000000180,-31.246042049191665058
0.329000000000000181,-31.076392023698264921
0.330000000000000182,-30.905824901929161541
0.331000000000000183,-30.734385370205920651
0.332000000000000184,-30.562118380082189617
0.333000000000000185,-30.389069101948628315
0.334000000000000186,-30.215282878508748610
0.335000000000000187,-30.040805178290185040
0.336000000000000187,-29.865681549345367785
0.337000000000000188,-29.689957573284420533
0.338000000000000189,-29.513678819773730311
0.339000000000000190,-29.336890801622899971
0.340000000000000191,-29.159638930573144933
0.341000000000000192,-28.981968473891743798
0.342000000000000193,-28.803924511866632940
0.343000000000000194,-28.625551896288165210
0.344000000000000195,-28.446895209995130216
0.345000000000000195,-28.267998727555486482
0.346000000000000196,-28.088906377143473492
0.347000000000000197,-27.909661703668081856
0.348000000000000198,-27.730307833200697587
0.349000000000000199,-27.550887438742677205
0.350000000000000200,-27.371442707367993563
0.351000000000000201,-27.192015308769288850
0.352000000000000202,-27.012646365230473577
0.353000000000000203,-26.833376423043546311
0.354000000000000203,-26.654245425382022461
0.355000000000000204,-26.475292686638777440
0.356000000000000205,-26.296556868231657944
0.357000000000000206,-26.118075955876015826
0.358000000000000207,-25.939887238318977580
0.359000000000000208,-25.762027287527665464
0.360000000000000209,-25.584531940318942844
0.361000000000000210,-25.407436281416160284
0.362000000000000210,-25.230774627914961172
0.363000000000000211,-25.054580515137693908
0.364000000000000212,-24.878886683853824735
0.365000000000000213,-24.703725068840991952
0.366000000000000214,-24.529126788760045486
0.367000000000000215,-24.355122137315099451
0.368000000000000216,-24.181740575668367654
0.369000000000000217,-24.009010726077899989
0.370000000000000218,-23.836960366725385541
0.371000000000000218,-23.665616427699845303
0.372000000000000219,-23.495004988102216714
0.373000000000000220,-23.325151274235260246
0.374000000000000221,-23.156079658842351421
0.375000000000000222,-22.987813661358096340
0.376000000000000223,-22.820375949134007243
0.377000000000000224,-22.653788339601238278
0.378000000000000225,-22.488071803333205878
0.379000000000000226,-22.323246467970072615
0.380000000000000226,-22.159331622967759046
0.381000000000000227,-21.996345725133757298
0.382000000000000228,-21.834306404912688038
0.383000000000000229,-21.673230473384556660
0.384000000000000230,-21.513133929938923927
0.385000000000000231,-21.354031970589279155
0.386000000000000232,-21.195938996891367623
0.387000000000000233,-21.038868625430779957
0.388000000000000234,-20.882833697844883858
0.389000000000000234,-20.727846291345564111
0.390000000000000235,-20.573917729709069846
0.391000000000000236,-20.421058594700802757
0.392000000000000237,-20.269278737902933329
0.393000000000000238,-20.118587292914099862
0.394000000000000239,-19.968992687890551707
0.395000000000000240,-19.820502658399597351
0.396000000000000241,-19.673124260556573262
0.397000000000000242,-19.526863884417505091
0.398000000000000242,-19.381727267600624032
0.399000000000000243,-19.237719509110522864
0.400000000000000244,-19.094845083339738068
0.401000000000000245,-18.953107854223404161
0.402000000000000246,-18.812511089523564323
0.403000000000000247,-18.673057475220172563
0.404000000000000248,-18.534749129987368121
0.405000000000000249,-18.397587619733901221
0.406000000000000250,-18.261573972187576942
0.407000000000000250,-18.126708691504614279
0.408000000000000251,-17.992991772885364554
0.409000000000000252,-17.860422717178970231
0.410000000000000253,-17.729000545459879135
0.411000000000000254,-17.598723813560695817
0.412000000000000255,-17.469590626545592471
0.413000000000000256,-17.341598653110427364
0.414000000000000257,-17.214745139895388348
0.415000000000000258,-17.089026925697574200
0.416000000000000258,-16.964440455571118349
0.417000000000000259,-16.840981794803390414
0.418000000000000260,-16.718646642756436194
0.419000000000000261,-16.597430346563506021
0.420000000000000262,-16.477327914671171527
0.421000000000000263,-16.358334030218212973
0.422000000000000264,-16.240443064242889193
0.423000000000000265,-16.123649088711033528
0.424000000000000266,-16.007945889357962699
0.425000000000000266,-15.893326978337549704
0.426000000000000267,-15.779785606672527720
0.427000000000000268,-15.667314776500665729
0.428000000000000269,-15.555907253111746158
0.429000000000000270,-15.445555576771024420
0.430000000000000271,-15.336252074325054551
0.431000000000000272,-15.227988870586468551
0.432000000000000273,-15.120757899494510212
0.433000000000000274,-15.014550915048767266
0.434000000000000274,-14.909359502013677101
0.435000000000000275,-14.805175086392020845
0.436000000000000276,-14.701988945665908304
0.437000000000000277,-14.599792218803875343
0.438000000000000278,-14.498575916033484390
0.439000000000000279,-14.398330928378843652
0.440000000000000280,-14.299048036962654251
0.441000000000000281,-14.200717922073124555
0.442000000000000282,-14.103331171995909799
0.443000000000000282,-14.006878291611707610
0.444000000000000283,-13.911349710760427811
0.445000000000000284,-13.816735792372989877
0.446000000000000285,-13.723026840371920443
0.447000000000000286,-13.630213107342601830
0.448000000000000287,-13.538284801976406158
0.449000000000000288,-13.447232096288052716
0.450000000000000289,-13.357045132608950766
0.451000000000000290,-13.267714030358845889
0.452000000000000290,-13.179228892598221279
0.453000000000000291,-13.091579812363765001
0.454000000000000292,-13.004756878789782704
0.455000000000000293,-12.918750183018099520
0.456000000000000294,-12.833549823899449649
0.457000000000000295,-12.749145913489268622
0.458000000000000296,-12.665528582340961350
0.459000000000000297,-12.582687984599790099
0.460000000000000298,-12.500614302900585173
0.461000000000000298,-12.419297753072564561
0.462000000000000299,-12.338728588654685581
0.463000000000000300,-12.258897105224752622
0.464000000000000301,-12.179793644545927833
0.465000000000000302,-12.101408598534014516
0.466000000000000303,-12.023732413049065926
0.467000000000000304,-11.946755591514811812
0.468000000000000305,-11.870468698369615268
0.469000000000000306,-11.794862362352350971
0.470000000000000306,-11.719927279627036398
0.471000000000000307,-11.645654216749546706
0.472000000000000308,-11.572034013480308801
0.473000000000000309,-11.499057585446360363
0.474000000000000310,-11.426715926656498823
0.475000000000000311,-11.355000111873021496
0.476000000000000312,-11.283901298843812100
0.477000000000000313,-11.213410730398045700
0.478000000000000314,-11.143519736409313481
0.479000000000000314,-11.074219735629622363
0.480000000000000315,-11.005502237397585930
0.481000000000000316,-10.937358843224597393
0.482000000000000317,-10.869781248262068374
0.483000000000000318,-10.802761242653390994
0.484000000000000319,-10.736290712773804756
0.485000000000000320,-10.670361642361683607
0.486000000000000321,-10.604966113544300299
0.487000000000000322,-10.540096307761517735
0.488000000000000322,-10.475744506590439542
0.489000000000000323,-10.411903092474315002
0.490000000000000324,-10.348564549358716391
0.491000000000000325,-10.285721463238100881
0.492000000000000326,-10.223366522615704000
0.493000000000000327,-10.161492518879839508
0.494000000000000328,-10.100092346599410575
0.495000000000000329,-10.039159003741595200
0.496000000000000330,-9.978685591814407729
0.497000000000000330,-9.918665315937047922
0.498000000000000331,-9.859091484840570629
0.499000000000000332,-9.799957510801728944
0.500000000000000333,-9.741256909512417295
0.501000000000000334,-9.682983299887395034
0.502000000000000335,-9.625130403812686808
0.503000000000000336,-9.567692045837244308
0.504000000000000337,-9.510662152810098746
0.505000000000000338,-9.454034753465458962
0.506000000000000338,-9.397803977958034238
0.507000000000000339,-9.341964057350718775
0.508000000000000340,-9.286509323056955978
0.509000000000000341,-9.231434206239820028
0.510000000000000342,-9.176733237169917956
0.511000000000000343,-9.122401044544151461
0.512000000000000344,-9.068432354767256953
0.513000000000000345,-9.014821991198136431
0.514000000000000346,-8.961564873362798167
0.515000000000000346,-8.908656016135713784
0.516000000000000347,-8.856090528891387592
0.517000000000000348,-8.803863614627919887
0.518000000000000349,-8.751970569064102534
0.519000000000000350,-8.700406779711816085
0.520000000000000351,-8.649167724925247214
0.521000000000000352,-8.598248972928457690
0.522000000000000353,-8.547646180822820128
0.523000000000000353,-8.497355093575695406
0.524000000000000354,-8.447371542991938043
0.525000000000000355,-8.397691446669313109
0.526000000000000356,-8.348310806939371886
0.527000000000000357,-8.299225709794963990
0.528000000000000358,-8.250432323805600987
0.529000000000000359,-8.201926899021893647
0.530000000000000360,-8.153705765870217448
0.531000000000000361,-8.105765334038697034
0.532000000000000361,-8.058102091355607399
0.533000000000000362,-8.010712602661159920
0.534000000000000363,-7.963593508673814547
0.535000000000000364,-7.916741524851897971
0.536000000000000365,-7.870153440251598909
0.537000000000000366,-7.823826116382176288
0.538000000000000367,-7.777756486059201002
0.539000000000000368,-7.731941552256778039
0.540000000000000369,-7.686378386959366260
0.541000000000000369,-7.641064130014131095
0.542000000000000370,-7.595995987984454523
0.543000000000000371,-7.551171233005307570
0.544000000000000372,-7.506587201641224283
0.545000000000000373,-7.462241293747456261
0.546000000000000374,-7.418130971334916168
0.547000000000000375,-7.374253757439551471
0.548000000000000376,-7.330607234996676880
0.549000000000000377,-7.287189045720813496
0.550000000000000377,-7.243996888991482308
0.551000000000000378,-7.201028520745535566
0.552000000000000379,-7.158281752376441709
0.553000000000000380,-7.115754449640928847
0.554000000000000381,-7.073444531573430893
0.555000000000000382,-7.031349969408793754
0.556000000000000383,-6.989468785513440530
0.557000000000000384,-6.947799052325575708
0.558000000000000385,-6.906338891304547367
0.559000000000000385,-6.865086471889833675
0.560000000000000386,-6.824040010469845541
0.561000000000000387,-6.783197769360889140
0.562000000000000388,-6.742558055796510352
0.563000000000000389,-6.702119220927445831
0.564000000000000390,-6.661879658832445372
0.565000000000000391,-6.621837805540148558
0.566000000000000392,-6.581992138062203068
0.567000000000000393,-6.542341173437824509
0.568000000000000393,-6.502883467789923877
0.569000000000000394,-6.463617615392950100
0.570000000000000395,-6.424542247752683011
0.571000000000000396,-6.385656032697899498
0.572000000000000397,-6.346957673484237894
0.573000000000000398,-6.308445907910188666
0.574000000000000399,-6.270119507445407692
0.575000000000000400,-6.231977276371346797
0.576000000000000401,-6.194018050934301911
0.577000000000000401,-6.156240698510961451
0.578000000000000402,-6.118644116786406073
0.579000000000000403,-6.081227232944669936
0.580000000000000404,-6.043989002871874128
0.581000000000000405,-6.006928410371920712
0.582000000000000406,-5.970044466394749172
0.583000000000000407,-5.933336208277186330
0.584000000000000408,-5.896802698996365777
0.585000000000000409,-5.860443026435651959
0.586000000000000409,-5.824256302663131102
0.587000000000000410,-5.788241663222544631
0.588000000000000411,-5.752398266436694385
0.589000000000000412,-5.716725292723234375
0.590000000000000413,-5.681221943922807327
0.591000000000000414,-5.645887442639464737
0.592000000000000415,-5.610721031593347341
0.593000000000000416,-5.575721972985461683
0.594000000000000417,-5.540889547874577659
0.595000000000000417,-5.506223055566165314
0.596000000000000418,-5.471721813013146196
0.597000000000000419,-5.437385154228622675
0.598000000000000420,-5.403212429710225528
0.599000000000000421,-5.369203005876193480
0.600000000000000422,-5.335356264512967073
0.601000000000000423,-5.301671602234252489
0.602000000000000424,-5.268148429951422074
0.603000000000000425,-5.234786172355160083
0.604000000000000425,-5.201584267408232876
0.605000000000000426,-5.168542165849273395
0.606000000000000427,-5.135659330707509795
