# SS304-111_PRO-AC
# h[nm],U(h)[kJ/mol]
0.149999999999999994,58.154411192014933363
0.150999999999999995,49.953142247861997305
0.151999999999999996,45.980777717045597797
0.152999999999999997,42.876392545301811765
0.153999999999999998,39.471228915938397108
0.154999999999999999,35.594644916846903016
0.156000000000000000,31.443577335316614807
0.157000000000000001,27.278217154867427041
0.158000000000000002,23.297859293974816808
0.159000000000000002,19.609498088045992148
0.160000000000000003,16.238728467859562699
0.161000000000000004,13.155349774078166192
0.162000000000000005,10.299772710381287055
0.163000000000000006,7.604239449191683597
0.164000000000000007,5.007179949637363237
0.165000000000000008,2.461170951284688879
0.166000000000000009,-0.064151009713665635
0.167000000000000010,-2.582675157407880118
0.168000000000000010,-5.094499453707079795
0.169000000000000011,-7.589595509614921909
0.170000000000000012,-10.051652722843442689
0.171000000000000013,-12.461582226433888465
0.172000000000000014,-14.800391472477674171
0.173000000000000015,-17.051312502569544449
0.174000000000000016,-19.201185835183952832
0.175000000000000017,-21.241176303347096166
0.176000000000000018,-23.166937075260939594
0.177000000000000018,-24.978352891762799715
0.178000000000000019,-26.678991322400094077
0.179000000000000020,-28.275378047215422583
0.180000000000000021,-29.776193727212948659
0.181000000000000022,-31.191469468697071932
0.182000000000000023,-32.531837610102691372
0.183000000000000024,-33.807876061094475517
0.184000000000000025,-35.029568522970343736
0.185000000000000026,-36.205889950963566548
0.186000000000000026,-37.344516585464518243
0.187000000000000027,-38.451652572025430743
0.188000000000000028,-39.531960280447364653
0.189000000000000029,-40.588578537555655146
0.190000000000000030,-41.623211713049457217
0.191000000000000031,-42.636272569411524103
0.192000000000000032,-43.627062668953890068
0.193000000000000033,-44.593975633528550873
0.194000000000000034,-45.534710434190387218
0.195000000000000034,-46.446483955970826685
0.196000000000000035,-47.326234187860478642
0.197000000000000036,-48.170807420121668940
0.198000000000000037,-48.977124713517369514
0.199000000000000038,-49.742324588909397676
0.200000000000000039,-50.463880344050053850
0.201000000000000040,-51.139691627576965516
0.202000000000000041,-51.768150891398910574
0.203000000000000042,-52.348186114210022879
0.204000000000000042,-52.879281759317052547
0.205000000000000043,-53.361480321536724603
0.206000000000000044,-53.795367054621884506
0.207000000000000045,-54.182040576825670541
0.208000000000000046,-54.523072051385199188
0.209000000000000047,-54.820455552977037428
0.210000000000000048,-55.076552080674467504
0.211000000000000049,-55.294029480481732719
0.212000000000000050,-55.475800311648185925
0.213000000000000050,-55.624959443836658579
0.214000000000000051,-55.744722917757862035
0.215000000000000052,-55.838369348907328060
0.216000000000000053,-55.909184909472799063
0.217000000000000054,-55.960412692546142921
0.218000000000000055,-55.995207049223985507
0.219000000000000056,-56.016593295500328509
0.220000000000000057,-56.027433013476333201
0.221000000000000058,-56.030395020887532098
0.222000000000000058,-56.027931954149053695
0.223000000000000059,-56.022262302352771712
0.224000000000000060,-56.015357641832338231
0.225000000000000061,-56.008934751655502282
0.226000000000000062,-56.004452238127313990
0.227000000000000063,-56.003111259400668587
0.228000000000000064,-56.005859917850273177
0.229000000000000065,-56.013400876240311277
0.230000000000000066,-56.026201752215627039
0.231000000000000066,-56.044507852666505698
0.232000000000000067,-56.068356823553031631
0.233000000000000068,-56.097594810433939472
0.234000000000000069,-56.131893748971279479
0.235000000000000070,-56.170769431936001581
0.236000000000000071,-56.213600028724826529
0.237000000000000072,-56.259644764237620507
0.238000000000000073,-56.308062495405280856
0.239000000000000073,-56.357929955062637362
0.240000000000000074,-56.408259463700744618
0.241000000000000075,-56.458015939473469302
0.242000000000000076,-56.506133065332484477
0.243000000000000077,-56.551528499059074306
0.244000000000000078,-56.593118037057841718
0.245000000000000079,-56.629828665942412158
0.246000000000000080,-56.660610457102691839
0.247000000000000081,-56.684447278560583072
0.248000000000000081,-56.700366315503551107
0.249000000000000082,-56.707446405969754721
0.250000000000000111,-56.704825211307976929
0.251000000000000112,-56.691705252330031328
0.252000000000000113,-56.667358851616974391
0.253000000000000114,-56.631132030334320859
0.254000000000000115,-56.582447414281332954
0.255000000000000115,-56.520806208860520314
0.256000000000000116,-56.445789306332969204
0.257000000000000117,-56.357057591244632988
0.258000000000000118,-56.254351511389963036
0.259000000000000119,-56.137489982239948461
0.260000000000000120,-56.006368692514875818
0.261000000000000121,-55.860957877634028534
0.262000000000000122,-55.701299626227594786
0.263000000000000123,-55.527504782844232523
0.264000000000000123,-55.339749507517218774
0.265000000000000124,-55.138271550045409697
0.266000000000000125,-54.923366293773412394
0.267000000000000126,-54.695382620386098438
0.268000000000000127,-54.454718643825152924
0.269000000000000128,-54.201817357941877162
0.270000000000000129,-53.937162238969563077
0.271000000000000130,-53.661272840368567927
0.272000000000000131,-53.374700414106634128
0.273000000000000131,-53.078023589012580885
0.274000000000000132,-52.771844133511748964
0.275000000000000133,-52.456782826835635092
0.276000000000000134,-52.133475459714745170
0.277000000000000135,-51.802568982624165983
0.278000000000000136,-51.464717816869246292
0.279000000000000137,-51.120580341177451089
0.280000000000000138,-50.770815564010909782
0.281000000000000139,-50.416079989531141337
0.282000000000000139,-50.057024683036388524
0.283000000000000140,-49.694292539750243520
0.284000000000000141,-49.328515759064956114
0.285000000000000142,-48.960313524731915891
0.286000000000000143,-48.590289890038221188
0.287000000000000144,-48.219031865706895701
0.288000000000000145,-47.847107707105109853
0.289000000000000146,-47.475065396328119505
0.290000000000000147,-47.103431313844083661
0.291000000000000147,-46.732709093625636854
0.292000000000000148,-46.363378655052173372
0.293000000000000149,-45.995895404333012380
0.294000000000000150,-45.630689597770064836
0.295000000000000151,-45.268165858839402915
0.296000000000000152,-44.908702840818797597
0.297000000000000153,-44.552653026514299484
0.298000000000000154,-44.200342656535980268
0.299000000000000155,-43.852071777535904573
0.300000000000000155,-43.508114401840927599
0.301000000000000156,-43.168718769985979122
0.302000000000000157,-42.834107707771053697
0.303000000000000158,-42.504479069624423460
0.304000000000000159,-42.180006260248234184
0.305000000000000160,-41.860838826746665120
0.306000000000000161,-41.547103113686887355
0.307000000000000162,-41.238902973814319353
0.308000000000000163,-40.936320527432329186
0.309000000000000163,-40.639416963759408929
0.310000000000000164,-40.348233377890153406
0.311000000000000165,-40.062791637307221038
0.312000000000000166,-39.783095272217408933
0.313000000000000167,-39.509130384313039031
0.314000000000000168,-39.240866568888321808
0.315000000000000169,-38.978257845566865569
0.316000000000000170,-38.721243593219753620
0.317000000000000171,-38.469749484971600850
0.318000000000000171,-38.223688419503204727
0.319000000000000172,-37.982961445164200143
0.320000000000000173,-37.747458673703711440
0.321000000000000174,-37.517060180714011608
0.322000000000000175,-37.291636890157434436
0.323000000000000176,-37.071051440612833971
0.324000000000000177,-36.855159031131918823
0.325000000000000178,-36.643808244838929511
0.326000000000000179,-36.436841848638792385
0.327000000000000179,-36.234097567618064772
0.328000000000000180,-36.035408832931778988
0.329000000000000181,-35.840605502164891050
0.330000000000000182,-35.649514551341987101
0.331000000000000183,-35.461960737931896404
0.332000000000000184,-35.277767234355856374
0.333000000000000185,-35.096756231658289948
0.334000000000000186,-34.918749513139722751
0.335000000000000187,-34.743568997880160509
0.336000000000000187,-34.571037254201158362
0.337000000000000188,-34.400977983223945955
0.338000000000000189,-34.233216472781009543
0.339000000000000190,-34.067580022029702036
0.340000000000000191,-33.903898337198292268
0.341000000000000192,-33.742003898969670672
0.342000000000000193,-33.581732302072794027
0.343000000000000194,-33.422922567711935926
0.344000000000000195,-33.265417429514172909
0.345000000000000195,-33.109063593721153040
0.346000000000000196,-32.953711974389143791
0.347000000000000197,-32.799217904394431855
0.348000000000000198,-32.645441323067799999
0.349000000000000199,-32.492246941303527308
0.350000000000000200,-32.339504385006129894
0.351000000000000201,-32.187088317749534383
0.352000000000000202,-32.034878543532272488
0.353000000000000203,-31.882760090517059837
0.354000000000000203,-31.730623276643132868
0.355000000000000204,-31.578363757998602068
0.356000000000000205,-31.425882560833752422
0.357000000000000206,-31.273086098089343920
0.358000000000000207,-31.119886171302265865
0.359000000000000208,-30.966199958739913711
0.360000000000000209,-30.811949990598726856
0.361000000000000210,-30.657064112086892749
0.362000000000000210,-30.501475435192975993
0.363000000000000211,-30.345122279923316455
0.364000000000000212,-30.187948105770601614
0.365000000000000213,-30.029901434154577800
0.366000000000000214,-29.870935762553880721
0.367000000000000215,-29.711009471024858897
0.368000000000000216,-29.550085721780249060
0.369000000000000217,-29.388132352476084463
0.370000000000000218,-29.225121763831673150
0.371000000000000218,-29.061030802182862942
0.372000000000000219,-28.895840637544029761
0.373000000000000220,-28.729536637730564763
0.374000000000000221,-28.562108239068351168
0.375000000000000222,-28.393548814193017904
0.376000000000000223,-28.223855537417712469
0.377000000000000224,-28.053029248124026651
0.378000000000000225,-27.881074312607815102
0.379000000000000226,-27.707998484788173954
0.380000000000000226,-27.533812766165716823
0.381000000000000227,-27.358531265393587262
0.382000000000000228,-27.182171057803792280
0.383000000000000229,-27.004752045209755806
0.384000000000000230,-26.826296816285527314
0.385000000000000231,-26.646830507802896193
0.386000000000000232,-26.466380666987156189
0.387000000000000233,-26.284977115234607226
0.388000000000000234,-26.102651813415981508
0.389000000000000234,-25.919438728973339892
0.390000000000000235,-25.735373705000274214
0.391000000000000236,-25.550494331479697507
0.392000000000000237,-25.364839818837715768
0.393000000000000238,-25.178450873957164191
0.394000000000000239,-24.991369578780101790
0.395000000000000240,-24.803639271614880357
0.396000000000000241,-24.615304431250482509
0.397000000000000242,-24.426410563968136813
0.398000000000000242,-24.237004093528650372
0.399000000000000243,-24.047132254202555401
0.400000000000000244,-23.856842986899188475
0.401000000000000245,-23.666184838441381544
0.402000000000000246,-23.475206864022332809
0.403000000000000247,-23.283958532872127023
0.404000000000000248,-23.092489637153526871
0.405000000000000249,-22.900850204097970675
0.406000000000000250,-22.709090411385567165
0.407000000000000250,-22.517260505765857914
0.408000000000000251,-22.325410724909296789
0.409000000000000252,-22.133591222473665283
0.410000000000000253,-21.941851996363613608
0.411000000000000254,-21.750242820156408641
0.412000000000000255,-21.558813177662127458
0.413000000000000256,-21.367612200581866944
0.414000000000000257,-21.176688609223567994
0.415000000000000258,-20.986090656231255025
0.416000000000000258,-20.795866073280016906
0.417000000000000259,-20.606062020685815384
0.418000000000000260,-20.416725039876769898
0.419000000000000261,-20.227901008669384453
0.420000000000000262,-20.039635099291842835
0.421000000000000263,-19.851971739093592362
0.422000000000000264,-19.664954573879317223
0.423000000000000265,-19.478626433803619022
0.424000000000000266,-19.293029301761805527
0.425000000000000266,-19.108204284210422941
0.426000000000000267,-18.924191584351266471
0.427000000000000268,-18.741030477610951976
0.428000000000000269,-18.558759289348582655
0.429000000000000270,-18.377415374722907870
0.430000000000000271,-18.197035100650705175
0.431000000000000272,-18.017653829787953157
0.432000000000000273,-17.839305906465405371
0.433000000000000274,-17.662024644510580629
0.434000000000000274,-17.485842316888351888
0.435000000000000275,-17.310790147092852465
0.436000000000000276,-17.136898302224274460
0.437000000000000277,-16.964195887684116570
0.438000000000000278,-16.792710943423948322
0.439000000000000279,-16.622470441683240949
0.440000000000000280,-16.453500286152436871
0.441000000000000281,-16.285825312498992901
0.442000000000000282,-16.119469290194750499
0.443000000000000282,-15.954454925584041547
0.444000000000000283,-15.790803866133321876
0.445000000000000284,-15.628536705804142670
0.446000000000000285,-15.467672991492293022
0.447000000000000286,-15.308231230477726825
0.448000000000000287,-15.150228898830292223
0.449000000000000288,-14.993682450718647914
0.450000000000000289,-14.838607328569930033
0.451000000000000290,-14.685017974029946686
0.452000000000000290,-14.532927839674590231
0.453000000000000291,-14.382349401424434632
0.454000000000000292,-14.233294171616174495
0.455000000000000293,-14.085772712685521668
0.456000000000000294,-13.939794651417873439
0.457000000000000295,-13.795368693724075371
0.458000000000000296,-13.652502639900280457
0.459000000000000297,-13.511203400332011171
0.460000000000000298,-13.371477011603847274
0.461000000000000298,-13.233328652977707662
0.462000000000000299,-13.096762663203730170
0.463000000000000300,-12.961782557629167201
0.464000000000000301,-12.828391045571970963
0.465000000000000302,-12.696590047927111655
0.466000000000000303,-12.566380714974572541
0.467000000000000304,-12.437763444359541509
0.468000000000000305,-12.310737899216437796
0.469000000000000306,-12.185303026409325611
0.470000000000000306,-12.061457074862863337
0.471000000000000307,-11.939197613958548061
0.472000000000000308,-11.818521551972686723
0.473000000000000309,-11.699425154533054538
0.474000000000000310,-11.581904063072752109
0.475000000000000311,-11.465953313260298430
0.476000000000000312,-11.351567353386760928
0.477000000000000313,-11.238740062690556698
0.478000000000000314,-11.127464769602873673
0.479000000000000314,-11.017734269896475752
0.480000000000000315,-10.909540844722160458
0.481000000000000316,-10.802876278517915765
0.482000000000000317,-10.697731876776488846
0.483000000000000318,-10.594098483658239473
0.484000000000000319,-10.491966499436554017
0.485000000000000320,-10.391325897764392749
0.486000000000000321,-10.292166242750727889
0.487000000000000322,-10.194476705836821750
0.488000000000000322,-10.098246082462743800
0.489000000000000323,-10.003462808515413585
0.490000000000000324,-9.910114976549852628
0.491000000000000325,-9.818190351776282299
0.492000000000000326,-9.727676387805990643
0.493000000000000327,-9.638560242149836199
0.494000000000000328,-9.550828791463498391
0.495000000000000329,-9.464468646534379914
0.496000000000000330,-9.379466167005496402
0.497000000000000330,-9.295807475832097211
0.498000000000000331,-9.213478473467532126
0.499000000000000332,-9.132464851775027981
0.500000000000000333,-9.052752107662673353
0.501000000000000334,-8.974325556439330498
0.502000000000000335,-8.897170344889493876
0.503000000000000336,-8.821271464065691958
0.504000000000000337,-8.746613761797172870
0.505000000000000338,-8.673181954914179315
0.506000000000000338,-8.600960641187372246
0.507000000000000339,-8.529934310982195456
0.508000000000000340,-8.460087358628507914
0.509000000000000341,-8.391404093505874684
0.510000000000000342,-8.323868750845335285
0.511000000000000343,-8.257465502248601652
0.512000000000000344,-8.192178465926057029
0.513000000000000345,-8.127991716655012411
0.514000000000000346,-8.064889295459947149
0.515000000000000346,-8.002855219016717925
0.516000000000000347,-7.941873488782799306
0.517000000000000348,-7.881928099856021497
0.518000000000000349,-7.823003049564100309
0.519000000000000350,-7.765082345787772233
0.520000000000000351,-7.708150015020360790
0.521000000000000352,-7.652190110166536385
0.522000000000000353,-7.597186718083587031
0.523000000000000353,-7.543123966868181540
0.524000000000000354,-7.489986032892161916
0.525000000000000355,-7.437757147590522422
0.526000000000000356,-7.386421604005326103
0.527000000000000357,-7.335963763088992451
0.528000000000000358,-7.286368059770654604
0.529000000000000359,-7.237619008789397235
0.530000000000000360,-7.189701210298085066
0.531000000000000361,-7.142599355241681103
0.532000000000000361,-7.096298230513967908
0.533000000000000362,-7.050782723896581672
0.534000000000000363,-7.006037828784424271
0.535000000000000364,-6.962048648701315123
0.536000000000000365,-6.918800401610090134
0.537000000000000366,-6.876278424021093016
0.538000000000000367,-6.834468174903167714
0.539000000000000368,-6.793355239401229539
0.540000000000000369,-6.752925332364472233
0.541000000000000369,-6.713164301689348079
0.542000000000000370,-6.674058131481354295
0.543000000000000371,-6.635592945039699764
0.544000000000000372,-6.597755007668955507
0.545000000000000373,-6.560530729321665255
0.546000000000000374,-6.523906667076005306
0.547000000000000375,-6.487869527452455820
0.548000000000000376,-6.452406168573484813
0.549000000000000377,-6.417503602170216759
0.550000000000000377,-6.383148995439917428
0.551000000000000378,-6.349329672758306842
0.552000000000000379,-6.316033117250488438
0.553000000000000380,-6.283246972224281635
0.554000000000000381,-6.250959042469822258
0.555000000000000382,-6.219157295429112331
0.556000000000000383,-6.187829862239189183
0.557000000000000384,-6.156965038652623790
0.558000000000000385,-6.126551285838962357
0.559000000000000385,-6.096577231070591907
0.560000000000000386,-6.067031668296573699
0.561000000000000387,-6.037903558607989218
0.562000000000000388,-6.009182030598085866
0.563000000000000389,-5.980856380620641843
0.564000000000000390,-5.952916072949862247
0.565000000000000391,-5.925350739845062442
0.566000000000000392,-5.898150181523314828
0.567000000000000393,-5.871304366043256451
0.568000000000000393,-5.844803429103073711
0.569000000000000394,-5.818637673755793216
0.570000000000000395,-5.792797570044807998
0.571000000000000396,-5.767273754562587840
0.572000000000000397,-5.742057029935437207
0.573000000000000398,-5.717138364237128734
0.574000000000000399,-5.692508890334188720
0.575000000000000400,-5.668159905165515156
0.576000000000000401,-5.644082868958997246
0.577000000000000401,-5.620269404387735257
0.578000000000000402,-5.596711295668411523
0.579000000000000403,-5.573400487604261322
0.580000000000000404,-5.550329084575131411
0.581000000000000405,-5.527489349476988778
0.582000000000000406,-5.504873702613142683
0.583000000000000407,-5.482474720539565638
0.584000000000000408,-5.460285134866440515
0.585000000000000409,-5.438297831018106265
0.586000000000000409,-5.416505846953588943
0.587000000000000410,-5.394902371849676470
0.588000000000000411,-5.373480744748641236
0.589000000000000412,-5.352234453172482809
0.590000000000000413,-5.331157131705667851
0.591000000000000414,-5.310242560548221746
0.592000000000000415,-5.289484664040903006
0.593000000000000416,-5.268877509164333617
0.594000000000000417,-5.248415304013730243
0.595000000000000417,-5.228092396250916707
0.596000000000000418,-5.207903271535225365
0.597000000000000419,-5.187842551934918944
0.598000000000000420,-5.167904994320568157
0.599000000000000421,-5.148085488741960702
0.600000000000000422,-5.128379056789929891
0.601000000000000423,-5.108780849944511537
0.602000000000000424,-5.089286147910797808
0.603000000000000425,-5.069890356943772325
0.604000000000000425,-5.050589008163448135
0.605000000000000426,-5.031377755861491607
