# SS304-111_CHL-JS
# h[nm],U(h)[kJ/mol]
0.149999999999999994,132.843394631007470252
0.150999999999999995,130.548236149328602096
0.151999999999999996,126.517173183654477953
0.152999999999999997,122.090390479254253364
0.153999999999999998,117.830423978784239125
0.154999999999999999,113.896135328364522366
0.156000000000000000,110.261604094013222266
0.157000000000000001,106.837083355979643784
0.158000000000000002,103.530008846175604731
0.159000000000000002,100.270845314304978046
0.160000000000000003,97.019560112834824395
0.161000000000000004,93.762478239911814626
0.162000000000000005,90.505294000914759067
0.163000000000000006,87.265449199800528390
0.164000000000000007,84.065481408764654248
0.165000000000000008,80.927979288106072886
0.166000000000000009,77.872233619787266434
0.167000000000000010,74.912390763827659157
0.168000000000000010,72.056796980186433643
0.169000000000000011,69.308199338136674328
0.170000000000000012,66.664497560057753844
0.171000000000000013,64.119793307533555549
0.172000000000000014,61.665542351801988730
0.173000000000000015,59.291671315507606721
0.174000000000000016,56.987569469324647287
0.175000000000000017,54.742905583401444858
0.176000000000000018,52.548249969782169444
0.177000000000000018,50.395503452682063994
0.178000000000000019,48.278149353357711959
0.179000000000000020,46.191353088576740049
0.180000000000000021,44.131938016956866022
0.181000000000000022,42.098266937874107896
0.182000000000000023,40.090057175883735852
0.183000000000000024,38.108154295167437908
0.184000000000000025,36.154285823512495313
0.185000000000000026,34.230812400038630017
0.186000000000000026,32.340489833401626640
0.187000000000000027,30.486251893290450710
0.188000000000000028,28.671020395236542555
0.189000000000000029,26.897546347655300281
0.190000000000000030,25.168283632245511683
0.191000000000000031,23.485294871788397586
0.192000000000000032,21.850187767942131245
0.193000000000000033,20.264079217359622476
0.194000000000000034,18.727583882331366283
0.195000000000000034,17.240823545475016942
0.196000000000000035,15.803453461848693706
0.197000000000000036,14.414701985335991452
0.198000000000000037,13.073419943647248687
0.199000000000000038,11.778136528173009268
0.200000000000000039,10.527118817696441866
0.201000000000000040,9.318432441027214352
0.202000000000000041,8.150001280881271626
0.203000000000000042,7.019664512689925751
0.204000000000000042,5.925229644726853095
0.205000000000000043,4.864520570987004078
0.206000000000000044,3.835419959749693852
0.207000000000000045,2.835905575392204447
0.208000000000000046,1.864080367505652092
0.209000000000000047,0.918196360006301227
0.210000000000000048,-0.003327464780475786
0.211000000000000049,-0.901892963821909310
0.212000000000000050,-1.778715892481903982
0.213000000000000050,-2.634823735380789511
0.214000000000000051,-3.471057774595473155
0.215000000000000052,-4.288078837105496532
0.216000000000000053,-5.086376157499471695
0.217000000000000054,-5.866278800727735998
0.218000000000000055,-6.627969110222923455
0.219000000000000056,-7.371497676376684183
0.220000000000000057,-8.096799356810532089
0.221000000000000058,-8.803709921036908526
0.222000000000000058,-9.491982936201445398
0.223000000000000059,-10.161306556102109866
0.224000000000000060,-10.811319921344225037
0.225000000000000061,-11.441628923280156016
0.226000000000000062,-12.051821127483446361
0.227000000000000063,-12.641479693293531383
0.228000000000000064,-13.210196163975311379
0.229000000000000065,-13.757582036954772775
0.230000000000000066,-14.283279055218187636
0.231000000000000066,-14.786968189213535396
0.232000000000000067,-15.268377303458985139
0.233000000000000068,-15.727287523612602627
0.234000000000000069,-16.163538338106853587
0.235000000000000070,-16.577031483763381203
0.236000000000000071,-16.967733677268984849
0.237000000000000072,-17.335678264227556866
0.238000000000000073,-17.680965864929287790
0.239000000000000073,-18.003764101230309791
0.240000000000000074,-18.304306492249100558
0.241000000000000075,-18.582890608184825965
0.242000000000000076,-18.839875571672749288
0.243000000000000077,-19.075678994922725451
0.244000000000000078,-19.290773438638073145
0.245000000000000079,-19.485682475568211203
0.246000000000000080,-19.660976437682037954
0.247000000000000081,-19.817267921514030604
0.248000000000000081,-19.955207121373295109
0.249000000000000082,-20.075477054942346911
0.250000000000000111,-20.178788740439280502
0.251000000000000112,-20.265876379070483893
0.252000000000000113,-20.337492591047187318
0.253000000000000114,-20.394403748046734393
0.254000000000000115,-20.437385439733532166
0.255000000000000115,-20.467218106859967008
0.256000000000000116,-20.484682868589160876
0.257000000000000117,-20.490557567048305998
0.258000000000000118,-20.485613047757464500
0.259000000000000119,-20.470609690503476230
0.260000000000000120,-20.446294201450463390
0.261000000000000121,-20.413396673804228953
0.262000000000000122,-20.372627921179606858
0.263000000000000123,-20.324677084953009398
0.264000000000000123,-20.270209514313293653
0.265000000000000124,-20.209864915441862365
0.266000000000000125,-20.144255764249020757
0.267000000000000126,-20.073965975353470270
0.268000000000000127,-19.999549818503123078
0.269000000000000128,-19.921531072382606453
0.270000000000000129,-19.840402404720798302
0.271000000000000130,-19.756624966784311681
0.272000000000000131,-19.670628189705027467
0.273000000000000131,-19.582809769624134333
0.274000000000000132,-19.493535828327974713
0.275000000000000133,-19.403141235885716043
0.276000000000000134,-19.311930081761044420
0.277000000000000135,-19.220176280946283498
0.278000000000000136,-19.128124301843158150
0.279000000000000137,-19.035990002877660743
0.280000000000000138,-18.943961565175225559
0.281000000000000139,-18.852200509025006880
0.282000000000000139,-18.760842782318370325
0.283000000000000140,-18.669999909647369662
0.284000000000000141,-18.579760191283948956
0.285000000000000142,-18.490189941823707898
0.286000000000000143,-18.401334758859878349
0.287000000000000144,-18.313220812648044244
0.288000000000000145,-18.225856148324872663
0.289000000000000146,-18.139231992846980290
0.290000000000000147,-18.053324059417217740
0.291000000000000147,-17.968093842758612766
0.292000000000000148,-17.883489899178975691
0.293000000000000149,-17.799449105937423354
0.294000000000000150,-17.715897894975903171
0.295000000000000151,-17.632753456612398679
0.296000000000000152,-17.549924909304216669
0.297000000000000153,-17.467314432081121112
0.298000000000000154,-17.384818356714493603
0.299000000000000155,-17.302328217132750154
0.300000000000000155,-17.219731754011682767
0.301000000000000156,-17.136913872862571395
0.302000000000000157,-17.053757554309797229
0.303000000000000158,-16.970144715594315699
0.304000000000000159,-16.885957022658839577
0.305000000000000160,-16.801076652466040429
0.306000000000000161,-16.715387005473381521
0.307000000000000162,-16.628773368436917224
0.308000000000000163,-16.541123527942986016
0.309000000000000163,-16.452328335272110138
0.310000000000000164,-16.362282223383928681
0.311000000000000165,-16.270883676976520604
0.312000000000000166,-16.178035656719849555
0.313000000000000167,-16.083645978890732664
0.314000000000000168,-15.987627651748175239
0.315000000000000169,-15.889899170082916413
0.316000000000000170,-15.790384769455361180
0.317000000000000171,-15.689014641702248909
0.318000000000000171,-15.585725113345285209
0.319000000000000172,-15.480458788576180851
0.320000000000000173,-15.373164658521925929
0.321000000000000174,-15.263798178513400927
0.322000000000000175,-15.152321315090253151
0.323000000000000176,-15.038702564475894263
0.324000000000000177,-14.922916944249298155
0.325000000000000178,-14.804945959926282484
0.326000000000000179,-14.684777548142502468
0.327000000000000179,-14.562405998103344018
0.328000000000000180,-14.437831852934806420
0.329000000000000181,-14.311061792533362080
0.330000000000000182,-14.182108499471942409
0.331000000000000183,-14.050990509476633861
0.332000000000000184,-13.917732047941328233
0.333000000000000185,-13.782362853899126520
0.334000000000000186,-13.644917992818085040
0.335000000000000187,-13.505437659536411843
0.336000000000000187,-13.363966972598394278
0.337000000000000188,-13.220555761197440248
0.338000000000000189,-13.075258345877680100
0.339000000000000190,-12.928133314089672368
0.340000000000000191,-12.779243291640112190
0.341000000000000192,-12.628654711020644186
0.342000000000000193,-12.476437577544968960
0.343000000000000194,-12.322665234170122162
0.344000000000000195,-12.167414125823457383
0.345000000000000195,-12.010763564004944826
0.346000000000000196,-11.852795492382494302
0.347000000000000197,-11.693594254047885883
0.348000000000000198,-11.533246361052192697
0.349000000000000199,-11.371840266791464202
0.350000000000000200,-11.209466141768078984
0.351000000000000201,-11.046215653207912766
0.352000000000000202,-10.882181748971067492
0.353000000000000203,-10.717458446152225093
0.354000000000000203,-10.552140624727032403
0.355000000000000204,-10.386323826562902539
0.356000000000000205,-10.220104060076272035
0.357000000000000206,-10.053577610783520413
0.358000000000000207,-9.886840857959660056
0.359000000000000208,-9.719990097587741573
0.360000000000000209,-9.553121371751812418
0.361000000000000210,-9.386330304598384799
0.362000000000000210,-9.219711944964496197
0.363000000000000211,-9.053360615745706497
0.364000000000000212,-8.887369770053680895
0.365000000000000213,-8.721831854190945421
0.366000000000000214,-8.556838177449977323
0.367000000000000215,-8.392478788724384131
0.368000000000000216,-8.228842359902355241
0.369000000000000217,-8.066016075995744217
0.370000000000000218,-7.904085531943162657
0.371000000000000218,-7.743134636011198779
0.372000000000000219,-7.583245519705208437
0.373000000000000220,-7.424498454089215826
0.374000000000000221,-7.266971772403988616
0.375000000000000222,-7.110741798862500573
0.376000000000000223,-6.955882783493548160
0.377000000000000224,-6.802466842896466304
0.378000000000000225,-6.650563906763130362
0.379000000000000226,-6.500241670017397055
0.380000000000000226,-6.351565550417086925
0.381000000000000227,-6.204598651459017233
0.382000000000000228,-6.059401730424077037
0.383000000000000229,-5.916033171396318124
0.384000000000000230,-5.774548963087319464
0.385000000000000231,-5.635002681295917526
0.386000000000000232,-5.497445475831479911
0.387000000000000233,-5.361926061728668813
0.388000000000000234,-5.228490714581158549
0.389000000000000234,-5.097183269822191498
0.390000000000000235,-4.968045125780183646
0.391000000000000236,-4.841115250339079523
0.392000000000000237,-4.716430191033987640
0.393000000000000238,-4.594024088414875528
0.394000000000000239,-4.473928692512663119
0.395000000000000240,-4.356173382244629799
0.396000000000000241,-4.240785187598453021
0.397000000000000242,-4.127788814436923026
0.398000000000000242,-4.017206671768454918
0.399000000000000243,-3.909058901331527558
0.400000000000000244,-3.803363409344370005
0.401000000000000245,-3.700135900275104639
0.402000000000000246,-3.599389912490465804
0.403000000000000247,-3.501136855645288648
0.404000000000000248,-3.405386049678646998
0.405000000000000249,-3.312144765286194392
0.406000000000000250,-3.221418265742244103
0.407000000000000250,-3.133209849948990211
0.408000000000000251,-3.047520896594183348
0.409000000000000252,-2.964350909302699844
0.410000000000000253,-2.883697562671088566
0.411000000000000254,-2.805556749078580214
0.412000000000000255,-2.729922626171582323
0.413000000000000256,-2.656787664922975356
0.414000000000000257,-2.586142698171135290
0.415000000000000258,-2.517976969547767840
0.416000000000000258,-2.452278182707256615
0.417000000000000259,-2.389032550774126129
0.418000000000000260,-2.328224845928992259
0.419000000000000261,-2.269838449056887253
0.420000000000000262,-2.213855399385701084
0.421000000000000263,-2.160256444045869806
0.422000000000000264,-2.109021087485927204
0.423000000000000265,-2.060127640681993277
0.424000000000000266,-2.013553270082725000
0.425000000000000266,-1.969274046234193776
0.426000000000000267,-1.927264992032684532
0.427000000000000268,-1.887500130556273081
0.428000000000000269,-1.849952532429156804
0.429000000000000270,-1.814594362675599815
0.430000000000000271,-1.781396927023244814
0.431000000000000272,-1.750330717618231890
0.432000000000000273,-1.721365458117313008
0.433000000000000274,-1.694470148124680220
0.434000000000000274,-1.669613106943800940
0.435000000000000275,-1.646762016616865720
0.436000000000000276,-1.625883964226886746
0.437000000000000277,-1.606945483439689681
0.438000000000000278,-1.589912595265194906
0.439000000000000279,-1.574750848019517147
0.440000000000000280,-1.561425356471362047
0.441000000000000281,-1.549900840158103588
0.442000000000000282,-1.540141660858924677
0.443000000000000282,-1.532111859213870719
0.444000000000000283,-1.525775190479727650
0.445000000000000284,-1.521095159414922460
0.446000000000000285,-1.518035054287321772
0.447000000000000286,-1.516557980000380113
0.448000000000000287,-1.516626890334245914
0.449000000000000288,-1.518204619299971636
0.450000000000000289,-1.521253911606157860
0.451000000000000290,-1.525737452238515646
0.452000000000000290,-1.531617895154067766
0.453000000000000291,-1.538857891092688224
0.454000000000000292,-1.547420114509755029
0.455000000000000293,-1.557267289634621799
0.456000000000000294,-1.568362215660503933
0.457000000000000295,-1.580667791072208894
0.458000000000000296,-1.594147037119039378
0.459000000000000297,-1.608763120440694694
0.460000000000000298,-1.624479374855047897
0.461000000000000298,-1.641259322316873437
0.462000000000000299,-1.659066693057675179
0.463000000000000300,-1.677865444916885718
0.464000000000000301,-1.697619781875535860
0.465000000000000302,-1.718294171803737225
0.466000000000000303,-1.739853363433977673
0.467000000000000304,-1.762262402572302378
0.468000000000000305,-1.785486647560205586
0.469000000000000306,-1.809491784000000880
0.470000000000000306,-1.834243838756966838
0.471000000000000307,-1.859709193251738224
0.472000000000000308,-1.885854596056626864
0.473000000000000309,-1.912647174809767092
0.474000000000000310,-1.940054447461104559
0.475000000000000311,-1.968044332864552715
0.476000000000000312,-1.996585160730412145
0.477000000000000313,-2.025645680952684380
0.478000000000000314,-2.055195072325564531
0.479000000000000314,-2.085202950663744836
0.480000000000000315,-2.115639376340979538
0.481000000000000316,-2.146474861261525202
0.482000000000000317,-2.177680375278925773
0.483000000000000318,-2.209227352076672979
0.484000000000000319,-2.241087694525170093
0.485000000000000320,-2.273233779529409304
0.486000000000000321,-2.305638462381648601
0.487000000000000322,-2.338275080633311909
0.488000000000000322,-2.371117457500244274
0.489000000000000323,-2.404139904815261630
0.490000000000000324,-2.437317225541960397
0.491000000000000325,-2.470624715863430243
0.492000000000000326,-2.504038166859499537
0.493000000000000327,-2.537533865785936982
0.494000000000000328,-2.571088596968864604
0.495000000000000329,-2.604679642327495603
0.496000000000000330,-2.638284781538081436
0.497000000000000330,-2.671882291851829017
0.498000000000000331,-2.705450947579323362
0.499000000000000332,-2.738970019253725408
0.500000000000000333,-2.772419272485025399
0.501000000000000334,-2.805778966517161521
0.502000000000000335,-2.839029852499790785
0.503000000000000336,-2.872153171486203416
0.504000000000000337,-2.905130652168723238
0.505000000000000338,-2.937944508362607454
0.506000000000000338,-2.970577436249373982
0.507000000000000339,-3.003012611390173614
0.508000000000000340,-3.035233685519634239
0.509000000000000341,-3.067224783130345411
0.510000000000000342,-3.098970497858020590
0.511000000000000343,-3.130455888677024401
0.512000000000000344,-3.161666475915847041
0.513000000000000345,-3.192588237101752213
0.514000000000000346,-3.223207602643817005
0.515000000000000346,-3.253511451363042539
0.516000000000000347,-3.283487105878324375
0.517000000000000348,-3.313122327856627969
0.518000000000000349,-3.342405313135588418
0.519000000000000350,-3.371324686726476560
0.520000000000000351,-3.399869497705396704
0.521000000000000352,-3.428029214000151370
0.522000000000000353,-3.455793717080177352
0.523000000000000353,-3.483153296556706913
0.524000000000000354,-3.510098644700013093
0.525000000000000355,-3.536620850880542122
0.526000000000000356,-3.562711395940365122
0.527000000000000357,-3.588362146501336891
0.528000000000000358,-3.613565349216115496
0.529000000000000359,-3.638313624967820292
0.530000000000000360,-3.662599963024276484
0.531000000000000361,-3.686417715152234820
0.532000000000000361,-3.709760589697044253
0.533000000000000362,-3.732622645632877489
0.534000000000000363,-3.754998286588597800
0.535000000000000364,-3.776882254854047716
0.536000000000000365,-3.798269625371443858
0.537000000000000366,-3.819155799716369870
0.538000000000000367,-3.839536500072683545
0.539000000000000368,-3.859407763205529029
0.540000000000000369,-3.878765934436440688
0.541000000000000369,-3.897607661624390651
0.542000000000000370,-3.915929889156485988
0.543000000000000371,-3.933729851951869083
0.544000000000000372,-3.951005069482218524
0.545000000000000373,-3.967753339812101210
0.546000000000000374,-3.983972733662342058
0.547000000000000375,-3.999661588499313414
0.548000000000000376,-4.014818502653123566
0.549000000000000377,-4.029442329467284978
0.550000000000000377,-4.043532171482579152
0.551000000000000378,-4.057087374657522894
0.552000000000000379,-4.070107522627822938
0.553000000000000380,-4.082592431007038059
0.554000000000000381,-4.094542141730570073
0.555000000000000382,-4.105956917445054977
0.556000000000000383,-4.116837235944939444
0.557000000000000384,-4.127183784658170929
0.558000000000000385,-4.136997455182613415
0.559000000000000385,-4.146279337874834603
0.560000000000000386,-4.155030716492727372
0.561000000000000387,-4.163253062893423007
0.562000000000000388,-4.170948031787753862
0.563000000000000389,-4.178117455552586179
0.564000000000000390,-4.184763339102026691
0.565000000000000391,-4.190887854818748259
0.566000000000000392,-4.196493337546246316
0.567000000000000393,-4.201582279643043094
0.568000000000000393,-4.206157326099608795
0.569000000000000394,-4.210221269718788406
0.570000000000000395,-4.213777046360433154
0.571000000000000396,-4.216827730250782835
0.572000000000000397,-4.219376529357253602
0.573000000000000398,-4.221426780829056646
0.574000000000000399,-4.222981946504067885
0.575000000000000400,-4.224045608482393632
0.576000000000000401,-4.224621464766832091
0.577000000000000401,-4.224713324970620576
0.578000000000000402,-4.224325106092547522
0.579000000000000403,-4.223460828359682395
0.580000000000000404,-4.222124611137779482
0.581000000000000405,-4.220320668909427475
0.582000000000000406,-4.218053307319961753
0.583000000000000407,-4.215326919291100261
0.584000000000000408,-4.212145981202271017
0.585000000000000409,-4.208515049139450959
0.586000000000000409,-4.204438755211436174
0.587000000000000410,-4.199921803933345466
0.588000000000000411,-4.194968968677085464
0.589000000000000412,-4.189585088188624518
0.590000000000000413,-4.183775063171660591
0.591000000000000414,-4.177543852937505520
0.592000000000000415,-4.170896472120757537
0.593000000000000416,-4.163837987460385470
0.594000000000000417,-4.156373514645890666
0.595000000000000417,-4.148508215228072338
0.596000000000000418,-4.140247293593959377
0.597000000000000419,-4.131595994005474282
0.598000000000000420,-4.122559597701279444
0.599000000000000421,-4.113143420061363464
0.600000000000000422,-4.103352807833791083
0.601000000000000423,-4.093193136423094458
0.602000000000000424,-4.082669807239725834
0.603000000000000425,-4.071788245110048443
0.604000000000000425,-4.060553895746166653
0.605000000000000426,-4.048972223275099758
0.606000000000000427,-4.037048707826640381
0.607000000000000428,-4.024788843179205600
0.608000000000000429,-4.012198134463170085
0.609000000000000430,-3.999282095920881464
0.610000000000000431,-3.986046248722833418
