# SS304-111_CS-1057-AC
# h[nm],U(h)[kJ/mol]
0.149999999999999994,54.408829543867227585
0.150999999999999995,50.423543873064183174
0.151999999999999996,46.727537244538076777
0.152999999999999997,43.164933968024094213
0.153999999999999998,39.711395551331449383
0.154999999999999999,36.380825132546689815
0.156000000000000000,33.186430259352448502
0.157000000000000001,30.129163063588123350
0.158000000000000002,27.198372614364426880
0.159000000000000002,24.376626256760481226
0.160000000000000003,21.644812866669450813
0.161000000000000004,18.985959786798144222
0.162000000000000005,16.387404476310194923
0.163000000000000006,13.841523474258659476
0.164000000000000007,11.345422538178738137
0.165000000000000008,8.900007092408674936
0.166000000000000009,6.508783558205020192
0.167000000000000010,4.176646712926459948
0.168000000000000010,1.908815324652267886
0.169000000000000011,-0.289998968833898918
0.170000000000000012,-2.416162281254007560
0.171000000000000013,-4.467440321942246051
0.172000000000000014,-6.443106407135667624
0.173000000000000015,-8.343881684473274163
0.174000000000000016,-10.171756101843193676
0.175000000000000017,-11.929735522018070526
0.176000000000000018,-13.621554017791439151
0.177000000000000018,-15.251382542993614067
0.178000000000000019,-16.823557089263712072
0.179000000000000020,-18.342341894776307498
0.180000000000000021,-19.811736719897673709
0.181000000000000022,-21.235331850432284995
0.182000000000000023,-22.616210366386919617
0.183000000000000024,-23.956894248617714993
0.184000000000000025,-25.259328949869029657
0.185000000000000026,-26.524899963427987615
0.186000000000000026,-27.754474508147431777
0.187000000000000027,-28.948461547491195489
0.188000000000000028,-30.106883824248029669
0.189000000000000029,-31.229456294919835102
0.190000000000000030,-32.315666184689199270
0.191000000000000031,-33.364850773678384144
0.192000000000000032,-34.376269906574520974
0.193000000000000033,-35.349171046952122310
0.194000000000000034,-36.282845445976903420
0.195000000000000034,-37.176674645887764825
0.196000000000000035,-38.030167084414181033
0.197000000000000036,-38.842985006891339594
0.198000000000000037,-39.614962233166856720
0.199000000000000038,-40.346113574760849474
0.200000000000000039,-41.036636864527551438
0.201000000000000040,-41.686908657676134737
0.202000000000000041,-42.297474701062618863
0.203000000000000042,-42.869036258433460773
0.204000000000000042,-43.402433333288193751
0.205000000000000043,-43.898625757736660091
0.206000000000000044,-44.358673023504294974
0.207000000000000045,-44.783713627240544497
0.208000000000000046,-45.174944592481153904
0.209000000000000047,-45.533601719848157074
0.210000000000000048,-45.860941009154942094
0.211000000000000049,-46.158221594896069462
0.212000000000000050,-46.426690442217790178
0.213000000000000050,-46.667568965253344970
0.214000000000000051,-46.882041654466192426
0.215000000000000052,-47.071246734685118440
0.216000000000000053,-47.236268820777254973
0.217000000000000054,-47.378133493033729451
0.218000000000000055,-47.497803678764583424
0.219000000000000056,-47.596177699590917598
0.220000000000000057,-47.674088824665410868
0.221000000000000058,-47.732306157667636626
0.222000000000000058,-47.771536679027654770
0.223000000000000059,-47.792428263545076561
0.224000000000000060,-47.795573496554808912
0.225000000000000061,-47.781514118251394052
0.226000000000000062,-47.750745934986980501
0.227000000000000063,-47.703724047645806650
0.228000000000000064,-47.640868259971810517
0.229000000000000065,-47.562568543471947180
0.230000000000000066,-47.469190449780299446
0.231000000000000066,-47.361080375770725936
0.232000000000000067,-47.238570600927118903
0.233000000000000068,-47.101984030263409409
0.234000000000000069,-46.951638589225204612
0.235000000000000070,-46.787851229344092019
0.236000000000000071,-46.610941514840810385
0.237000000000000072,-46.421234770808794678
0.238000000000000073,-46.219064783010338715
0.239000000000000073,-46.004776047666396721
0.240000000000000074,-45.778725576925261009
0.241000000000000075,-45.541284271978341280
0.242000000000000076,-45.292837881091401186
0.243000000000000077,-45.033787564190639330
0.244000000000000078,-44.764550089141067701
0.245000000000000079,-44.485557687545238537
0.246000000000000080,-44.197257599845812592
0.247000000000000081,-43.900111340800904713
0.248000000000000081,-43.594593717092536167
0.249000000000000082,-43.281191628992516485
0.250000000000000111,-42.960402687716580772
0.251000000000000112,-42.632733679409923866
0.252000000000000113,-42.298698905688119964
0.253000000000000114,-41.958818429363923030
0.254000000000000115,-41.613616252475218005
0.255000000000000115,-41.263618452042443607
0.256000000000000116,-40.909351297168271344
0.257000000000000117,-40.551339369189676631
0.258000000000000118,-40.190103704635667725
0.259000000000000119,-39.826159978767329051
0.260000000000000120,-39.460016745505456015
0.261000000000000121,-39.092173747608491396
0.262000000000000122,-38.723120309070900191
0.263000000000000123,-38.353333819884461775
0.264000000000000123,-37.983278321556738888
0.265000000000000124,-37.613403200122000669
0.266000000000000125,-37.244141991819574855
0.267000000000000126,-36.875911305156932940
0.268000000000000127,-36.509109861725491442
0.269000000000000128,-36.144117656897513768
0.270000000000000129,-35.781295240402606339
0.271000000000000130,-35.420983115762439297
0.272000000000000131,-35.063501256649985294
0.273000000000000131,-34.709148737431675613
0.274000000000000132,-34.358203474444664494
0.275000000000000133,-34.010922073951512346
0.276000000000000134,-33.667539782197096088
0.277000000000000135,-33.328270532562477513
0.278000000000000136,-32.993307084460951728
0.279000000000000137,-32.662821248349047210
0.280000000000000138,-32.336964191022602222
0.281000000000000139,-32.015866815230523912
0.282000000000000139,-31.699640207559873772
0.283000000000000140,-31.388376148521370368
0.284000000000000141,-31.082147678786974154
0.285000000000000142,-30.781009715598436571
0.286000000000000143,-30.484999713469200344
0.287000000000000144,-30.194138363440295336
0.288000000000000145,-29.908430325317244325
0.289000000000000146,-29.627864987506530525
0.290000000000000147,-29.352417249281518963
0.291000000000000147,-29.082048320537275288
0.292000000000000148,-28.816706534335462919
0.293000000000000149,-28.556328167794212902
0.294000000000000150,-28.300838267137368831
0.295000000000000151,-28.050151472983532841
0.296000000000000152,-27.804172842222829587
0.297000000000000153,-27.562798663097858309
0.298000000000000154,-27.325917260371845430
0.299000000000000155,-27.093409787730877269
0.300000000000000155,-26.865151004825897019
0.301000000000000156,-26.641010036613408829
0.302000000000000157,-26.420851112899537583
0.303000000000000158,-26.204534286230419582
0.304000000000000159,-25.991916126501120488
0.305000000000000160,-25.782850390874841651
0.306000000000000161,-25.577188667814787948
0.307000000000000162,-25.374780994230196285
0.308000000000000163,-25.175476444927500808
0.309000000000000163,-24.979123693736216438
0.310000000000000164,-24.785571545846330821
0.311000000000000165,-24.594669441051419057
0.312000000000000166,-24.406267927737381740
0.313000000000000167,-24.220219107592527052
0.314000000000000168,-24.036377051139648842
0.315000000000000169,-23.854598184305817909
0.316000000000000170,-23.674741646350479840
0.317000000000000171,-23.496669619567985166
0.318000000000000171,-23.320247631266667554
0.319000000000000172,-23.145344828603928278
0.320000000000000173,-22.971834226925260225
0.321000000000000174,-22.799592932315842830
0.322000000000000175,-22.628502339125827092
0.323000000000000176,-22.458448303276153268
0.324000000000000177,-22.289321292189757884
0.325000000000000178,-22.121016512225125439
0.326000000000000179,-21.953434014515050166
0.327000000000000179,-21.786478780132920718
0.328000000000000180,-21.620060785524014335
0.329000000000000181,-21.454095049148797614
0.330000000000000182,-21.288501660289988138
0.331000000000000183,-21.123205790976431473
0.332000000000000184,-20.958137691973455219
0.333000000000000185,-20.793232673782888753
0.334000000000000186,-20.628431073586146027
0.335000000000000187,-20.463678209050925716
0.336000000000000187,-20.298924319906870295
0.337000000000000188,-20.134124498177669693
0.338000000000000189,-19.969238607937612073
0.339000000000000190,-19.804231195438749324
0.340000000000000191,-19.639071390431766417
0.341000000000000192,-19.473732799479559930
0.342000000000000193,-19.308193392036155700
0.343000000000000194,-19.142435380037817083
0.344000000000000195,-18.976445091725359759
0.345000000000000195,-18.810212840389031186
0.346000000000000196,-18.643732788698962111
0.347000000000000197,-18.477002809255395732
0.348000000000000198,-18.310024341964506789
0.349000000000000199,-18.142802248816401800
0.350000000000000200,-17.975344666613629840
0.351000000000000201,-17.807662858169635456
0.352000000000000202,-17.639771062468629026
0.353000000000000203,-17.471686344250439760
0.354000000000000203,-17.303428443456336794
0.355000000000000204,-17.135019624945098116
0.356000000000000205,-16.966484528862146419
0.357000000000000206,-16.797850022018934624
0.358000000000000207,-16.629145050614386747
0.359000000000000208,-16.460400494606354016
0.360000000000000209,-16.291649024016898295
0.361000000000000210,-16.122924957432534399
0.362000000000000210,-15.954264122938528914
0.363000000000000211,-15.785703721704795299
0.364000000000000212,-15.617282194420727848
0.365000000000000213,-15.449039090756215842
0.366000000000000214,-15.281014942007605129
0.367000000000000215,-15.113251137068994367
0.368000000000000216,-14.945789801852120249
0.369000000000000217,-14.778673682261672440
0.370000000000000218,-14.611946030817218656
0.371000000000000218,-14.445650496997965107
0.372000000000000219,-14.279831021372682898
0.373000000000000220,-14.114531733563714155
0.374000000000000221,-13.949796854081451869
0.375000000000000222,-13.785670600053979484
0.376000000000000223,-13.622197094865143185
0.377000000000000224,-13.459420281704415956
0.378000000000000225,-13.297383841021773065
0.379000000000000226,-13.136131111871900856
0.380000000000000226,-12.975705017123782881
0.381000000000000227,-12.816147992503541531
0.382000000000000228,-12.657501919431640047
0.383000000000000229,-12.499808061608572274
0.384000000000000230,-12.343107005297133227
0.385000000000000231,-12.187438603244107327
0.386000000000000232,-12.032841922178675986
0.387000000000000233,-11.879355193820627434
0.388000000000000234,-11.727015769327218564
0.389000000000000234,-11.575860077103977019
0.390000000000000235,-11.425923583901187897
0.391000000000000236,-11.277240759115446878
0.392000000000000237,-11.129845042212648920
0.393000000000000238,-10.983768813187197111
0.394000000000000239,-10.839043365969956767
0.395000000000000240,-10.695698884696406950
0.396000000000000241,-10.553764422745130602
0.397000000000000242,-10.413267884455844836
0.398000000000000242,-10.274236009435757211
0.399000000000000243,-10.136694359362602214
0.400000000000000244,-10.000667307192371069
0.401000000000000245,-9.866178028680355538
0.402000000000000246,-9.733248496123954041
0.403000000000000247,-9.601899474236278209
0.404000000000000248,-9.472150518060498570
0.405000000000000249,-9.344019972835422294
0.406000000000000250,-9.217524975723884850
0.407000000000000250,-9.092681459316592552
0.408000000000000251,-8.969504156825319541
0.409000000000000252,-8.848006608880725210
0.410000000000000253,-8.728201171851331708
0.411000000000000254,-8.610099027602018396
0.412000000000000255,-8.493710194611667319
0.413000000000000256,-8.379043540371601040
0.414000000000000257,-8.266106794987873485
0.415000000000000258,-8.154906565912558136
0.416000000000000258,-8.045448353730884961
0.417000000000000259,-7.937736568932912462
0.418000000000000260,-7.831774549600526214
0.419000000000000261,-7.727564579942244549
0.420000000000000262,-7.625107909610536083
0.421000000000000263,-7.524404773738181618
0.422000000000000264,-7.425454413632197159
0.423000000000000265,-7.328255098065861617
0.424000000000000266,-7.232804145111498606
0.425000000000000266,-7.139097944458422162
0.426000000000000267,-7.047131980162562925
0.427000000000000268,-6.956900853776349258
0.428000000000000269,-6.868398307809175485
0.429000000000000270,-6.781617249470849984
0.430000000000000271,-6.696549774652315712
0.431000000000000272,-6.613187192099775125
0.432000000000000273,-6.531520047740229984
0.433000000000000274,-6.451538149118361432
0.434000000000000274,-6.373230589906286880
0.435000000000000275,-6.296585774449714457
0.436000000000000276,-6.221591442315624221
0.437000000000000277,-6.148234692808276058
0.438000000000000278,-6.076502009422138251
0.439000000000000279,-6.006379284201858404
0.440000000000000280,-5.937851841980974044
0.441000000000000281,-5.870904464472666007
0.442000000000000282,-5.805521414187358786
0.443000000000000282,-5.741686458153385963
0.444000000000000283,-5.679382891418423895
0.445000000000000284,-5.618593560310793933
0.446000000000000285,-5.559300885440931594
0.447000000000000286,-5.501486884424947377
0.448000000000000287,-5.445133194313038771
0.449000000000000288,-5.390221093707144639
0.450000000000000289,-5.336731524553124828
0.451000000000000290,-5.284645113594074850
0.452000000000000290,-5.233942193472329585
0.453000000000000291,-5.184602823468976496
0.454000000000000292,-5.136606809870508883
0.455000000000000293,-5.089933725953369681
0.456000000000000294,-5.044562931578096432
0.457000000000000295,-5.000473592385530353
0.458000000000000296,-4.957644698588699050
0.459000000000000297,-4.916055083354503807
0.460000000000000298,-4.875683440770435695
0.461000000000000298,-4.836508343392067033
0.462000000000000299,-4.798508259368023054
0.463000000000000300,-4.761661569139661765
0.464000000000000301,-4.725946581713421857
0.465000000000000302,-4.691341550504495750
0.466000000000000303,-4.657824688751025732
0.467000000000000304,-4.625374184498501684
0.468000000000000305,-4.593968215154884405
0.469000000000000306,-4.563584961617147329
0.470000000000000306,-4.534202621970618630
0.471000000000000307,-4.505799424762949812
0.472000000000000308,-4.478353641854976530
0.473000000000000309,-4.451843600851026928
0.474000000000000310,-4.426247697111799440
0.475000000000000311,-4.401544405353202905
0.476000000000000312,-4.377712290834901765
0.477000000000000313,-4.354730020142570268
0.478000000000000314,-4.332576371568307216
0.479000000000000314,-4.311230245093799596
0.480000000000000315,-4.290670671981090756
0.481000000000000316,-4.270876823976161418
0.482000000000000317,-4.251828022130617057
0.483000000000000318,-4.233503745247027439
0.484000000000000319,-4.215883637953653285
0.485000000000000320,-4.198947518414504643
0.486000000000000321,-4.182675385680700408
0.487000000000000322,-4.167047426689358680
0.488000000000000322,-4.152044022916340893
0.489000000000000323,-4.137645756689190435
0.490000000000000324,-4.123833417166878235
0.491000000000000325,-4.110588005992847904
0.492000000000000326,-4.097890742628072402
0.493000000000000327,-4.085723069370815530
0.494000000000000328,-4.074066656069870618
0.495000000000000329,-4.062903404538089625
0.496000000000000330,-4.052215452672982110
0.497000000000000330,-4.041985178291275460
0.498000000000000331,-4.032195202684282442
0.499000000000000332,-4.022828393900865329
0.500000000000000333,-4.013867869764911056
0.501000000000000334,-4.005297000634132409
0.502000000000000335,-3.997099411906920530
0.503000000000000336,-3.989258986284129005
0.504000000000000337,-3.981759865792439346
0.505000000000000338,-3.974586453576034906
0.506000000000000338,-3.967723415463217496
0.507000000000000339,-3.961155681314557420
0.508000000000000340,-3.954868446159127249
0.509000000000000341,-3.948847171125218658
0.510000000000000342,-3.943077584172054006
0.511000000000000343,-3.937545680628698364
0.512000000000000344,-3.932237723546534447
0.513000000000000345,-3.927140243871384051
0.514000000000000346,-3.922240040441443476
0.515000000000000346,-3.917524179817006402
0.516000000000000347,-3.912979995947874379
0.517000000000000348,-3.908595089684361312
0.518000000000000349,-3.904357328137546546
0.519000000000000350,-3.900254843894478629
0.520000000000000351,-3.896276034093889784
0.521000000000000352,-3.892409559367836724
0.522000000000000353,-3.888644342654654196
0.523000000000000353,-3.884969567888481468
0.524000000000000354,-3.881374678570517212
0.525000000000000355,-3.877849376227061384
0.526000000000000356,-3.874383618759305481
0.527000000000000357,-3.870967618689713952
0.528000000000000358,-3.867591841309816036
0.529000000000000359,-3.864247002733909309
0.530000000000000360,-3.860924067863441334
0.531000000000000361,-3.857614248266310941
0.532000000000000361,-3.854308999975579297
0.533000000000000362,-3.851000021211736790
0.534000000000000363,-3.847679250032766785
0.535000000000000364,-3.844338861915934213
0.536000000000000365,-3.840971267275342882
0.537000000000000366,-3.837569108919025584
0.538000000000000367,-3.834125259449383094
0.539000000000000368,-3.830632818610522072
0.540000000000000369,-3.827085110586149419
0.541000000000000369,-3.823475681251355063
0.542000000000000370,-3.819798295381763076
0.543000000000000371,-3.816046933823179721
0.544000000000000372,-3.812215790625034462
0.545000000000000373,-3.808299270140568016
0.546000000000000374,-3.804291984096858759
0.547000000000000375,-3.800188748637475467
0.548000000000000376,-3.795984581340684283
0.549000000000000377,-3.791674698215800277
0.550000000000000377,-3.787254510680389874
0.551000000000000378,-3.782719622520878122
0.552000000000000379,-3.778065826838976626
0.553000000000000380,-3.773289102986339572
0.554000000000000381,-3.768385613489765085
0.555000000000000382,-3.763351700969136182
0.556000000000000383,-3.758183885050243589
0.557000000000000384,-3.752878859274599854
0.558000000000000385,-3.747433488008176106
0.559000000000000385,-3.741844803351052295
0.560000000000000386,-3.736110002049745304
0.561000000000000387,-3.730226442414070753
0.562000000000000388,-3.724191641240220285
0.563000000000000389,-3.718003270741652155
0.564000000000000390,-3.711659155489434703
0.565000000000000391,-3.705157269363525963
0.566000000000000392,-3.698495732516417611
0.567000000000000393,-3.691672808350573209
0.568000000000000393,-3.684686900510924623
0.569000000000000394,-3.677536549893746898
0.570000000000000395,-3.670220431673115513
0.571000000000000396,-3.662737352346046471
0.572000000000000397,-3.655086246797475180
0.573000000000000398,-3.647266175386101761
0.574000000000000399,-3.639276321052069996
0.575000000000000400,-3.631115986447463140
0.576000000000000401,-3.622784591090468354
0.577000000000000401,-3.614281668544084170
0.578000000000000402,-3.605606863620156588
0.579000000000000403,-3.596759929609490314
0.580000000000000404,-3.587740725538755449
0.581000000000000405,-3.578549213454854883
0.582000000000000406,-3.569185455737351909
0.583000000000000407,-3.559649612439572230
0.584000000000000408,-3.549941938658920382
0.585000000000000409,-3.540062781936877290
0.586000000000000409,-3.530012579689206120
0.587000000000000410,-3.519791856666754537
0.588000000000000411,-3.509401222447274371
0.589000000000000412,-3.498841368958604647
0.590000000000000413,-3.488113068033568798
0.591000000000000414,-3.477217168996888041
0.592000000000000415,-3.466154596284340528
0.593000000000000416,-3.454926347094473105
0.594000000000000417,-3.443533489073014486
0.595000000000000417,-3.431977158030216746
0.596000000000000418,-3.420258555691252589
0.597000000000000419,-3.408378947479839383
0.598000000000000420,-3.396339660335146338
0.599000000000000421,-3.384142080562113186
0.600000000000000422,-3.371787651715220768
0.601000000000000423,-3.359277872515750829
0.602000000000000424,-3.346614294802558565
0.603000000000000425,-3.333798521516361468
0.604000000000000425,-3.320832204717496516
0.605000000000000426,-3.307717043637146137
0.606000000000000427,-3.294454782761921940
0.607000000000000428,-3.281047209951784449
