# SS304-111_CS-6334-AC
# h[nm],U(h)[kJ/mol]
0.149999999999999994,51.501897351141323611
0.150999999999999995,47.694687305271301625
0.151999999999999996,44.047711390519751262
0.152999999999999997,40.471036229512847626
0.153999999999999998,36.980207062024362585
0.154999999999999999,33.610421071294510398
0.156000000000000000,30.384129768013615092
0.157000000000000001,27.304536295739513463
0.158000000000000002,24.359801740020024852
0.159000000000000002,21.530137325189393493
0.160000000000000003,18.794193411188263809
0.161000000000000004,16.133468636128448281
0.162000000000000005,13.534627472768022471
0.163000000000000006,10.990119842293628594
0.164000000000000007,8.497643288253676985
0.165000000000000008,6.058957090649140120
0.166000000000000009,3.678452733152870913
0.167000000000000010,1.361763036790970993
0.168000000000000010,-0.885418887520023956
0.169000000000000011,-3.058228514758954297
0.170000000000000012,-5.153208418410057945
0.171000000000000013,-7.168600047658573615
0.172000000000000014,-9.104396055230983720
0.173000000000000015,-10.962210526895663776
0.174000000000000016,-12.745025123917899990
0.175000000000000017,-14.456863886504191186
0.176000000000000018,-16.102440952653232387
0.177000000000000018,-17.686815678052500544
0.178000000000000019,-19.215079925224628710
0.179000000000000020,-20.692093449069222544
0.180000000000000021,-22.122275787570618633
0.181000000000000022,-23.509457045826728461
0.182000000000000023,-24.856785430754445798
0.183000000000000024,-26.166686230798216428
0.184000000000000025,-27.440864955008400727
0.185000000000000026,-28.680346338316365262
0.186000000000000026,-29.885540672971142584
0.187000000000000027,-31.056329242758447862
0.188000000000000028,-32.192161343104956472
0.189000000000000029,-33.292156320241133471
0.190000000000000030,-34.355205138155035627
0.191000000000000031,-35.380067091686854042
0.192000000000000032,-36.365458360316281983
0.193000000000000033,-37.310130093129274087
0.194000000000000034,-38.212934601365731169
0.195000000000000034,-39.072878994808746711
0.196000000000000035,-39.889166226604245935
0.197000000000000036,-40.661224010276910690
0.198000000000000037,-41.388722450601981961
0.199000000000000038,-42.071581498067963878
0.200000000000000039,-42.709969508430667418
0.201000000000000040,-43.304294278695600440
0.202000000000000041,-43.855187953129529888
0.203000000000000042,-44.363487161302700201
0.204000000000000042,-44.830209677334622143
0.205000000000000043,-45.256528786757215244
0.206000000000000044,-45.643746424570295517
0.207000000000000045,-45.993266013489900956
0.208000000000000046,-46.306565791995225823
0.209000000000000047,-46.585173283101781294
0.210000000000000048,-46.830641421139993952
0.211000000000000049,-47.044526728399695514
0.212000000000000050,-47.228369818562157434
0.213000000000000050,-47.383678400818446619
0.214000000000000051,-47.511912868222452744
0.215000000000000052,-47.614474476368556566
0.216000000000000053,-47.692696053691719271
0.217000000000000054,-47.747835132023240590
0.218000000000000055,-47.781069344705827007
0.219000000000000056,-47.793493908631532463
0.220000000000000057,-47.786120984965393177
0.221000000000000058,-47.759880699954301519
0.222000000000000058,-47.715623600998142706
0.223000000000000059,-47.654124322989510176
0.224000000000000060,-47.576086244787731516
0.225000000000000061,-47.482146924616692729
0.226000000000000062,-47.372884115280768924
0.227000000000000063,-47.248822174582457478
0.228000000000000064,-47.110438702489908280
0.229000000000000065,-46.958171253822946767
0.230000000000000066,-46.792423992969403912
0.231000000000000066,-46.613574174958472440
0.232000000000000067,-46.421978354733134609
0.233000000000000068,-46.217978243375497982
0.234000000000000069,-46.001906146110918883
0.235000000000000070,-45.774089931969882628
0.236000000000000071,-45.534857498890772831
0.237000000000000072,-45.284540710719646484
0.238000000000000073,-45.023478793957295352
0.239000000000000073,-44.752021192205198474
0.240000000000000074,-44.470529885084275179
0.241000000000000075,-44.179381185977149471
0.242000000000000076,-43.878967039326141730
0.243000000000000077,-43.569695843472352692
0.244000000000000078,-43.251992829219560122
0.245000000000000079,-42.926300027527865666
0.246000000000000080,-42.593075862077277804
0.247000000000000081,-42.252794403970668213
0.248000000000000081,-41.905944326660154786
0.249000000000000082,-41.553027599363318245
0.250000000000000111,-41.194557956869132909
0.251000000000000112,-40.831059182796579421
0.252000000000000113,-40.463063242135575592
0.253000000000000114,-40.091108297338465150
0.254000000000000115,-39.715736640408010771
0.255000000000000115,-39.337492571398101404
0.256000000000000116,-38.956920251565364310
0.257000000000000117,-38.574561557125740308
0.258000000000000118,-38.190953957226753346
0.259000000000000119,-37.806628437377412411
0.260000000000000120,-37.422107487219328448
0.261000000000000121,-37.037903169198514775
0.262000000000000122,-36.654515282435596646
0.263000000000000123,-36.272429633907918856
0.264000000000000123,-35.892116426969856491
0.265000000000000124,-35.514028775257322934
0.266000000000000125,-35.138601348160946714
0.267000000000000126,-34.766249152314323112
0.268000000000000127,-34.397366451935376119
0.269000000000000128,-34.032325829381832705
0.270000000000000129,-33.671477385936711357
0.271000000000000130,-33.315148081625096665
0.272000000000000131,-32.963641211778920592
0.273000000000000131,-32.617236017104836776
0.274000000000000132,-32.276187423171656121
0.275000000000000133,-31.940725904509331912
0.276000000000000134,-31.611057467896898743
0.277000000000000135,-31.287363748907246475
0.278000000000000136,-30.969802215362147280
0.279000000000000137,-30.658506471029159712
0.280000000000000138,-30.353586652652563060
0.281000000000000139,-30.055129913248681106
0.282000000000000139,-29.763200984504447177
0.283000000000000140,-29.477842811089931985
0.284000000000000141,-29.199077249725196026
0.285000000000000142,-28.926905825922311521
0.286000000000000143,-28.661310541449239508
0.287000000000000144,-28.402254725727281937
0.288000000000000145,-28.149683924574020466
0.289000000000000146,-27.903526819931748548
0.290000000000000147,-27.663696174474956990
0.291000000000000147,-27.430089795263491226
0.292000000000000148,-27.202591510897594418
0.293000000000000149,-26.981072156932327744
0.294000000000000150,-26.765390564619234937
0.295000000000000151,-26.555394548359647189
0.296000000000000152,-26.350921887572560820
0.297000000000000153,-26.151801298999941991
0.298000000000000154,-25.957853395789573625
0.299000000000000155,-25.768891630009328253
0.300000000000000155,-25.584723215555062126
0.301000000000000156,-25.405150028714842847
0.302000000000000157,-25.229969483945069442
0.303000000000000158,-25.058975382696775824
0.304000000000000159,-24.891958733403001247
0.305000000000000160,-24.728708540998987075
0.306000000000000161,-24.569012564596739878
0.307000000000000162,-24.412658042172441952
0.308000000000000163,-24.259432381349483876
0.309000000000000163,-24.109123815572047533
0.310000000000000164,-23.961522025162697247
0.311000000000000165,-23.816418722943360819
0.312000000000000166,-23.673608204272557742
0.313000000000000167,-23.532887861511788685
0.314000000000000168,-23.394058663082553551
0.315000000000000169,-23.256925597410955220
0.316000000000000170,-23.121298082181304778
0.317000000000000171,-22.986990339432800567
0.318000000000000171,-22.853821737134598635
0.319000000000000172,-22.721617097966248622
0.320000000000000173,-22.590206976110572157
0.321000000000000174,-22.459427902937733279
0.322000000000000175,-22.329122602520783403
0.323000000000000176,-22.199140177976229182
0.324000000000000177,-22.069336269667907402
0.325000000000000178,-21.939573186349420553
0.326000000000000179,-21.809720010350496011
0.327000000000000179,-21.679652677934903693
0.328000000000000180,-21.549254035974534816
0.329000000000000181,-21.418413876094938075
0.330000000000000182,-21.287028947452142802
0.331000000000000183,-21.155002949301554338
0.332000000000000184,-21.022246504514392029
0.333000000000000185,-20.888677115189018707
0.334000000000000186,-20.754219101491706567
0.335000000000000187,-20.618803524845176867
0.336000000000000187,-20.482368096564790960
0.337000000000000188,-20.344857073019490201
0.338000000000000189,-20.206221138371155632
0.339000000000000190,-20.066417275918929874
0.340000000000000191,-19.925408629046920339
0.341000000000000192,-19.783164352744158521
0.342000000000000193,-19.639659456633594914
0.343000000000000194,-19.494874640415403633
0.344000000000000195,-19.348796122595963709
0.345000000000000195,-19.201415463340360645
0.346000000000000196,-19.052729382251499146
0.347000000000000197,-18.902739571844300315
0.348000000000000198,-18.751452507448597373
0.349000000000000199,-18.598879254239019332
0.350000000000000200,-18.445035272055925191
0.351000000000000201,-18.289940218646240311
0.352000000000000202,-18.133617751919160810
0.353000000000000203,-17.976095331777891317
0.354000000000000203,-17.817404022055065127
0.355000000000000204,-17.657578293047144768
0.356000000000000205,-17.496655825110991600
0.357000000000000206,-17.334677313754635719
0.358000000000000207,-17.171686276623724154
0.359000000000000208,-17.007728862755875809
0.360000000000000209,-16.842853664446124640
0.361000000000000210,-16.677111532039141650
0.362000000000000210,-16.510555391936893699
0.363000000000000211,-16.343240068084718075
0.364000000000000212,-16.175222107173759412
0.365000000000000213,-16.006559607773841236
0.366000000000000214,-15.837312053587897509
0.367000000000000215,-15.667540150997254500
0.368000000000000216,-15.497305671045950248
0.369000000000000217,-15.326671295992349897
0.370000000000000218,-15.155700470537482261
0.371000000000000218,-14.984457257821185650
0.372000000000000219,-14.813006200260232958
0.373000000000000220,-14.641412185286473147
0.374000000000000221,-14.469740316027625227
0.375000000000000222,-14.298055786959059432
0.376000000000000223,-14.126423764541391037
0.377000000000000224,-13.954909272846048651
0.378000000000000225,-13.783577084159128745
0.379000000000000226,-13.612491614542786778
0.380000000000000226,-13.441716824323259871
0.381000000000000227,-13.271316123464790948
0.382000000000000228,-13.101352281780382469
0.383000000000000229,-12.931887343921752986
0.384000000000000230,-12.762982549083654149
0.385000000000000231,-12.594698255350866845
0.386000000000000232,-12.427093868609997429
0.387000000000000233,-12.260227775942558637
0.388000000000000234,-12.094157283410762460
0.389000000000000234,-11.928938558143117987
0.390000000000000235,-11.764626574622592869
0.391000000000000236,-11.601275065077022219
0.392000000000000237,-11.438936473867892474
0.393000000000000238,-11.277661915771567180
0.394000000000000239,-11.117501138044259434
0.395000000000000240,-10.958502486160728751
0.396000000000000241,-10.800712873114887813
0.397000000000000242,-10.644177752169564855
0.398000000000000242,-10.488941092941928446
0.399000000000000243,-10.335045360710514828
0.400000000000000244,-10.182531498829490602
0.401000000000000245,-10.031438914136309393
0.402000000000000246,-9.881805465238789665
0.403000000000000247,-9.733667453568234151
0.404000000000000248,-9.587059617086399754
0.405000000000000249,-9.442015126534597513
0.406000000000000250,-9.298565584114619753
0.407000000000000250,-9.156741024492442094
0.408000000000000251,-9.016569918017077967
0.409000000000000252,-8.878079176048684573
0.410000000000000253,-8.741294158291522010
0.411000000000000254,-8.606238682029466958
0.412000000000000255,-8.472935033163548013
0.413000000000000256,-8.341403978953090714
0.414000000000000257,-8.211664782364030302
0.415000000000000258,-8.083735217930357209
0.416000000000000258,-7.957631589036722630
0.417000000000000259,-7.833368746532498150
0.418000000000000260,-7.710960108590160011
0.419000000000000261,-7.590417681722799514
0.420000000000000262,-7.471752082878472478
0.421000000000000263,-7.354972562531114200
0.422000000000000264,-7.240087028690306070
0.423000000000000265,-7.127102071754618962
0.424000000000000266,-7.016022990135814652
0.425000000000000266,-6.906853816583270245
0.426000000000000267,-6.799597345140836246
0.427000000000000268,-6.694255158670398664
0.428000000000000269,-6.590827656879076457
0.429000000000000270,-6.489314084789141290
0.430000000000000271,-6.389712561592213902
0.431000000000000272,-6.292020109831600649
0.432000000000000273,-6.196232684858872908
0.433000000000000274,-6.102345204513090593
0.434000000000000274,-6.010351578973252451
0.435000000000000275,-5.920244740736753997
0.436000000000000276,-5.832016674678863311
0.437000000000000277,-5.745658448150026132
0.438000000000000278,-5.661160241070303023
0.439000000000000279,-5.578511375981905829
0.440000000000000280,-5.497700348022867445
0.441000000000000281,-5.418714854786864876
0.442000000000000282,-5.341541826036020346
0.443000000000000282,-5.266167453235317097
0.444000000000000283,-5.192577218879078416
0.445000000000000284,-5.120755925581731205
0.446000000000000285,-5.050687724906514298
0.447000000000000286,-4.982356145907878009
0.448000000000000287,-4.915744123364300222
0.449000000000000288,-4.850834025680386574
0.450000000000000289,-4.787607682438085099
0.451000000000000290,-4.726046411578651352
0.452000000000000290,-4.666131046198127130
0.453000000000000291,-4.607841960940635140
0.454000000000000292,-4.551159097974926127
0.455000000000000293,-4.496061992540915320
0.456000000000000294,-4.442529798054205337
0.457000000000000295,-4.390541310757586579
0.458000000000000296,-4.340074993909818879
0.459000000000000297,-4.291109001502858789
0.460000000000000298,-4.243621201499860440
0.461000000000000298,-4.197589198587174941
0.462000000000000299,-4.152990356434569819
0.463000000000000300,-4.109801819458716032
0.464000000000000301,-4.068000534085896902
0.465000000000000302,-4.027563269510706867
0.466000000000000303,-3.988466637948286486
0.467000000000000304,-3.950687114378256926
0.468000000000000305,-3.914201055779551019
0.469000000000000306,-3.878984719855574248
0.470000000000000306,-3.845014283250119291
0.471000000000000307,-3.812265859254863720
0.472000000000000308,-3.780715515009981598
0.473000000000000309,-3.750339288199766141
0.474000000000000310,-3.721113203245876910
0.475000000000000311,-3.693013287001146061
0.476000000000000312,-3.666015583947442202
0.477000000000000313,-3.640096170901359951
0.478000000000000314,-3.615231171232117902
0.479000000000000314,-3.591396768596247568
0.480000000000000315,-3.568569220194014235
0.481000000000000316,-3.546724869552979609
0.482000000000000317,-3.525840158844220973
0.483000000000000318,-3.505891640737133663
0.484000000000000319,-3.486855989798927968
0.485000000000000320,-3.468710013445268636
0.486000000000000321,-3.451430662448538467
0.487000000000000322,-3.434995041010595607
0.488000000000000322,-3.419380416406970546
0.489000000000000323,-3.404564228209596255
0.490000000000000324,-3.390524097095392708
0.491000000000000325,-3.377237833248078580
0.492000000000000326,-3.364683444360699660
0.493000000000000327,-3.352839143246522546
0.494000000000000328,-3.341683355065952377
0.495000000000000329,-3.331194724177267030
0.496000000000000330,-3.321352120618965564
0.497000000000000330,-3.312134646231570834
0.498000000000000331,-3.303521640426895001
0.499000000000000332,-3.295492685612525285
0.500000000000000333,-3.288027612279593281
0.501000000000000334,-3.281106503761753057
0.502000000000000335,-3.274709700673208879
0.503000000000000336,-3.268817805033831458
0.504000000000000337,-3.263411684089146725
0.505000000000000338,-3.258472473833145422
0.506000000000000338,-3.253981582241658010
0.507000000000000339,-3.249920692224135710
0.508000000000000340,-3.246271764301535079
0.509000000000000341,-3.243017039017924930
0.510000000000000342,-3.240139039093510753
0.511000000000000343,-3.237620571326519148
0.512000000000000344,-3.235444728251452240
0.513000000000000345,-3.233594889561042685
0.514000000000000346,-3.232054723299253141
0.515000000000000346,-3.230808186832487827
0.516000000000000347,-3.229839527606122029
0.517000000000000348,-3.229133283693424339
0.518000000000000349,-3.228674284143713713
0.519000000000000350,-3.228447649136615638
0.520000000000000351,-3.228438789949183096
0.521000000000000352,-3.228633408742363819
0.522000000000000353,-3.229017498173456513
0.523000000000000353,-3.229577340840862121
0.524000000000000354,-3.230299508567460176
0.525000000000000355,-3.231170861528764426
0.526000000000000356,-3.232178547231912003
0.527000000000000357,-3.233309999351460906
0.528000000000000358,-3.234552936427811609
0.529000000000000359,-3.235895360433910017
0.530000000000000360,-3.237325555215966766
0.531000000000000361,-3.238832084813535683
0.532000000000000361,-3.240403791664396405
0.533000000000000362,-3.242029794699461398
0.534000000000000363,-3.243699487332882825
0.535000000000000364,-3.245402535352289952
0.536000000000000365,-3.247128874714162006
0.537000000000000366,-3.248868709249050024
0.538000000000000367,-3.250612508281356838
0.539000000000000368,-3.252351004168198667
0.540000000000000369,-3.254075189761842957
0.541000000000000369,-3.255776315799988829
0.542000000000000370,-3.257445888228185815
0.543000000000000371,-3.259075665458420534
0.544000000000000372,-3.260657655567951174
0.545000000000000373,-3.262184113442200051
0.546000000000000374,-3.263647537865570936
0.547000000000000375,-3.265040668563788273
0.548000000000000376,-3.266356483201416694
0.549000000000000377,-3.267588194337958107
0.550000000000000377,-3.268729246345920991
0.551000000000000378,-3.269773312294164125
0.552000000000000379,-3.270714290799624280
0.553000000000000380,-3.271546302850539156
0.554000000000000381,-3.272263688604132970
0.555000000000000382,-3.272861004161648601
0.556000000000000383,-3.273333018323491217
0.557000000000000384,-3.273674709327212273
0.558000000000000385,-3.273881261570923407
0.559000000000000385,-3.273948062324670616
0.560000000000000386,-3.273870698432158832
0.561000000000000387,-3.273644953005246272
0.562000000000000388,-3.273266802113423246
0.563000000000000389,-3.272732411470443026
0.564000000000000390,-3.272038133120258152
0.565000000000000391,-3.271180502124244605
0.566000000000000392,-3.270156233251686473
0.567000000000000393,-3.268962217675364545
0.568000000000000393,-3.267595519674068250
0.569000000000000394,-3.266053373343761557
0.570000000000000395,-3.264333179319040656
0.571000000000000396,-3.262432501506475013
0.572000000000000397,-3.260349063831362137
0.573000000000000398,-3.258080746999347355
0.574000000000000399,-3.255625585274271483
0.575000000000000400,-3.252981763273647964
0.576000000000000401,-3.250147612782927631
0.577000000000000401,-3.247121609589857627
0.578000000000000402,-3.243902370340039365
0.579000000000000403,-3.240488649414776656
0.580000000000000404,-3.236879335832255400
0.581000000000000405,-3.233073450173084673
0.582000000000000406,-3.229070141531020344
0.583000000000000407,-3.224868684489913484
0.584000000000000408,-3.220468476127567037
0.585000000000000409,-3.215869033047376035
0.586000000000000409,-3.211069988438457479
0.587000000000000410,-3.206071089164983956
0.588000000000000411,-3.200872192885344525
0.589000000000000412,-3.195473265201755897
0.590000000000000413,-3.189874376840895032
0.591000000000000414,-3.184075700866081604
0.592000000000000415,-3.178077509921464205
0.593000000000000416,-3.171880173508711653
0.594000000000000417,-3.165484155296595326
0.595000000000000417,-3.158890010463826670
0.596000000000000418,-3.152098383075528254
0.597000000000000419,-3.145110003493634565
0.598000000000000420,-3.137925685821480570
0.599000000000000421,-3.130546325382870254
0.600000000000000422,-3.122972896235812534
0.601000000000000423,-3.115206448721110188
0.602000000000000424,-3.107248107046003405
0.603000000000000425,-3.099099066902950561
0.604000000000000425,-3.090760593123702549
0.605000000000000426,-3.082234017368729706
0.606000000000000427,-3.073520735852064867
0.607000000000000428,-3.064622207101618923
