# SS304-111_CS-4945-AC
# h[nm],U(h)[kJ/mol]
0.149999999999999994,99.886269271243079970
0.150999999999999995,96.173433875104592516
0.151999999999999996,92.456224089196950899
0.152999999999999997,88.723249586759834528
0.153999999999999998,85.039073130067080797
0.154999999999999999,81.465768860235584725
0.156000000000000000,78.037729626842462949
0.157000000000000001,74.761092464727056495
0.158000000000000002,71.622310020904762951
0.159000000000000002,68.598157537165164399
0.160000000000000003,65.663861757058214152
0.161000000000000004,62.798385292347497000
0.162000000000000005,59.987036700821001034
0.163000000000000006,57.222028384321674821
0.164000000000000007,54.501692994406404580
0.165000000000000008,51.828985067857672675
0.166000000000000009,49.209746398457234307
0.167000000000000010,46.651058705437677077
0.168000000000000010,44.159872669578390969
0.169000000000000011,41.741998197528673131
0.170000000000000012,39.401467355302621343
0.171000000000000013,37.140234842606680843
0.172000000000000014,34.958155583774690456
0.173000000000000015,32.853169309696731659
0.174000000000000016,30.821622870315707132
0.175000000000000017,28.858668365085399898
0.176000000000000018,26.958685906220456019
0.177000000000000018,25.115691721515950974
0.178000000000000019,23.323703885024062998
0.179000000000000020,21.577048340758175016
0.180000000000000021,19.870596594977140370
0.181000000000000022,18.199933339752970340
0.182000000000000023,16.561457380120437222
0.183000000000000024,14.952422738003372515
0.184000000000000025,13.370928931941538309
0.185000000000000026,11.815870439648637813
0.186000000000000026,10.286855494053497750
0.187000000000000027,8.784103875406572115
0.188000000000000028,7.308332444989863674
0.189000000000000029,5.860635988936341967
0.190000000000000030,4.442369638786198394
0.191000000000000031,3.055037812208897918
0.192000000000000032,1.700193348234444457
0.193000000000000033,0.379349347843064622
0.194000000000000034,-0.906094795356357730
0.195000000000000034,-2.154912562243839425
0.196000000000000035,-3.366094775915050796
0.197000000000000036,-4.538880034660974339
0.198000000000000037,-5.672772194213568042
0.199000000000000038,-6.767546274668522877
0.200000000000000039,-7.823244347514753727
0.201000000000000040,-8.840163044191921671
0.202000000000000041,-9.818834336685114295
0.203000000000000042,-10.760001189044000824
0.204000000000000042,-11.664589581197772006
0.205000000000000043,-12.533678276178703115
0.206000000000000044,-13.368467550256672993
0.207000000000000045,-14.170247942112473183
0.208000000000000046,-14.940369909917595947
0.209000000000000047,-15.680215120308099941
0.210000000000000048,-16.391169935561187287
0.211000000000000049,-17.074601518336969264
0.212000000000000050,-17.731836839568735797
0.213000000000000050,-18.364144755959912914
0.214000000000000051,-18.972721219803226234
0.215000000000000052,-19.558677595576419606
0.216000000000000053,-20.123031984604800471
0.217000000000000054,-20.666703400269220481
0.218000000000000055,-21.190508590763474928
0.219000000000000056,-21.695161273083840570
0.220000000000000057,-22.181273519479777434
0.221000000000000058,-22.649359024670342677
0.222000000000000058,-23.099837977418726354
0.223000000000000059,-23.533043262259152328
0.224000000000000060,-23.949227725073633621
0.225000000000000061,-24.348572248681286112
0.226000000000000062,-24.731194400594596061
0.227000000000000063,-25.097157433684046168
0.228000000000000064,-25.446479440848815301
0.229000000000000065,-25.779142486203220130
0.230000000000000066,-26.095101557137883930
0.231000000000000066,-26.394293203390681413
0.232000000000000067,-26.676643750536733535
0.233000000000000068,-26.942076995741739864
0.234000000000000069,-27.190521312952277810
0.235000000000000070,-27.421916112723181413
0.236000000000000071,-27.636217618467487256
0.237000000000000072,-27.833403935972967247
0.238000000000000073,-28.013479406515823911
0.239000000000000073,-28.176478245811445333
0.240000000000000074,-28.322467481399996814
0.241000000000000075,-28.451549209916116467
0.242000000000000076,-28.563862203108328686
0.243000000000000077,-28.659582897535422319
0.244000000000000078,-28.738925807668664447
0.245000000000000079,-28.802143405768184437
0.246000000000000080,-28.849525514485179656
0.247000000000000081,-28.881398259773980897
0.248000000000000081,-28.898122632482944994
0.249000000000000082,-28.900092707034207962
0.250000000000000111,-28.887733564999443558
0.251000000000000112,-28.861498970222537963
0.252000000000000113,-28.821868840523926281
0.253000000000000114,-28.769346559022171306
0.254000000000000115,-28.704456165808089452
0.255000000000000115,-28.627739468169227877
0.256000000000000116,-28.539753104854959531
0.257000000000000117,-28.441065597049437486
0.258000000000000118,-28.332254415829861927
0.259000000000000119,-28.213903092977734133
0.260000000000000120,-28.086598399116830649
0.261000000000000121,-27.950927610306290916
0.262000000000000122,-27.807475881449221333
0.263000000000000123,-27.656823742207770067
0.264000000000000123,-27.499544728564604412
0.265000000000000124,-27.336203160750983443
0.266000000000000125,-27.167352075986464399
0.267000000000000126,-26.993531322349561208
0.268000000000000127,-26.815265818130484377
0.269000000000000128,-26.633063979206333727
0.270000000000000129,-26.447416315328126757
0.271000000000000130,-26.258794194715232351
0.272000000000000131,-26.067648775013729789
0.273000000000000131,-25.874410097486126858
0.274000000000000132,-25.679486340256183041
0.275000000000000133,-25.483263225527181817
0.276000000000000134,-25.286103574918382009
0.277000000000000135,-25.088347006415467888
0.278000000000000136,-24.890309765898159355
0.279000000000000137,-24.692284685784294140
0.280000000000000138,-24.494541263006723852
0.281000000000000139,-24.297325848308403806
0.282000000000000139,-24.100861938695157249
0.283000000000000140,-23.905350564816377101
0.284000000000000141,-23.710970765043462904
0.285000000000000142,-23.517880138077924101
0.286000000000000143,-23.326215466037240276
0.287000000000000144,-23.136093400131123587
0.288000000000000145,-22.947611201247688939
0.289000000000000146,-22.760847528010494045
0.290000000000000147,-22.575863265140554859
0.291000000000000147,-22.392702385254160902
0.292000000000000148,-22.211392837545496093
0.293000000000000149,-22.031947457136276114
0.294000000000000150,-21.854364889219500157
0.295000000000000151,-21.678630522478112397
0.296000000000000152,-21.504717426616455356
0.297000000000000153,-21.332587289202685099
0.298000000000000154,-21.162191347377991235
0.299000000000000155,-20.993471310344066438
0.300000000000000155,-20.826360268889580141
0.301000000000000156,-20.660783588558700785
0.302000000000000157,-20.496659783397802812
0.303000000000000158,-20.333901367539972682
0.304000000000000159,-20.172415682198398201
0.305000000000000160,-20.012105695939009564
0.306000000000000161,-19.852870776389757168
0.307000000000000162,-19.694607431816113063
0.308000000000000163,-19.537210021251897984
0.309000000000000163,-19.380571432118795627
0.310000000000000164,-19.224583724498515380
0.311000000000000165,-19.069138741437019036
0.312000000000000166,-18.914128684862333785
0.313000000000000167,-18.759446656884097848
0.314000000000000168,-18.604987166416730560
0.315000000000000169,-18.450646601227582266
0.316000000000000170,-18.296323665657634905
0.317000000000000171,-18.141919784395874160
0.318000000000000171,-17.987339472808859142
0.319000000000000172,-17.832490674436229483
0.320000000000000173,-17.677285066359907262
0.321000000000000174,-17.521638333240879604
0.322000000000000175,-17.365470410893202313
0.323000000000000176,-17.208705700330874322
0.324000000000000177,-17.051273253279020992
0.325000000000000178,-16.893106930188487524
0.326000000000000179,-16.734145531832361087
0.327000000000000179,-16.574332905593539778
0.328000000000000180,-16.413618027576852398
0.329000000000000181,-16.251955061696733651
0.330000000000000182,-16.089303396901421195
0.331000000000000183,-15.925627663701083847
0.332000000000000184,-15.760897731165988134
0.333000000000000185,-15.595088685556550701
0.334000000000000186,-15.428180791737389654
0.335000000000000187,-15.260159438513971608
0.336000000000000187,-15.091015069013749894
0.337000000000000188,-14.920743097212948669
0.338000000000000189,-14.749343811687495531
0.339000000000000190,-14.576822267640688224
0.340000000000000191,-14.403188168232187394
0.341000000000000192,-14.228455736203816429
0.342000000000000193,-14.052643576765294853
0.343000000000000194,-13.875774532671394823
0.344000000000000195,-13.697875532387314479
0.345000000000000195,-13.518977432205025124
0.346000000000000196,-13.339114853137662209
0.347000000000000197,-13.158326013383270237
0.348000000000000198,-12.976652557113478537
0.349000000000000199,-12.794139380305967535
0.350000000000000200,-12.610834454304091778
0.351000000000000201,-12.426788647750493411
0.352000000000000202,-12.242055547506327073
0.353000000000000203,-12.056691279132412120
0.354000000000000203,-11.870754327473715506
0.355000000000000204,-11.684305357854842811
0.356000000000000205,-11.497407038360575982
0.357000000000000206,-11.310123863643063657
0.358000000000000207,-11.122521980665169394
0.359000000000000208,-10.934669016759048787
0.360000000000000209,-10.746633910348569074
0.361000000000000210,-10.558486744655414924
0.362000000000000210,-10.370298584680474718
0.363000000000000211,-10.182141317725326601
0.364000000000000212,-9.994087497692300204
0.365000000000000213,-9.806210193376864837
0.366000000000000214,-9.618582840942005774
0.367000000000000215,-9.431279100741429389
0.368000000000000216,-9.244372718636570951
0.369000000000000217,-9.057937391931560001
0.370000000000000218,-8.872046640030614384
0.371000000000000218,-8.686773679903378564
0.372000000000000219,-8.502191306426224671
0.373000000000000220,-8.318371777650508392
0.374000000000000221,-8.135386705033280208
0.375000000000000222,-7.953306948650724628
0.376000000000000223,-7.772202517401022526
0.377000000000000224,-7.592142474190056944
0.378000000000000225,-7.413194846081348821
0.379000000000000226,-7.235426539380237720
0.380000000000000226,-7.058903259611942538
0.381000000000000227,-6.883689436343154000
0.382000000000000228,-6.709848152788265629
0.383000000000000229,-6.537441080132916582
0.384000000000000230,-6.366528416499857457
0.385000000000000231,-6.197168830475865420
0.386000000000000232,-6.029419409111649308
0.387000000000000233,-5.863335610301581902
0.388000000000000234,-5.698971219444881164
0.389000000000000234,-5.536378310285719806
0.390000000000000235,-5.375607209825501442
0.391000000000000236,-5.216706467197768760
0.392000000000000237,-5.059722826392648365
0.393000000000000238,-4.904701202716016617
0.394000000000000239,-4.751684662866092701
0.395000000000000240,-4.600714408508858710
0.396000000000000241,-4.451829763232479920
0.397000000000000242,-4.305068162759983608
0.398000000000000242,-4.160465148299127058
0.399000000000000243,-4.018054362908147326
0.400000000000000244,-3.877867550755951243
0.401000000000000245,-3.739934559156350868
0.402000000000000246,-3.604283343255897165
0.403000000000000247,-3.470939973256051303
0.404000000000000248,-3.339928644051726625
0.405000000000000249,-3.211271687169169553
0.406000000000000250,-3.084989584887886771
0.407000000000000250,-2.961100986432879889
0.408000000000000251,-2.839622726125235364
0.409000000000000252,-2.720569843381200670
0.410000000000000253,-2.603955604451649641
0.411000000000000254,-2.489791525796384519
0.412000000000000255,-2.378087398989664258
0.413000000000000256,-2.268851317055940786
0.414000000000000257,-2.162089702136984481
0.415000000000000258,-2.057807334394355703
0.416000000000000258,-1.956007382053460031
0.417000000000000259,-1.856691432498167149
0.418000000000000260,-1.759859524327603397
0.419000000000000261,-1.665510180289217157
0.420000000000000262,-1.573640441005187185
0.421000000000000263,-1.484245899411611891
0.422000000000000264,-1.397320735832847438
0.423000000000000265,-1.312857753615840561
0.424000000000000266,-1.230848415252297379
0.425000000000000266,-1.151282878918814756
0.426000000000000267,-1.074150035368045319
0.427000000000000268,-0.999437545106504621
0.428000000000000269,-0.927131875797202687
0.429000000000000270,-0.857218339827914177
0.430000000000000271,-0.789681131988427376
0.431000000000000272,-0.724503367202573134
0.432000000000000273,-0.661667118263404630
0.433000000000000274,-0.601153453522220382
0.434000000000000274,-0.542942474484549797
0.435000000000000275,-0.487013353268581084
0.436000000000000276,-0.433344369883738534
0.437000000000000277,-0.381912949289374026
0.438000000000000278,-0.332695698195769107
0.439000000000000279,-0.285668441571704512
0.440000000000000280,-0.240806258824977804
0.441000000000000281,-0.198083519624220106
0.442000000000000282,-0.157473919332473983
0.443000000000000282,-0.118950514024655798
0.444000000000000283,-0.082485755063183216
0.445000000000000284,-0.048051523207634762
0.446000000000000285,-0.015619162236044693
0.447000000000000286,0.014840487942602782
0.448000000000000287,0.043357058703880860
0.449000000000000288,0.069960620668704634
0.450000000000000289,0.094681652225328761
0.451000000000000290,0.117551008626986114
0.452000000000000290,0.138599891678175074
0.453000000000000291,0.157859820021192171
0.454000000000000292,0.175362600033285965
0.455000000000000293,0.191140297343487114
0.456000000000000294,0.205225208976944795
0.457000000000000295,0.217649836133574942
0.458000000000000296,0.228446857606444897
0.459000000000000297,0.237649103844635279
0.460000000000000298,0.245289531663905491
0.461000000000000298,0.251401199607901638
0.462000000000000299,0.256017243961377261
0.463000000000000300,0.259170855416304913
0.464000000000000301,0.260895256390748731
0.465000000000000302,0.261223678999640385
0.466000000000000303,0.260189343675810481
0.467000000000000304,0.257825438439052701
0.468000000000000305,0.254165098810043122
0.469000000000000306,0.249241388365629923
0.470000000000000306,0.243087279931212180
0.471000000000000307,0.235735637405369264
0.472000000000000308,0.227219198211451673
0.473000000000000309,0.217570556370326657
0.474000000000000310,0.206822146187988387
0.475000000000000311,0.195006226551239420
0.476000000000000312,0.182154865824477846
0.477000000000000313,0.168299927339960576
0.478000000000000314,0.153473055473791531
0.479000000000000314,0.137705662299438203
0.480000000000000315,0.121028914810375768
0.481000000000000316,0.103473722703104537
0.482000000000000317,0.085070726711625910
0.483000000000000318,0.065850287484175832
0.484000000000000319,0.045842474992890826
0.485000000000000320,0.025077058466789003
0.486000000000000321,0.003583496838438532
0.487000000000000322,-0.018609070305552266
0.488000000000000322,-0.041471831280215546
0.489000000000000323,-0.064976310374043028
0.490000000000000324,-0.089094375447175106
0.491000000000000325,-0.113798245066111914
0.492000000000000326,-0.139060495185220206
0.493000000000000327,-0.164854065385301063
0.494000000000000328,-0.191152264679596257
0.495000000000000329,-0.217928776897490684
0.496000000000000330,-0.245157665656289436
0.497000000000000330,-0.272813378931318795
0.498000000000000331,-0.300870753234743382
0.499000000000000332,-0.329305017413162038
0.500000000000000333,-0.358091796074379631
0.501000000000000334,-0.387207112653392249
0.502000000000000335,-0.416627392127655927
0.503000000000000336,-0.446329463391691328
0.504000000000000337,-0.476290561300933057
0.505000000000000338,-0.506488328394640641
0.506000000000000338,-0.536900816307637530
0.507000000000000339,-0.567506486880511085
0.508000000000000340,-0.598284212977819307
0.509000000000000341,-0.629213279023660310
0.510000000000000342,-0.660273381264022796
0.511000000000000343,-0.691444627764976838
0.512000000000000344,-0.722707538155862417
0.513000000000000345,-0.754043043126304879
0.514000000000000346,-0.785432483685943206
0.515000000000000346,-0.816857610195437567
0.516000000000000347,-0.848300581177320878
0.517000000000000348,-0.879743961915061545
0.518000000000000349,-0.911170722848551384
0.519000000000000350,-0.942564237774060176
0.520000000000000351,-0.973908281856723290
0.521000000000000352,-1.005187029463149306
0.522000000000000353,-1.036385051821936631
0.523000000000000353,-1.067487314519529829
0.524000000000000354,-1.098479174838682626
0.525000000000000355,-1.129346378946835427
0.526000000000000356,-1.160075058941270942
0.527000000000000357,-1.190651729758022359
0.528000000000000358,-1.221063285951276445
0.529000000000000359,-1.251296998349654244
0.530000000000000360,-1.281340510596021609
0.531000000000000361,-1.311181835576882282
0.532000000000000361,-1.340809351747594080
0.533000000000000362,-1.370211799359272620
0.534000000000000363,-1.399378276593252979
0.535000000000000364,-1.428298235608718825
0.536000000000000365,-1.456961478509038788
0.537000000000000366,-1.485358153232154255
0.538000000000000367,-1.513478749370252618
0.539000000000000368,-1.541314093923778161
0.540000000000000369,-1.568855346994749045
0.541000000000000369,-1.596093997424117283
0.542000000000000370,-1.623021858377905247
0.543000000000000371,-1.649631062886543820
0.544000000000000372,-1.675914059341885975
0.545000000000000373,-1.701863606956055097
0.546000000000000374,-1.727472771186340239
0.547000000000000375,-1.752734919130035207
0.548000000000000376,-1.777643714893167637
0.549000000000000377,-1.802193114936778695
0.550000000000000377,-1.826377363404420695
0.551000000000000378,-1.850190987434354728
0.552000000000000379,-1.873628792459784309
0.553000000000000380,-1.896685857500441497
0.554000000000000381,-1.919357530448617677
0.555000000000000382,-1.941639423352692351
0.556000000000000383,-1.963527407701076255
0.557000000000000384,-1.985017609709357256
0.558000000000000385,-2.006106405613399701
0.559000000000000385,-2.026790416970960074
0.560000000000000386,-2.047066505974305173
0.561000000000000387,-2.066931770776284427
0.562000000000000388,-2.086383540832116523
0.563000000000000389,-2.105419372259108801
0.564000000000000390,-2.124037043216411735
0.565000000000000391,-2.142234549306861080
0.566000000000000392,-2.160010099002818151
0.567000000000000393,-2.177362109097840559
0.568000000000000393,-2.194289200185976618
0.569000000000000394,-2.210790192170369206
0.570000000000000395,-2.226864099802714048
0.571000000000000396,-2.242510128255148949
0.572000000000000397,-2.257727668726003500
0.573000000000000398,-2.272516294080763277
0.574000000000000399,-2.286875754529549276
0.575000000000000400,-2.300805973342373356
0.576000000000000401,-2.314307042603266584
0.577000000000000401,-2.327379219004424904
0.578000000000000402,-2.340022919681382874
0.579000000000000403,-2.352238718090164049
0.580000000000000404,-2.364027339927316174
0.581000000000000405,-2.375389659093707806
0.582000000000000406,-2.386326693702798707
0.583000000000000407,-2.396839602134194003
0.584000000000000408,-2.406929679133102518
0.585000000000000409,-2.416598351956331658
0.586000000000000409,-2.425847176565409491
0.587000000000000410,-2.434677833867336272
0.588000000000000411,-2.443092126003439724
0.589000000000000412,-2.451091972686778142
0.590000000000000413,-2.458679407588453714
0.591000000000000414,-2.465856574773189092
0.592000000000000415,-2.472625725184459444
0.593000000000000416,-2.478989213179436657
0.594000000000000417,-2.484949493113988161
0.595000000000000417,-2.490509115977847632
0.596000000000000418,-2.495670726080188029
0.597000000000000419,-2.500437057785648065
0.598000000000000420,-2.504810932300893800
0.599000000000000421,-2.508795254511790418
0.600000000000000422,-2.512393009871166427
0.601000000000000423,-2.515607261337160061
0.602000000000000424,-2.518441146362109695
0.603000000000000425,-2.520897873931935429
0.604000000000000425,-2.522980721655838643
0.605000000000000426,-2.524693032906291101
0.606000000000000427,-2.526038214009095562
0.607000000000000428,-2.527019731483362452
0.608000000000000429,-2.527641109331230318
0.609000000000000430,-2.527905926377070678
0.610000000000000431,-2.527817813655996559
