# SS304-111_ALANINEZWITTER
# h[nm],U(h)[kJ/mol]
0.149999999999999994,82.774151316742432982
0.150999999999999995,77.493011972107467500
0.151999999999999996,72.956571192950676163
0.152999999999999997,68.662040933531116593
0.153999999999999998,64.453083580893846261
0.154999999999999999,60.316409825087625052
0.156000000000000000,56.281433813851627690
0.157000000000000001,52.376785646128361407
0.158000000000000002,48.616236019846652994
0.159000000000000002,44.998312347538700351
0.160000000000000003,41.511052609936271551
0.161000000000000004,38.137598604622823473
0.162000000000000005,34.860758840606379749
0.163000000000000006,31.665979616710945521
0.164000000000000007,28.542804353734048561
0.165000000000000008,25.485162069467786949
0.166000000000000009,22.490882355909896262
0.167000000000000010,19.560791876835693870
0.168000000000000010,16.697666828414089224
0.169000000000000011,13.905229648184207036
0.170000000000000012,11.187302320814181300
0.171000000000000013,8.547168948577848369
0.172000000000000014,5.987157538764849463
0.173000000000000015,3.508423297109835026
0.174000000000000016,1.110900163289882059
0.175000000000000017,-1.206619207940004657
0.176000000000000018,-3.446315118014878998
0.177000000000000018,-5.611120620330926734
0.178000000000000019,-7.704480137464294387
0.179000000000000020,-9.730110964637798787
0.180000000000000021,-11.691785114796726219
0.181000000000000022,-13.593142924662132032
0.182000000000000023,-15.437544680287334842
0.183000000000000024,-17.227962357503923130
0.184000000000000025,-18.966910408022691570
0.185000000000000026,-20.656412279925124409
0.186000000000000026,-22.297997922938673554
0.187000000000000027,-23.892726756607721939
0.188000000000000028,-25.441230333492086402
0.189000000000000029,-26.943769078556677243
0.190000000000000030,-28.400297913297645636
0.191000000000000031,-29.810536179768586607
0.192000000000000032,-31.174037984669428880
0.193000000000000033,-32.490259823693627084
0.194000000000000034,-33.758623073924844959
0.195000000000000034,-34.978569623590892945
0.196000000000000035,-36.149609521832076098
0.197000000000000036,-37.271360063632940296
0.198000000000000037,-38.343576171334625258
0.199000000000000038,-39.366172294353347638
0.200000000000000039,-40.339236327004570626
0.201000000000000040,-41.263036247472278717
0.202000000000000041,-42.138020317383528379
0.203000000000000042,-42.964811760369265414
0.204000000000000042,-43.744198868804062386
0.205000000000000043,-44.477121479729071041
0.206000000000000044,-45.164654722294088174
0.207000000000000045,-45.807990877618379955
0.208000000000000046,-46.408420114581076632
0.209000000000000047,-46.967310777566723345
0.210000000000000048,-47.486089809524109739
0.211000000000000049,-47.966223799860941313
0.212000000000000050,-48.409201054877243564
0.213000000000000050,-48.816515001065127421
0.214000000000000051,-49.189649150446257408
0.215000000000000052,-49.530063783386133025
0.216000000000000053,-49.839184438736367611
0.217000000000000054,-50.118392244048514783
0.218000000000000055,-50.369016069983807427
0.219000000000000056,-50.592326452679031945
0.220000000000000057,-50.789531195300916977
0.221000000000000058,-50.961772534767149523
0.222000000000000058,-51.110125740997702337
0.223000000000000059,-51.235599003379697081
0.224000000000000060,-51.339134451671029069
0.225000000000000061,-51.421610155617408111
0.226000000000000062,-51.483842948418519825
0.227000000000000063,-51.526591923196406242
0.228000000000000064,-51.550562458180039016
0.229000000000000065,-51.556410634862075426
0.230000000000000066,-51.544747923403100742
0.231000000000000066,-51.516146020606427669
0.232000000000000067,-51.471141737470233579
0.233000000000000068,-51.410241845307552921
0.234000000000000069,-51.333927801422547077
0.235000000000000070,-51.242660287108364514
0.236000000000000071,-51.136883502096509346
0.237000000000000072,-51.017029170388582315
0.238000000000000073,-50.883520222527053534
0.239000000000000073,-50.736774128726914057
0.240000000000000074,-50.577205865843964716
0.241000000000000075,-50.405230508867660433
0.242000000000000076,-50.221265444486064666
0.243000000000000077,-50.025732210286399493
0.244000000000000078,-49.819057968350641374
0.245000000000000079,-49.601676626407233073
0.246000000000000080,-49.374029623358232755
0.247000000000000081,-49.136566398953860357
0.248000000000000081,-48.889744569691316656
0.249000000000000082,-48.634029834724330499
0.250000000000000111,-48.369895636739549616
0.251000000000000112,-48.097822603441478861
0.252000000000000113,-47.818297795546570228
0.253000000000000114,-47.531813787068017518
0.254000000000000115,-47.238867603232890247
0.255000000000000115,-46.939959540655436854
0.256000000000000116,-46.635591893444434675
0.257000000000000117,-46.326267607788601310
0.258000000000000118,-46.012488886280564770
0.259000000000000119,-45.694755761844525921
0.260000000000000120,-45.373564659655230002
0.261000000000000121,-45.049406963905425982
0.262000000000000122,-44.722767604722164947
0.263000000000000123,-44.394123678969087621
0.264000000000000123,-44.063943117123280047
0.265000000000000124,-43.732683406897209011
0.266000000000000125,-43.400790382802185263
0.267000000000000126,-43.068697089431360325
0.268000000000000127,-42.736822724886700087
0.269000000000000128,-42.405571669493561160
0.270000000000000129,-42.075332603742161552
0.271000000000000130,-41.746477718273048652
0.272000000000000131,-41.419362017685330102
0.273000000000000131,-41.094322718992252419
0.274000000000000132,-40.771678744680315276
0.275000000000000133,-40.451730309543592057
0.276000000000000134,-40.134758599762285769
0.277000000000000135,-39.821025542073094527
0.278000000000000136,-39.510773660333612156
0.279000000000000137,-39.204226016311892522
0.280000000000000138,-38.901586231132299076
0.281000000000000139,-38.603038583473157530
0.282000000000000139,-38.308748180340316480
0.283000000000000140,-38.018861196026001892
0.284000000000000141,-37.733505174701662099
0.285000000000000142,-37.452789391982655332
0.286000000000000143,-37.176805270736423381
0.287000000000000144,-36.905626846380982897
0.288000000000000145,-36.639311276932936323
0.289000000000000146,-36.377899393109416337
0.290000000000000147,-36.121416283863155172
0.291000000000000147,-35.869871912830639360
0.292000000000000148,-35.623261761296596717
0.293000000000000149,-35.381567493419950665
0.294000000000000150,-35.144757639625879619
0.295000000000000151,-34.912788294240428399
0.296000000000000152,-34.685603823627211284
0.297000000000000153,-34.463137581278310506
0.298000000000000154,-34.245312626508464859
0.299000000000000155,-34.032042443605227788
0.300000000000000155,-33.823231658492048268
0.301000000000000156,-33.618776750167725709
0.302000000000000157,-33.418566754390624851
0.303000000000000158,-33.222483957279891342
0.304000000000000159,-33.030404576706459352
0.305000000000000160,-32.842199429542731082
0.306000000000000161,-32.657734583031817976
0.307000000000000162,-32.476871988723040374
0.308000000000000163,-32.299470097599950691
0.309000000000000163,-32.125384455200020284
0.310000000000000164,-31.954468275691120027
0.311000000000000165,-31.786572994027341821
0.312000000000000166,-31.621548795457822933
0.313000000000000167,-31.459245121804066514
0.314000000000000168,-31.299511154055615236
0.315000000000000169,-31.142196270960351256
0.316000000000000170,-30.987150483403638646
0.317000000000000171,-30.834224844480662142
0.318000000000000171,-30.683271835268463690
0.319000000000000172,-30.534145726398826071
0.320000000000000173,-30.386702915619583365
0.321000000000000174,-30.240802241611923762
0.322000000000000175,-30.096305274403011509
0.323000000000000176,-29.953076582779100789
0.324000000000000177,-29.810983979162983815
0.325000000000000178,-29.669898742471509934
0.326000000000000179,-29.529695819516263100
0.327000000000000179,-29.390254005549884653
0.328000000000000180,-29.251456104596211816
0.329000000000000181,-29.113189070232390776
0.330000000000000182,-28.975344127515011650
0.331000000000000183,-28.837816876764254204
0.332000000000000184,-28.700507379934457219
0.333000000000000185,-28.563320230312463366
0.334000000000000186,-28.426164606292957160
0.335000000000000187,-28.288954309984887914
0.336000000000000187,-28.151607791404472891
0.337000000000000188,-28.014048159008815730
0.338000000000000189,-27.876203177320395099
0.339000000000000190,-27.738005252385629973
0.340000000000000191,-27.599391405801924293
0.341000000000000192,-27.460303238037347739
0.342000000000000193,-27.320686881753431408
0.343000000000000194,-27.180492945828213180
0.344000000000000195,-27.039676450760186555
0.345000000000000195,-26.898196756117442874
0.346000000000000196,-26.756017480677780185
0.347000000000000197,-26.613106415886839784
0.348000000000000198,-26.469435433241454092
0.349000000000000199,-26.324980386184925862
0.350000000000000200,-26.179721007080285489
0.351000000000000201,-26.033640799805958466
0.352000000000000202,-25.886726928496745614
0.353000000000000203,-25.738970102931538975
0.354000000000000203,-25.590364461046895883
0.355000000000000204,-25.440907449033893784
0.356000000000000205,-25.290599699454123339
0.357000000000000206,-25.139444907788735861
0.358000000000000207,-24.987449707813091493
0.359000000000000208,-24.834623546168504760
0.360000000000000209,-24.680978556481910857
0.361000000000000210,-24.526529433363247534
0.362000000000000210,-24.371293306591049088
0.363000000000000211,-24.215289615776626420
0.364000000000000212,-24.058539985778388370
0.365000000000000213,-23.901068103118994657
0.366000000000000214,-23.742899593640480305
0.367000000000000215,-23.584061901614155943
0.368000000000000216,-23.424584170506154379
0.369000000000000217,-23.264497125582124681
0.370000000000000218,-23.103832958519664231
0.371000000000000218,-22.942625214181234128
0.372000000000000219,-22.780908679686092455
0.373000000000000220,-22.618719275905668553
0.374000000000000221,-22.456093951493489413
0.375000000000000222,-22.293070579547737964
0.376000000000000223,-22.129687856992596551
0.377000000000000224,-21.965985206752819181
0.378000000000000225,-21.802002682784792142
0.379000000000000226,-21.637780878016872776
0.380000000000000226,-21.473360835242296218
0.381000000000000227,-21.308783960997637053
0.382000000000000228,-21.144091942452092781
0.383000000000000229,-20.979326667323494604
0.384000000000000230,-20.814530146829739010
0.385000000000000231,-20.649744441676936901
0.386000000000000232,-20.485011591078254867
0.387000000000000233,-20.320373544791660692
0.388000000000000234,-20.155872098158255312
0.389000000000000234,-19.991548830117881863
0.390000000000000235,-19.827445044172922195
0.391000000000000236,-19.663601712267208654
0.392000000000000237,-19.500059421542012217
0.393000000000000238,-19.336858323927579306
0.394000000000000239,-19.174038088524739010
0.395000000000000240,-19.011637856727951146
0.396000000000000241,-18.849696200038366101
0.397000000000000242,-18.688251080512475966
0.398000000000000242,-18.527339813789946987
0.399000000000000243,-18.366999034641942501
0.400000000000000244,-18.207264664979238233
0.401000000000000245,-18.048171884258586317
0.402000000000000246,-17.889755102223563910
0.403000000000000247,-17.732047933915470850
0.404000000000000248,-17.575083176889247483
0.405000000000000249,-17.418892790568069273
0.406000000000000250,-17.263507877670200230
0.407000000000000250,-17.108958667641271489
0.408000000000000251,-16.955274502024852978
0.409000000000000252,-16.802483821704406353
0.410000000000000253,-16.650614155949561734
0.411000000000000254,-16.499692113200239874
0.412000000000000255,-16.349743373522155565
0.413000000000000256,-16.200792682668236466
0.414000000000000257,-16.052863847680420406
0.415000000000000258,-15.905979733967777534
0.416000000000000258,-15.760162263797067084
0.417000000000000259,-15.615432416132978943
0.418000000000000260,-15.471810227766354728
0.419000000000000261,-15.329314795669366944
0.420000000000000262,-15.187964280518116311
0.421000000000000263,-15.047775911323938658
0.422000000000000264,-14.908765991115942029
0.423000000000000265,-14.770949903618600274
0.424000000000000266,-14.634342120869481718
0.425000000000000266,-14.498956211723328380
0.426000000000000267,-14.364804851190143609
0.427000000000000268,-14.231899830556310249
0.428000000000000269,-14.100252068238958714
0.429000000000000270,-13.969871621325319566
0.430000000000000271,-13.840767697750072429
0.431000000000000272,-13.712948669065179175
0.432000000000000273,-13.586422083757923929
0.433000000000000274,-13.461194681074482915
0.434000000000000274,-13.337272405307478707
0.435000000000000275,-13.214660420507575722
0.436000000000000276,-13.093363125580443906
0.437000000000000277,-12.973384169731668081
0.438000000000000278,-12.854726468223764968
0.439000000000000279,-12.737392218410708011
0.440000000000000280,-12.621382916016411713
0.441000000000000281,-12.506699371625481731
0.442000000000000282,-12.393341727355274173
0.443000000000000282,-12.281309473679879574
0.444000000000000283,-12.170601466377805266
0.445000000000000284,-12.061215943576375054
0.446000000000000285,-11.953150542866897155
0.447000000000000286,-11.846402318466241255
0.448000000000000287,-11.740967758400953969
0.449000000000000288,-11.636842801691939187
0.450000000000000289,-11.534022855518092143
0.451000000000000290,-11.432502812338910303
0.452000000000000290,-11.332277066956811140
0.453000000000000291,-11.233339533501043306
0.454000000000000292,-11.135683662316065323
0.455000000000000293,-11.039302456738095515
0.456000000000000294,-10.944188489744774984
0.457000000000000295,-10.850333920463345549
0.458000000000000296,-10.757730510524099898
0.459000000000000297,-10.666369640246378125
0.460000000000000298,-10.576242324645336979
0.461000000000000298,-10.487339229248489048
0.462000000000000299,-10.399650685711936404
0.463000000000000300,-10.313166707226617547
0.464000000000000301,-10.227877003705986070
0.465000000000000302,-10.143770996747083046
0.466000000000000303,-10.060837834357529985
0.467000000000000304,-9.979066405441745502
0.468000000000000305,-9.898445354040397604
0.469000000000000306,-9.818963093317403690
0.470000000000000306,-9.740607819289692770
0.471000000000000307,-9.663367524295210842
0.472000000000000308,-9.587230010195549212
0.473000000000000309,-9.512182901309495620
0.474000000000000310,-9.438213657075008811
0.475000000000000311,-9.365309584436918300
0.476000000000000312,-9.293457849958670636
0.477000000000000313,-9.222645491656264127
0.478000000000000314,-9.152859430553547782
0.479000000000000314,-9.084086481957932335
0.480000000000000315,-9.016313366456184752
0.481000000000000316,-8.949526720630295529
0.482000000000000317,-8.883713107493656835
0.483000000000000318,-8.818859026648187438
0.484000000000000319,-8.754950924163230397
0.485000000000000320,-8.691975202177522064
0.486000000000000321,-8.629918228225511356
0.487000000000000322,-8.568766344289837633
0.488000000000000322,-8.508505875581761302
0.489000000000000323,-8.449123139051797793
0.490000000000000324,-8.390604451632812655
0.491000000000000325,-8.332936138218144606
0.492000000000000326,-8.276104539377387326
0.493000000000000327,-8.220096018812837357
0.494000000000000328,-8.164896970559476941
0.495000000000000329,-8.110493825931802903
0.496000000000000330,-8.056873060220718585
0.497000000000000330,-8.004021199143892318
0.498000000000000331,-7.951924825053215962
0.499000000000000332,-7.900570582902910033
0.500000000000000333,-7.849945185982005746
0.501000000000000334,-7.800035421415088877
0.502000000000000335,-7.750828155435080191
0.503000000000000336,-7.702310338432118542
0.504000000000000337,-7.654469009782447486
0.505000000000000338,-7.607291302461431926
0.506000000000000338,-7.560764447444809022
0.507000000000000339,-7.514875777902249254
0.508000000000000340,-7.469612733187465992
0.509000000000000341,-7.424962862629042704
0.510000000000000342,-7.380913829126176218
0.511000000000000343,-7.337453412553554877
0.512000000000000344,-7.294569512979640180
0.513000000000000345,-7.252250153702521018
0.514000000000000346,-7.210483484107639285
0.515000000000000346,-7.169257782351553310
0.516000000000000347,-7.128561457875949081
0.517000000000000348,-7.088383053756172281
0.518000000000000349,-7.048711248888288594
0.519000000000000350,-7.009534860019013713
0.520000000000000351,-6.970842843622513385
0.521000000000000352,-6.932624297628187549
0.522000000000000353,-6.894868463003520631
0.523000000000000353,-6.857564725196001021
0.524000000000000354,-6.820702615438118066
0.525000000000000355,-6.784271811919362349
0.526000000000000356,-6.748262140829115019
0.527000000000000357,-6.712663577274346594
0.528000000000000358,-6.677466246075864476
0.529000000000000359,-6.642660422446884816
0.530000000000000360,-6.608236532557694609
0.531000000000000361,-6.574185153989995811
0.532000000000000361,-6.540497016084565018
0.533000000000000362,-6.507163000185786750
0.534000000000000363,-6.474174139786557092
0.535000000000000364,-6.441521620576963869
0.536000000000000365,-6.409196780400177929
0.537000000000000366,-6.377191109118862222
0.538000000000000367,-6.345496248395314787
0.539000000000000368,-6.314103991388655857
0.540000000000000369,-6.283006282372101126
0.541000000000000369,-6.252195216273472411
0.542000000000000370,-6.221663038141962865
0.543000000000000371,-6.191402142544115250
0.544000000000000372,-6.161405072891907864
0.545000000000000373,-6.131664520705832899
0.546000000000000374,-6.102173324815723277
0.547000000000000375,-6.072924470502013783
0.548000000000000376,-6.043911088580244950
0.549000000000000377,-6.015126454431227288
0.550000000000000377,-5.986563986979536622
0.551000000000000378,-5.958217247622792812
0.552000000000000379,-5.930079939114143883
0.553000000000000380,-5.902145904400317278
0.554000000000000381,-5.874409125417558997
0.555000000000000382,-5.846863721847736173
0.556000000000000383,-5.819503949836716039
0.557000000000000384,-5.792324200677265722
0.558000000000000385,-5.765318999458470373
0.559000000000000385,-5.738483003683753303
0.560000000000000386,-5.711811001859406822
0.561000000000000387,-5.685297912055618852
0.562000000000000388,-5.658938780441824967
0.563000000000000389,-5.632728779798163998
0.564000000000000390,-5.606663208004865950
0.565000000000000391,-5.580737486511218037
0.566000000000000392,-5.554947158785799033
0.567000000000000393,-5.529287888749573554
0.568000000000000393,-5.503755459193401478
0.569000000000000394,-5.478345770181469732
0.570000000000000395,-5.453054837442154579
0.571000000000000396,-5.427878790747609372
0.572000000000000397,-5.402813872283613428
0.573000000000000398,-5.377856435010843761
0.574000000000000399,-5.353002941018966787
0.575000000000000400,-5.328249959874725938
0.576000000000000401,-5.303594166965213574
0.577000000000000401,-5.279032341837533338
0.578000000000000402,-5.254561366535906330
0.579000000000000403,-5.230178223937303805
0.580000000000000404,-5.205879996086660633
0.581000000000000405,-5.181663862532666975
0.582000000000000406,-5.157527098665013909
0.583000000000000407,-5.133467074054135715
0.584000000000000408,-5.109481250794232210
0.585000000000000409,-5.085567181850452201
0.586000000000000409,-5.061722509411056947
0.587000000000000410,-5.037944963245347019
0.588000000000000411,-5.014232359068062195
0.589000000000000412,-4.990582596911019131
0.590000000000000413,-4.966993659502621838
0.591000000000000414,-4.943463610655946638
0.592000000000000415,-4.919990593665975354
0.593000000000000416,-4.896572829716600239
0.594000000000000417,-4.873208616297961093
0.595000000000000417,-4.849896325634665217
0.596000000000000418,-4.826634403125336092
0.597000000000000419,-4.803421365794112496
0.598000000000000420,-4.780255800754375173
0.599000000000000421,-4.757136363685321001
0.600000000000000422,-4.734061777321639575
0.601000000000000423,-4.711030829956799337
0.602000000000000424,-4.688042373960227494
0.603000000000000425,-4.665095324308774494
0.604000000000000425,-4.642188657132761520
0.605000000000000426,-4.619321408276919172
0.606000000000000427,-4.596492671876521108
