# SS304-111_BSAI13
# h[nm],U(h)[kJ/mol]
0.149999999999999994,18.339060509479399030
0.150999999999999995,13.944218709315270743
0.151999999999999996,10.561568663978242455
0.152999999999999997,7.486996231708848093
0.153999999999999998,4.472798170069546941
0.154999999999999999,1.474782826061553198
0.156000000000000000,-1.478361089927199945
0.157000000000000001,-4.346242908985613163
0.158000000000000002,-7.100493178352115464
0.159000000000000002,-9.729832844119780333
0.160000000000000003,-12.237084919427740459
0.161000000000000004,-14.633747749877411337
0.162000000000000005,-16.934825940036983383
0.163000000000000006,-19.154974385017808913
0.164000000000000007,-21.306151083327740992
0.165000000000000008,-23.396574512172819027
0.166000000000000009,-25.430639799010620550
0.167000000000000010,-27.409441268135118719
0.168000000000000010,-29.331604004133691177
0.169000000000000011,-31.194202477759489511
0.170000000000000012,-32.993618286412370821
0.171000000000000013,-34.726251686716054223
0.172000000000000014,-36.389049580772734771
0.173000000000000015,-37.979846288248346298
0.174000000000000016,-39.497534808485106339
0.175000000000000017,-40.942097948345306690
0.176000000000000018,-42.314533241026396126
0.177000000000000018,-43.616705273514703833
0.178000000000000019,-44.851155714989182854
0.179000000000000020,-46.020896399398388610
0.180000000000000021,-47.129205273790645947
0.181000000000000022,-48.179439562501066519
0.182000000000000023,-49.174875539268434466
0.183000000000000024,-50.118580073019515453
0.184000000000000025,-51.013315707115722830
0.185000000000000026,-51.861478440655105260
0.186000000000000026,-52.665065539172495335
0.187000000000000027,-53.425669513167164837
0.188000000000000028,-54.144493754720301126
0.189000000000000029,-54.822385102326315121
0.190000000000000030,-55.459878706305616447
0.191000000000000031,-56.057250897959661984
0.192000000000000032,-56.614576245184267123
0.193000000000000033,-57.131785540347038932
0.194000000000000034,-57.608722061578532703
0.195000000000000034,-58.045194037611999249
0.196000000000000035,-58.441021801331558549
0.197000000000000036,-58.796078619921750885
0.198000000000000037,-59.110324629138702335
0.199000000000000038,-59.383833670844730079
0.200000000000000039,-59.616813136146639351
0.201000000000000040,-59.809617154069258049
0.202000000000000041,-59.962753642718482183
0.203000000000000042,-60.076885862745371014
0.204000000000000042,-60.152829188737783284
0.205000000000000043,-60.191543850271251870
0.206000000000000044,-60.194124397918550073
0.207000000000000045,-60.161786627297843211
0.208000000000000046,-60.095852652400211014
0.209000000000000047,-59.997734763452207574
0.210000000000000048,-59.868918639187029385
0.211000000000000049,-59.710946412635905745
0.212000000000000050,-59.525400016724141494
0.213000000000000050,-59.313885163722702032
0.214000000000000051,-59.078016243034440436
0.215000000000000052,-58.819402356423765355
0.216000000000000053,-58.539634649713605086
0.217000000000000054,-58.240275045870987469
0.218000000000000055,-57.922846436656548974
0.219000000000000056,-57.588824348733751890
0.220000000000000057,-57.239630065228595868
0.221000000000000058,-56.876625154941223173
0.222000000000000058,-56.501107338369294553
0.223000000000000059,-56.114307601954614313
0.224000000000000060,-55.717388459004915546
0.225000000000000061,-55.311443247046760519
0.226000000000000062,-54.897496346389814903
0.227000000000000063,-54.476504202908607510
0.228000000000000064,-54.049357038964117805
0.229000000000000065,-53.616881139522050148
0.230000000000000066,-53.179841605436784846
0.231000000000000066,-52.738945472159947769
0.232000000000000067,-52.294845099442817116
0.233000000000000068,-51.848141745614825027
0.234000000000000069,-51.399389248462554747
0.235000000000000070,-50.949097743367246949
0.236000000000000071,-50.497737357987830364
0.237000000000000072,-50.045741831235474706
0.238000000000000073,-49.593512012443405013
0.239000000000000073,-49.141419204389038100
0.240000000000000074,-48.689808321095568999
0.241000000000000075,-48.239000838073209820
0.242000000000000076,-47.789297518818209198
0.243000000000000077,-47.340980906952651708
0.244000000000000078,-46.894317578354957732
0.245000000000000079,-46.449560152004039537
0.246000000000000080,-46.006949062058083655
0.247000000000000081,-45.566714096932855682
0.248000000000000081,-45.129075713863940678
0.249000000000000082,-44.694246139667178852
0.250000000000000111,-44.262430270185447512
0.251000000000000112,-43.833826382268014754
0.252000000000000113,-43.408626673108813065
0.253000000000000114,-42.987017642411181839
0.254000000000000115,-42.569180333186828591
0.255000000000000115,-42.155290447073653581
0.256000000000000116,-41.745518349905083255
0.257000000000000117,-41.340028982917637279
0.258000000000000118,-40.938981694472943218
0.259000000000000119,-40.542530006527087494
0.260000000000000120,-40.150821329328472586
0.261000000000000121,-39.763996636990533773
0.262000000000000122,-39.382190115690754340
0.263000000000000123,-39.005528795309956536
0.264000000000000123,-38.634132174365731771
0.265000000000000124,-38.268111847123194025
0.266000000000000125,-37.907571140803284493
0.267000000000000126,-37.552604769857815370
0.268000000000000127,-37.203298513358461719
0.269000000000000128,-36.859728920655712159
0.270000000000000129,-36.521963049614114993
0.271000000000000130,-36.190058240923377753
0.272000000000000131,-35.864061931228832236
0.273000000000000131,-35.544011507117964754
0.274000000000000132,-35.229934201347035128
0.275000000000000133,-34.921847032093033647
0.276000000000000134,-34.619756785470748639
0.277000000000000135,-34.323660041063554615
0.278000000000000136,-34.033543239777507949
0.279000000000000137,-33.749382792940316733
0.280000000000000138,-33.471145231228213390
0.281000000000000139,-33.198787391711917394
0.282000000000000139,-32.932256641066025793
0.283000000000000140,-32.671491132781127931
0.284000000000000141,-32.416420096052739552
0.285000000000000142,-32.166964153892372735
0.286000000000000143,-31.923035667911115354
0.287000000000000144,-31.684539107162844829
0.288000000000000145,-31.451371438398780356
0.289000000000000146,-31.223422535075563644
0.290000000000000147,-31.000575602473020354
0.291000000000000147,-30.782707616311416388
0.292000000000000148,-30.569689772310994158
0.293000000000000149,-30.361387944204228262
0.294000000000000150,-30.157663147793449809
0.295000000000000151,-29.958372008739758030
0.296000000000000152,-29.763367231872326357
0.297000000000000153,-29.572498069918356833
0.298000000000000154,-29.385610789670984389
0.299000000000000155,-29.202549133734748921
0.300000000000000155,-29.023154776113216258
0.301000000000000156,-28.847267770031134404
0.302000000000000157,-28.674726986511451798
0.303000000000000158,-28.505370542355983332
0.304000000000000159,-28.339036216305647287
0.305000000000000160,-28.175561852281372666
0.306000000000000161,-28.014785748730012926
0.307000000000000162,-27.856547033218721054
0.308000000000000163,-27.700686021537773485
0.309000000000000163,-27.547044560683339398
0.310000000000000164,-27.395466355199278752
0.311000000000000165,-27.245797276459551739
0.312000000000000166,-27.097885654570642799
0.313000000000000167,-26.951582552665392711
0.314000000000000168,-26.806742023447394985
0.315000000000000169,-26.663221347926150173
0.316000000000000170,-26.520881256360024025
0.317000000000000171,-26.379586131494857426
0.318000000000000171,-26.239204194251509961
0.319000000000000172,-26.099607672076224674
0.320000000000000173,-25.960672950222708266
0.321000000000000174,-25.822280706284885810
0.322000000000000175,-25.684316028344710503
0.323000000000000176,-25.546668517139639931
0.324000000000000177,-25.409232372690713220
0.325000000000000178,-25.271906465862997493
0.326000000000000179,-25.134594395358433871
0.327000000000000179,-24.997204530663637456
0.328000000000000180,-24.859650041495321204
0.329000000000000181,-24.721848914301897793
0.330000000000000182,-24.583723956392148580
0.331000000000000183,-24.445202788271870986
0.332000000000000184,-24.306217824775352199
0.333000000000000185,-24.166706245582652457
0.334000000000000186,-24.026609955714846478
0.335000000000000187,-23.885875536597843904
0.336000000000000187,-23.744454188282674068
0.337000000000000188,-23.602301663404237075
0.338000000000000189,-23.459378193453709116
0.339000000000000190,-23.315648407930996910
0.340000000000000191,-23.171081246932942577
0.341000000000000192,-23.025649867722364661
0.342000000000000193,-22.879331545809058923
0.343000000000000194,-22.732107571061071383
0.344000000000000195,-22.583963139349322091
0.345000000000000195,-22.434887240213594595
0.346000000000000196,-22.284872541021439218
0.347000000000000197,-22.133915268075107008
0.348000000000000198,-21.982015085104780638
0.349000000000000199,-21.829174969568335030
0.350000000000000200,-21.675401087161091596
0.351000000000000201,-21.520702664920445812
0.352000000000000202,-21.365091863292793306
0.353000000000000203,-21.208583647512323722
0.354000000000000203,-21.051195658623221618
0.355000000000000204,-20.892948084459117553
0.356000000000000205,-20.733863530876430303
0.357000000000000206,-20.573966893520562849
0.358000000000000207,-20.413285230386858160
0.359000000000000208,-20.251847635422045357
0.360000000000000209,-20.089685113394651239
0.361000000000000210,-19.926830456247806467
0.362000000000000210,-19.763318121131213445
0.363000000000000211,-19.599184110294906702
0.364000000000000212,-19.434465853011943182
0.365000000000000213,-19.269202089683062695
0.366000000000000214,-19.103432758262901103
0.367000000000000215,-18.937198883133351757
0.368000000000000216,-18.770542466537595061
0.369000000000000217,-18.603506382675277564
0.370000000000000218,-18.436134274548074075
0.371000000000000218,-18.268470453633113948
0.372000000000000219,-18.100559802451201108
0.373000000000000220,-17.932447680086212927
0.374000000000000221,-17.764179830702520491
0.375000000000000222,-17.595802295097623613
0.376000000000000223,-17.427361325318479146
0.377000000000000224,-17.258903302361769505
0.378000000000000225,-17.090474656970119582
0.379000000000000226,-16.922121793529136369
0.380000000000000226,-16.753891017062993996
0.381000000000000227,-16.585828463319664650
0.382000000000000228,-16.417980031930930807
0.383000000000000229,-16.250391322626480672
0.384000000000000230,-16.083107574475938861
0.385000000000000231,-15.916173608128122652
0.386000000000000232,-15.749633771011763983
0.387000000000000233,-15.583531885458196342
0.388000000000000234,-15.417911199702231784
0.389000000000000234,-15.252814341714403312
0.390000000000000235,-15.088283275814063700
0.391000000000000236,-14.924359262010337801
0.392000000000000237,-14.761082818015077933
0.393000000000000238,-14.598493683869918414
0.394000000000000239,-14.436630789127136154
0.395000000000000240,-14.275532222522581804
0.396000000000000241,-14.115235204077290376
0.397000000000000242,-13.955776059562854385
0.398000000000000242,-13.797190197265027933
0.399000000000000243,-13.639512086978674787
0.400000000000000244,-13.482775241166649494
0.401000000000000245,-13.327012198214953642
0.402000000000000246,-13.172254507715802418
0.403000000000000247,-13.018532717710153079
0.404000000000000248,-12.865876363821522332
0.405000000000000249,-12.714313960212685117
0.406000000000000250,-12.563872992297380193
0.407000000000000250,-12.414579911139252744
0.408000000000000251,-12.266460129471123963
0.409000000000000252,-12.119538019267986684
0.410000000000000253,-11.973836910807913014
0.411000000000000254,-11.829379093156017433
0.412000000000000255,-11.686185816007210292
0.413000000000000256,-11.544277292824698833
0.414000000000000257,-11.403672705211983285
0.415000000000000258,-11.264390208457410125
0.416000000000000258,-11.126446938191282499
0.417000000000000259,-10.989859018096804988
0.418000000000000260,-10.854641568617436675
0.419000000000000261,-10.720808716604235400
0.420000000000000262,-10.588373605848504511
0.421000000000000263,-10.457348408445955812
0.422000000000000264,-10.327744336940197556
0.423000000000000265,-10.199571657194672625
0.424000000000000266,-10.072839701943561153
0.425000000000000266,-9.947556884973542068
0.426000000000000267,-9.823730715889734455
0.427000000000000268,-9.701367815420519847
0.428000000000000269,-9.580473931217435180
0.429000000000000270,-9.461053954107644159
0.430000000000000271,-9.343111934757931891
0.431000000000000272,-9.226651100710617115
0.432000000000000273,-9.111673873753083797
0.433000000000000274,-8.998181887584113525
0.434000000000000274,-8.886176005741393880
0.435000000000000275,-8.775656339756178426
0.436000000000000276,-8.666622267502225085
0.437000000000000277,-8.559072451707384843
0.438000000000000278,-8.453004858597790161
0.439000000000000279,-8.348416776645667170
0.440000000000000280,-8.245304835392946785
0.441000000000000281,-8.143665024324395318
0.442000000000000282,-8.043492711764868019
0.443000000000000282,-7.944782663776737586
0.444000000000000283,-7.847529063034434316
0.445000000000000284,-7.751725527654471648
0.446000000000000285,-7.657365129960075123
0.447000000000000286,-7.564440415161063136
0.448000000000000287,-7.472943419930099473
0.449000000000000288,-7.382865690858109176
0.450000000000000289,-7.294198302772050724
0.451000000000000290,-7.206931876899615119
0.452000000000000290,-7.121056598866154275
0.453000000000000291,-7.036562236510109258
0.454000000000000292,-6.953438157504156614
0.455000000000000293,-6.871673346769975765
0.456000000000000294,-6.791256423675572584
0.457000000000000295,-6.712175659004754991
0.458000000000000296,-6.634418991689189582
0.459000000000000297,-6.557974045294185927
0.460000000000000298,-6.482828144250151858
0.461000000000000298,-6.408968329822184451
0.462000000000000299,-6.336381375811201977
0.463000000000000300,-6.265053803980372038
0.464000000000000301,-6.194971899201438426
0.465000000000000302,-6.126121724316034189
0.466000000000000303,-6.058489134707691015
0.467000000000000304,-5.992059792580652910
0.468000000000000305,-5.926819180942469067
0.469000000000000306,-5.862752617287440238
0.470000000000000306,-5.799845266978724823
0.471000000000000307,-5.738082156327308780
0.472000000000000308,-5.677448185366511524
0.473000000000000309,-5.617928140320985975
0.474000000000000310,-5.559506705769754475
0.475000000000000311,-5.502168476503070060
0.476000000000000312,-5.445897969073371314
0.477000000000000313,-5.390679633040690533
0.478000000000000314,-5.336497861913556129
0.479000000000000314,-5.283337003786482633
0.480000000000000315,-5.231181371675420522
0.481000000000000316,-5.180015253553036381
0.482000000000000317,-5.129822922085676140
0.483000000000000318,-5.080588644074302884
0.484000000000000319,-5.032296689601801987
0.485000000000000320,-4.984931340889404261
0.486000000000000321,-4.938476900864975150
0.487000000000000322,-4.892917701446279466
0.488000000000000322,-4.848238111542425344
0.489000000000000323,-4.804422544776858039
0.490000000000000324,-4.761455466935419878
0.491000000000000325,-4.719321403143167615
0.492000000000000326,-4.678004944773666907
0.493000000000000327,-4.637490756094731381
0.494000000000000328,-4.597763580654561366
0.495000000000000329,-4.558808247412418524
0.496000000000000330,-4.520609676617984185
0.497000000000000330,-4.483152885443644209
0.498000000000000331,-4.446422993374124388
0.499000000000000332,-4.410405227357728108
0.500000000000000333,-4.375084926723674883
0.501000000000000334,-4.340447547870083689
0.502000000000000335,-4.306478668726950509
0.503000000000000336,-4.273163992998867400
0.504000000000000337,-4.240489354191860905
0.505000000000000338,-4.208440719429088261
0.506000000000000338,-4.177004193059877579
0.507000000000000339,-4.146166020066769597
0.508000000000000340,-4.115912589275155575
0.509000000000000341,-4.086230436370074770
0.510000000000000342,-4.057106246724810461
0.511000000000000343,-4.028526858045779591
0.512000000000000344,-4.000479262838354089
0.513000000000000345,-3.972950610698079199
0.514000000000000346,-3.945928210431794980
0.515000000000000346,-3.919399532013184029
0.516000000000000347,-3.893352208377112156
0.517000000000000348,-3.867774037057242431
0.518000000000000349,-3.842652981671188517
0.519000000000000350,-3.817977173257610879
0.520000000000000351,-3.793734911469521798
0.521000000000000352,-3.769914665627952299
0.522000000000000353,-3.746505075640262028
0.523000000000000353,-3.723494952787130163
0.524000000000000354,-3.700873280382380948
0.525000000000000355,-3.678629214309581563
0.526000000000000356,-3.656752083439447798
0.527000000000000357,-3.635231389931919299
0.528000000000000358,-3.614056809426769323
0.529000000000000359,-3.593218191126496208
0.530000000000000360,-3.572705557775301966
0.531000000000000361,-3.552509105537740908
0.532000000000000361,-3.532619203780662076
0.533000000000000362,-3.513026394761995963
0.534000000000000363,-3.493721393229873406
0.535000000000000364,-3.474695085935402883
0.536000000000000365,-3.455938531062565211
0.537000000000000366,-3.437442957578399128
0.538000000000000367,-3.419199764506773764
0.539000000000000368,-3.401200520128808247
0.540000000000000369,-3.383436961113116759
0.541000000000000369,-3.365900991578797630
0.542000000000000370,-3.348584682094210674
0.543000000000000371,-3.331480268614341433
0.544000000000000372,-3.314580151359640237
0.545000000000000373,-3.297876893639048124
0.546000000000000374,-3.281363220619926580
0.547000000000000375,-3.265032018047496543
0.548000000000000376,-3.248876330916382837
0.549000000000000377,-3.232889362096739383
0.550000000000000377,-3.217064470917368801
0.551000000000000378,-3.201395171708298015
0.552000000000000379,-3.185875132305025836
0.553000000000000380,-3.170498172516760693
0.554000000000000381,-3.155258262560818761
0.555000000000000382,-3.140149521465330995
0.556000000000000383,-3.125166215442313877
0.557000000000000384,-3.110302756233142674
0.558000000000000385,-3.095553699428381655
0.559000000000000385,-3.080913742763885743
0.560000000000000386,-3.066377724394983240
0.561000000000000387,-3.051940621150591504
0.562000000000000388,-3.037597546768997070
0.563000000000000389,-3.023343750116905149
0.564000000000000390,-3.009174613393529096
0.565000000000000391,-2.995085650321191117
0.566000000000000392,-2.981072504324038697
0.567000000000000393,-2.967130946696301841
0.568000000000000393,-2.953256874761594375
0.569000000000000394,-2.939446310024568021
0.570000000000000395,-2.925695396316354113
0.571000000000000396,-2.912000397934984441
0.572000000000000397,-2.898357697782126152
0.573000000000000398,-2.884763795497285344
0.574000000000000399,-2.871215305590660627
0.575000000000000400,-2.857708955575775089
0.576000000000000401,-2.844241584102928488
0.577000000000000401,-2.830810139094547928
0.578000000000000402,-2.817411675883414013
0.579000000000000403,-2.804043355354723044
0.580000000000000404,-2.790702442092894309
0.581000000000000405,-2.777386302534050166
0.582000000000000406,-2.764092403124926101
0.583000000000000407,-2.750818308489148212
0.584000000000000408,-2.737561679601528297
0.585000000000000409,-2.724320271971201635
0.586000000000000409,-2.711091933834294032
0.587000000000000410,-2.697874604356778061
0.588000000000000411,-2.684666311848204145
0.589000000000000412,-2.671465171986867837
0.590000000000000413,-2.658269386057052763
0.591000000000000414,-2.645077239198886154
0.592000000000000415,-2.631887098671306102
0.593000000000000416,-2.618697412128695223
0.594000000000000417,-2.605506705911625254
0.595000000000000417,-2.592313583352144679
0.596000000000000418,-2.579116723094077024
0.597000000000000419,-2.565914877428695728
0.598000000000000420,-2.552706870646144210
0.599000000000000421,-2.539491597402997236
0.600000000000000422,-2.526268021106234940
0.601000000000000423,-2.513035172313990095
0.602000000000000424,-2.499792147153310218
0.603000000000000425,-2.486538105755230710
0.604000000000000425,-2.473272270707393528
0.605000000000000426,-2.459993925524449843
0.606000000000000427,-2.446702413136422116
0.607000000000000428,-2.433397134395266725
