# SS304-111_BSAIV12
# h[nm],U(h)[kJ/mol]
0.149999999999999994,79.730379065911520797
0.150999999999999995,73.555224209854301876
0.151999999999999996,69.438601488556429331
0.152999999999999997,65.832514799129612015
0.153999999999999998,62.175126847772631322
0.154999999999999999,58.361871550459092362
0.156000000000000000,54.463558001776746664
0.157000000000000001,50.588216672999664070
0.158000000000000002,46.822938267322840034
0.159000000000000002,43.217376746798109366
0.160000000000000003,39.786673566393368162
0.161000000000000004,36.521525017272786329
0.162000000000000005,33.399120878450936800
0.163000000000000006,30.392171061983219715
0.164000000000000007,27.475157304729396657
0.165000000000000008,24.627917057148842161
0.166000000000000009,21.837082080559575559
0.167000000000000010,19.096003011808249994
0.168000000000000010,16.403744870021625957
0.169000000000000011,13.763626473979357456
0.170000000000000012,11.181648915285858692
0.171000000000000013,8.665040174127700112
0.172000000000000014,6.221045740339924635
0.173000000000000015,3.856021537407388511
0.174000000000000016,1.574834035767435747
0.175000000000000017,-0.619460279401503611
0.176000000000000018,-2.725701999711942491
0.177000000000000018,-4.744535682848938229
0.178000000000000019,-6.678189719868917962
0.179000000000000020,-8.530177648885768349
0.180000000000000021,-10.304962106624600437
0.181000000000000022,-12.007614283433117208
0.182000000000000023,-13.643493410004086996
0.183000000000000024,-15.217963113483969906
0.184000000000000025,-16.736154807556143709
0.185000000000000026,-18.202782787992774161
0.186000000000000026,-19.622011411217094690
0.187000000000000027,-20.997371565335814836
0.188000000000000028,-22.331721473703801450
0.189000000000000029,-23.627245547251675362
0.190000000000000030,-24.885484363975812983
0.191000000000000031,-26.107388748963025193
0.192000000000000032,-27.293391217059291165
0.193000000000000033,-28.443488602003526466
0.194000000000000034,-29.557330429478582801
0.195000000000000034,-30.634308415526795955
0.196000000000000035,-31.673643322689621016
0.197000000000000036,-32.674466236763052507
0.198000000000000037,-33.635892103772789596
0.199000000000000038,-34.557084067766545843
0.200000000000000039,-35.437307762709757242
0.201000000000000040,-36.275975230858342968
0.202000000000000041,-37.072678565668425676
0.203000000000000042,-37.827213713758929714
0.204000000000000042,-38.539595124548426952
0.205000000000000043,-39.210062116491300799
0.206000000000000044,-39.839077944762536276
0.207000000000000045,-40.427322616447256109
0.208000000000000046,-40.975680515238330770
0.209000000000000047,-41.485223877256125036
0.210000000000000048,-41.957193111059829960
0.211000000000000049,-42.392974885530996687
0.212000000000000050,-42.794078825468361060
0.213000000000000050,-43.162113561891374047
0.214000000000000051,-43.498762786770981847
0.215000000000000052,-43.805761863901587105
0.216000000000000053,-44.084875451841689653
0.217000000000000054,-44.337876503540272211
0.218000000000000055,-44.566526922079852113
0.219000000000000056,-44.772560074038445066
0.220000000000000057,-44.957665292001301793
0.221000000000000058,-45.123474436064029192
0.222000000000000058,-45.271550530816213609
0.223000000000000059,-45.403378449079504264
0.224000000000000060,-45.520357576243043241
0.225000000000000061,-45.623796358897912739
0.226000000000000062,-45.714908618043878619
0.227000000000000063,-45.794811489796316550
0.228000000000000064,-45.864524844599600328
0.229000000000000065,-45.924972028795039591
0.230000000000000066,-45.976981769346252804
0.231000000000000066,-46.021291082973490916
0.232000000000000067,-46.058549034301492497
0.233000000000000068,-46.089321193343053551
0.234000000000000069,-46.114094650224878080
0.235000000000000070,-46.133283454066514651
0.236000000000000071,-46.147234352950931680
0.237000000000000072,-46.156232722628082854
0.238000000000000073,-46.160508582668384747
0.239000000000000073,-46.160242609975924211
0.240000000000000074,-46.155572070665911610
0.241000000000000075,-46.146596602131168652
0.242000000000000076,-46.133383787525133357
0.243000000000000077,-46.115974474764605873
0.244000000000000078,-46.094387801422250561
0.245000000000000079,-46.068625895474532683
0.246000000000000080,-46.038678229762190597
0.247000000000000081,-46.004525615186317111
0.248000000000000081,-45.966143824098331550
0.249000000000000082,-45.923506841057147199
0.250000000000000111,-45.876589743140058886
0.251000000000000112,-45.825371216331085122
0.252000000000000113,-45.769835718207339426
0.253000000000000114,-45.709975300235683449
0.254000000000000115,-45.645791105523748854
0.255000000000000115,-45.577294559880108693
0.256000000000000116,-45.504508275577670418
0.257000000000000117,-45.427466688322141408
0.258000000000000118,-45.346216448650892517
0.259000000000000119,-45.260816589368481289
0.260000000000000120,-45.171338490705281288
0.261000000000000121,-45.077865664703452353
0.262000000000000122,-44.980493379928105924
0.263000000000000123,-44.879328147005779215
0.264000000000000123,-44.774487084738019860
0.265000000000000124,-44.666097185655345925
0.266000000000000125,-44.554294498895345100
0.267000000000000126,-44.439223247226529168
0.268000000000000127,-44.321034893927141241
0.269000000000000128,-44.199887174077026941
0.270000000000000129,-44.075943103653244748
0.271000000000000130,-43.949369978649563961
0.272000000000000131,-43.820338375279405341
0.273000000000000131,-43.689021161182033381
0.274000000000000132,-43.555592526443525969
0.275000000000000133,-43.420227042173067389
0.276000000000000134,-43.283098753349932508
0.277000000000000135,-43.144380311679341844
0.278000000000000136,-43.004242153273338545
0.279000000000000137,-42.862851725105201695
0.280000000000000138,-42.720372763377277181
0.281000000000000139,-42.576964626190992647
0.282000000000000139,-42.432781682216898389
0.283000000000000140,-42.287972756428814591
0.284000000000000141,-42.142680633390632750
0.285000000000000142,-41.997041618064848478
0.286000000000000143,-41.851185153646063952
0.287000000000000144,-41.705233495509894226
0.288000000000000145,-41.559301440004460915
0.289000000000000146,-41.413496106495202298
0.290000000000000147,-41.267916770803239501
0.291000000000000147,-41.122654747947834153
0.292000000000000148,-40.977793321913999591
0.293000000000000149,-40.833407720012800723
0.294000000000000150,-40.689565129281959344
0.295000000000000151,-40.546324752286352577
0.296000000000000152,-40.403737899616814389
0.297000000000000153,-40.261848116351735882
0.298000000000000154,-40.120691339734072756
0.299000000000000155,-39.980296085326116895
0.300000000000000155,-39.840683658932178446
0.301000000000000156,-39.701868391623392540
0.302000000000000157,-39.563857895258124131
0.303000000000000158,-39.426653335961702851
0.304000000000000159,-39.290249723111330127
0.305000000000000160,-39.154636211462054973
0.306000000000000161,-39.019796414147698727
0.307000000000000162,-38.885708724394291380
0.308000000000000163,-38.752346643891662836
0.309000000000000163,-38.619679115880479969
0.310000000000000164,-38.487670861126119348
0.311000000000000165,-38.356282715065603384
0.312000000000000166,-38.225471964529489810
0.313000000000000167,-38.095192682556053398
0.314000000000000168,-37.965396059928494310
0.315000000000000169,-37.836030732178926428
0.316000000000000170,-37.707043100912486011
0.317000000000000171,-37.578377648412320866
0.318000000000000171,-37.449977244590385794
0.319000000000000172,-37.321783445449867145
0.320000000000000173,-37.193736782321508372
0.321000000000000174,-37.065777041229679867
0.322000000000000175,-36.937843531832363908
0.323000000000000176,-36.809875345464092788
0.324000000000000177,-36.681811601890991881
0.325000000000000178,-36.553591684462602984
0.326000000000000179,-36.425155463417034696
0.327000000000000179,-36.296443507162187814
0.328000000000000180,-36.167397281418935506
0.329000000000000181,-36.037959336170210634
0.330000000000000182,-35.908073480413158052
0.331000000000000183,-35.777684944762690122
0.332000000000000184,-35.646740531999014934
0.333000000000000185,-35.515188755694431677
0.334000000000000186,-35.382979967092509810
0.335000000000000187,-35.250066470446782319
0.336000000000000187,-35.116402627057404118
0.337000000000000188,-34.981944948271191720
0.338000000000000189,-34.846652177735322198
0.339000000000000190,-34.710485363215646260
0.340000000000000191,-34.573407918309158049
0.341000000000000192,-34.435385674396208344
0.342000000000000193,-34.296386923190063101
0.343000000000000194,-34.156382450253438776
0.344000000000000195,-34.015345559858751301
0.345000000000000195,-33.873252091576048883
0.346000000000000196,-33.730080428976364715
0.347000000000000197,-33.585811500841245447
0.348000000000000198,-33.440428775269353423
0.349000000000000199,-33.293918247071161431
0.350000000000000200,-33.146268418840030279
0.351000000000000201,-32.997470276084861496
0.352000000000000202,-32.847517256804813712
0.353000000000000203,-32.696405215881036099
0.354000000000000203,-32.544132384653821077
0.355000000000000204,-32.390699326045890416
0.356000000000000205,-32.236108885584798145
0.357000000000000206,-32.080366138668289011
0.358000000000000207,-31.923478334406961920
0.359000000000000208,-31.765454836369144687
0.360000000000000209,-31.606307060542132348
0.361000000000000210,-31.446048410813613572
0.362000000000000210,-31.284694212265861779
0.363000000000000211,-31.122261642564513551
0.364000000000000212,-30.958769661712352672
0.365000000000000213,-30.794238940426886586
0.366000000000000214,-30.628691787389406898
0.367000000000000215,-30.462152075601682810
0.368000000000000216,-30.294645168074872288
0.369000000000000217,-30.126197843064147719
0.370000000000000218,-29.956838219051082461
0.371000000000000218,-29.786595679664905845
0.372000000000000219,-29.615500798722717235
0.373000000000000220,-29.443585265558038344
0.374000000000000221,-29.270881810796606004
0.375000000000000222,-29.097424132727894630
0.376000000000000223,-28.923246824410888678
0.377000000000000224,-28.748385301642805700
0.378000000000000225,-28.572875731910034602
0.379000000000000226,-28.396754964431089263
0.380000000000000226,-28.220060461392897366
0.381000000000000227,-28.042830230472350905
0.382000000000000228,-27.865102758727715582
0.383000000000000229,-27.686916947935465316
0.384000000000000230,-27.508312051441084378
0.385000000000000231,-27.329327612584751961
0.386000000000000232,-27.150003404755572944
0.387000000000000233,-26.970379373121648570
0.388000000000000234,-26.790495578076122030
0.389000000000000234,-26.610392140434186103
0.390000000000000235,-26.430109188409016241
0.391000000000000236,-26.249686806390013061
0.392000000000000237,-26.069164985540691504
0.393000000000000238,-25.888583576229343919
0.394000000000000239,-25.707982242299930675
0.395000000000000240,-25.527400417187344317
0.396000000000000241,-25.346877261875931708
0.397000000000000242,-25.166451624696996703
0.398000000000000242,-24.986162002957229333
0.399000000000000243,-24.806046506386216777
0.400000000000000244,-24.626142822388349174
0.401000000000000245,-24.446488183081665824
0.402000000000000246,-24.267119334102975614
0.403000000000000247,-24.088072505156254977
0.404000000000000248,-23.909383382279468577
0.405000000000000249,-23.731087081802126448
0.406000000000000250,-23.553218125964505703
0.407000000000000250,-23.375810420167493220
0.408000000000000251,-23.198897231820538423
0.409000000000000252,-23.022511170753812593
0.410000000000000253,-22.846684171159260757
0.411000000000000254,-22.671447475024482543
0.412000000000000255,-22.496831617022035488
0.413000000000000256,-22.322866410816388338
0.414000000000000257,-22.149580936749512006
0.415000000000000258,-21.977003530866177528
0.416000000000000258,-21.805161775239035649
0.417000000000000259,-21.634082489553573936
0.418000000000000260,-21.463791723912695630
0.419000000000000261,-21.294314752820348247
0.420000000000000262,-21.125676070304074017
0.421000000000000263,-20.957899386135785846
0.422000000000000264,-20.791007623110601799
0.423000000000000265,-20.625022915343731000
0.424000000000000266,-20.459966607545347017
0.425000000000000266,-20.295859255234230289
0.426000000000000267,-20.132720625850737406
0.427000000000000268,-19.970569700730639084
0.428000000000000269,-19.809424677901482426
0.429000000000000270,-19.649302975663857751
0.430000000000000271,-19.490221236920344694
0.431000000000000272,-19.332195334215814597
0.432000000000000273,-19.175240375452951014
0.433000000000000274,-19.019370710248118428
0.434000000000000274,-18.864599936892751941
0.435000000000000275,-18.710940909886708994
0.436000000000000276,-18.558405748010528669
0.437000000000000277,-18.407005842904140991
0.438000000000000278,-18.256751868120733917
0.439000000000000279,-18.107653788625068358
0.440000000000000280,-17.959720870706082252
0.441000000000000281,-17.812961692274946301
0.442000000000000282,-17.667384153520217183
0.443000000000000282,-17.522995487892504940
0.444000000000000283,-17.379802273392055412
0.445000000000000284,-17.237810444133604193
0.446000000000000285,-17.097025302163004312
0.447000000000000286,-16.957451529502097998
0.448000000000000287,-16.819093200397784216
0.449000000000000288,-16.681953793753216075
0.450000000000000289,-16.546036205719023116
0.451000000000000290,-16.411342762423732466
0.452000000000000290,-16.277875232823134866
0.453000000000000291,-16.145634841649219027
0.454000000000000292,-16.014622282439944456
0.455000000000000293,-15.884837730631939934
0.456000000000000294,-15.756280856699131476
0.457000000000000295,-15.628950839320571831
0.458000000000000296,-15.502846378562015417
0.459000000000000297,-15.377965709056155674
0.460000000000000298,-15.254306613167011974
0.461000000000000298,-15.131866434125129217
0.462000000000000299,-15.010642089120358023
0.463000000000000300,-14.890630082339892937
0.464000000000000301,-14.771826517939990353
0.465000000000000302,-14.654227112940128919
0.466000000000000303,-14.537827210029139025
0.467000000000000304,-14.422621790273367992
0.468000000000000305,-14.308605485717624362
0.469000000000000306,-14.195772591869921797
0.470000000000000306,-14.084117080061966831
0.471000000000000307,-13.973632609677398619
0.472000000000000308,-13.864312540240840477
0.473000000000000309,-13.756149943360693300
0.474000000000000310,-13.649137614519684547
0.475000000000000311,-13.543268084707060339
0.476000000000000312,-13.438533631887427333
0.477000000000000313,-13.334926292300840700
0.478000000000000314,-13.232437871589988632
0.479000000000000314,-13.131059955750165713
0.480000000000000315,-13.030783921898244415
0.481000000000000316,-12.931600948857440159
0.482000000000000317,-12.833502027554619218
0.483000000000000318,-12.736477971227694539
0.484000000000000319,-12.640519425440544410
0.485000000000000320,-12.545616877903631448
0.486000000000000321,-12.451760668098380336
0.487000000000000322,-12.358940996704060211
0.488000000000000322,-12.267147934825809230
0.489000000000000323,-12.176371433023103208
0.490000000000000324,-12.086601330137877852
0.491000000000000325,-11.997827361921981293
0.492000000000000326,-11.910039169463640718
0.493000000000000327,-11.823226307413237990
0.494000000000000328,-11.737378252008394242
0.495000000000000329,-11.652484408898988733
0.496000000000000330,-11.568534120772620000
0.497000000000000330,-11.485516674781457880
0.498000000000000331,-11.403421309771347936
0.499000000000000332,-11.322237223314441934
0.500000000000000333,-11.241953578546530323
0.501000000000000334,-11.162559510810579511
0.502000000000000335,-11.084044134108031798
0.503000000000000336,-11.006396547359603488
0.504000000000000337,-10.929605840477305989
0.505000000000000338,-10.853661100249677673
0.506000000000000338,-10.778551416042285283
0.507000000000000339,-10.704265885315489726
0.508000000000000340,-10.630793618961797975
0.509000000000000341,-10.558123746465083670
0.510000000000000342,-10.486245420883973267
0.511000000000000343,-10.415147823661857984
0.512000000000000344,-10.344820169266057519
0.513000000000000345,-10.275251709658665078
0.514000000000000346,-10.206431738601658310
0.515000000000000346,-10.138349595798988645
0.516000000000000347,-10.070994670878217647
0.517000000000000348,-10.004356407214649138
0.518000000000000349,-9.938424305600397801
0.519000000000000350,-9.873187927761511773
0.520000000000000351,-9.808636899725755143
0.521000000000000352,-9.744760915043917393
0.522000000000000353,-9.681549737867568339
0.523000000000000353,-9.618993205885971065
0.524000000000000354,-9.557081233125243713
0.525000000000000355,-9.495803812612365391
0.526000000000000356,-9.435151018907145470
0.527000000000000357,-9.375113010504861677
0.528000000000000358,-9.315680032112521047
0.529000000000000359,-9.256842416801564610
0.530000000000000360,-9.198590588039857963
0.531000000000000361,-9.140915061605886294
0.532000000000000361,-9.083806447387839711
0.533000000000000362,-9.027255451070518077
0.534000000000000363,-8.971252875712815822
0.535000000000000364,-8.915789623218481452
0.536000000000000365,-8.860856695703015262
0.537000000000000366,-8.806445196759366212
0.538000000000000367,-8.752546332625083636
0.539000000000000368,-8.699151413253703780
0.540000000000000369,-8.646251853292927336
0.541000000000000369,-8.593839172972206342
0.542000000000000370,-8.541904998902428048
0.543000000000000371,-8.490441064790044123
0.544000000000000372,-8.439439212068402085
0.545000000000000373,-8.388891390448591778
0.546000000000000374,-8.338789658392325777
0.547000000000000375,-8.289126183509246459
0.548000000000000376,-8.239893242881105806
0.549000000000000377,-8.191083223315075657
0.550000000000000377,-8.142688621528494153
0.551000000000000378,-8.094702044267446439
0.552000000000000379,-8.047116208361266843
0.553000000000000380,-7.999923940715200743
0.554000000000000381,-7.953118178243414604
0.555000000000000382,-7.906691967744494676
0.556000000000000383,-7.860638465721362600
0.557000000000000384,-7.814950938147861237
0.558000000000000385,-7.769622760183835908
0.559000000000000385,-7.724647415840786735
0.560000000000000386,-7.680018497599914618
0.561000000000000387,-7.635729705984543259
0.562000000000000388,-7.591774849088717581
0.563000000000000389,-7.548147842063730018
0.564000000000000390,-7.504842706564444299
0.565000000000000391,-7.461853570157072291
0.566000000000000392,-7.419174665690105641
0.567000000000000393,-7.376800330630094216
0.568000000000000393,-7.334725006363802535
0.569000000000000394,-7.292943237468390905
0.570000000000000395,-7.251449670951179982
0.571000000000000396,-7.210239055460348823
0.572000000000000397,-7.169306240468269031
0.573000000000000398,-7.128646175428660747
0.574000000000000399,-7.088253908909154077
0.575000000000000400,-7.048124587700475452
0.576000000000000401,-7.008253455903660445
0.577000000000000401,-6.968635853996572038
0.578000000000000402,-6.929267217880919816
0.579000000000000403,-6.890143077911065284
0.580000000000000404,-6.851259057905757288
0.581000000000000405,-6.812610874143989470
0.582000000000000406,-6.774194334346023361
0.583000000000000407,-6.736005336640751295
0.584000000000000408,-6.698039868520405449
0.585000000000000409,-6.660294005783635285
0.586000000000000409,-6.622763911467975717
0.587000000000000410,-6.585445834772646556
0.588000000000000411,-6.548336109972625607
0.589000000000000412,-6.511431155324901354
0.590000000000000413,-6.474727471967767656
0.591000000000000414,-6.438221642814049517
0.592000000000000415,-6.401910331439029100
0.593000000000000416,-6.365790280963894432
0.594000000000000417,-6.329858312935472853
0.595000000000000417,-6.294111326203029044
0.596000000000000418,-6.258546295792731584
0.597000000000000419,-6.223160271780654007
0.598000000000000420,-6.187950378164774889
0.599000000000000421,-6.152913811736819838
0.600000000000000422,-6.118047840954393912
0.601000000000000423,-6.083349804814124795
0.602000000000000424,-6.048817111726330964
0.603000000000000425,-6.014447238391750439
0.604000000000000425,-5.980237728680936726
0.605000000000000426,-5.946186192516748292
