# SS304-111_PYRIDINE-AC
# h[nm],U(h)[kJ/mol]
0.149999999999999994,55.408778103128000225
0.150999999999999995,51.557821543690465660
0.151999999999999996,47.930603228825980011
0.152999999999999997,44.394630571949974751
0.153999999999999998,40.946511798462147169
0.154999999999999999,37.614681705869720929
0.156000000000000000,34.420579322569167857
0.157000000000000001,31.368704167912511593
0.158000000000000002,28.449101438549330823
0.159000000000000002,25.643686088704107817
0.160000000000000003,22.932363362992528977
0.161000000000000004,20.297410074056831064
0.162000000000000005,17.725863540090923465
0.163000000000000006,15.210239738634385276
0.164000000000000007,12.748088315366832290
0.165000000000000008,10.340881995633486312
0.166000000000000009,7.992643337782615376
0.167000000000000010,5.708594028065477666
0.168000000000000010,3.494001953763038237
0.169000000000000011,1.353312190462899300
0.170000000000000012,-0.710416990960353378
0.171000000000000013,-2.695794763171863728
0.172000000000000014,-4.603141162814393894
0.173000000000000015,-6.434350090169449921
0.174000000000000016,-8.192629728796459787
0.175000000000000017,-9.882173167231059097
0.176000000000000018,-11.507803584056304658
0.177000000000000018,-13.074628574955889704
0.178000000000000019,-14.587728419934981261
0.179000000000000020,-16.051894164472866322
0.180000000000000021,-17.471423786211978779
0.181000000000000022,-18.849978626443061103
0.182000000000000023,-20.190497681762948901
0.183000000000000024,-21.495164156096503660
0.184000000000000025,-22.765416681431432266
0.185000000000000026,-24.001996614008952236
0.186000000000000026,-25.205022586192335154
0.187000000000000027,-26.374083841909090609
0.188000000000000028,-27.508344628102900487
0.189000000000000029,-28.606652906523883928
0.190000000000000030,-29.667647768556086874
0.191000000000000031,-30.689861086981153449
0.192000000000000032,-31.671810053467361001
0.193000000000000033,-32.612078281146843040
0.194000000000000034,-33.509384067440024069
0.195000000000000034,-34.362635196935137571
0.196000000000000035,-35.170970312120388712
0.197000000000000036,-35.933787393667387278
0.198000000000000037,-36.650760280002991465
0.199000000000000038,-37.321844430007530491
0.200000000000000039,-37.947273306879040433
0.201000000000000040,-38.527546850436870329
0.202000000000000041,-39.063413524311584979
0.203000000000000042,-39.555847387814580429
0.204000000000000042,-40.006021562923493207
0.205000000000000043,-40.415279356496924379
0.206000000000000044,-40.785104166776605439
0.207000000000000045,-41.117089160129978609
0.208000000000000046,-41.412907556013962562
0.209000000000000047,-41.674284211073370443
0.210000000000000048,-41.902969051605907680
0.211000000000000049,-42.100712770670959628
0.212000000000000050,-42.269245084234270848
0.213000000000000050,-42.410255731421806047
0.214000000000000051,-42.525378307999794458
0.215000000000000052,-42.616176939827184356
0.216000000000000053,-42.684135734015626440
0.217000000000000054,-42.730650889311526441
0.218000000000000055,-42.757025302964535740
0.219000000000000056,-42.764465478073653060
0.220000000000000057,-42.754080512010702364
0.221000000000000058,-42.726882931859208270
0.222000000000000058,-42.683791135719658882
0.223000000000000059,-42.625633198086426034
0.224000000000000060,-42.553151802216568456
0.225000000000000061,-42.467010071476053668
0.226000000000000062,-42.367798084133411862
0.227000000000000063,-42.256039871134731811
0.228000000000000064,-42.132200713289293503
0.229000000000000065,-41.996694572366621401
0.230000000000000066,-41.849891509287559188
0.231000000000000066,-41.692124961407373007
0.232000000000000067,-41.523698769438539102
0.233000000000000068,-41.344893862523043992
0.234000000000000069,-41.155974527082520353
0.235000000000000070,-40.957194201156063684
0.236000000000000071,-40.748800750837915530
0.237000000000000072,-40.531041199058165603
0.238000000000000073,-40.304165889253837918
0.239000000000000073,-40.068432077436312966
0.240000000000000074,-39.824106955783022954
0.241000000000000075,-39.571470119198437487
0.242000000000000076,-39.310815493349700489
0.243000000000000077,-39.042452748554978825
0.244000000000000078,-38.766708228657265067
0.245000000000000079,-38.483925427739734459
0.246000000000000080,-38.194465050314192922
0.247000000000000081,-37.898704692535019944
0.248000000000000081,-37.597038183141123113
0.249000000000000082,-37.289874623301976442
0.250000000000000111,-36.977637164421601312
0.251000000000000112,-36.660761562320672624
0.252000000000000113,-36.339694545149079374
0.253000000000000114,-36.014892030950541368
0.254000000000000115,-35.686817229077242075
0.255000000000000115,-35.355938657693982918
0.256000000000000116,-35.022728107477973936
0.257000000000000117,-34.687658579360359568
0.258000000000000118,-34.351202221814574500
0.259000000000000119,-34.013828290815183664
0.260000000000000120,-33.676001153203124261
0.261000000000000121,-33.338178351829228063
0.262000000000000122,-33.000808748534012693
0.263000000000000123,-32.664330758777978758
0.264000000000000123,-32.329170689582511500
0.265000000000000124,-31.995741190388450548
0.266000000000000125,-31.664439824502164100
0.267000000000000126,-31.335647766980702755
0.268000000000000127,-31.009728633119141961
0.269000000000000128,-30.687027440143690882
0.270000000000000129,-30.367869703287187377
0.271000000000000130,-30.052560666128179889
0.272000000000000131,-29.741384663909684605
0.273000000000000131,-29.434604617514555258
0.274000000000000132,-29.132461654859344691
0.275000000000000133,-28.835174855671048988
0.276000000000000134,-28.542941114925916679
0.277000000000000135,-28.255935119652441756
0.278000000000000136,-27.974309433322169127
0.279000000000000137,-27.698194681668763195
0.280000000000000138,-27.427699833479415759
0.281000000000000139,-27.162912569685950359
0.282000000000000139,-26.903899733941369021
0.283000000000000140,-26.650707857791672950
0.284000000000000141,-26.403363753538378944
0.285000000000000142,-26.161875167927036046
0.286000000000000143,-25.926231489884663972
0.287000000000000144,-25.696404505659991457
0.288000000000000145,-25.472349194888121104
0.289000000000000146,-25.254004561300924081
0.290000000000000147,-25.041294492031180852
0.291000000000000147,-24.834128639708218600
0.292000000000000148,-24.632403321810333097
0.293000000000000149,-24.436002432021965092
0.294000000000000150,-24.244798358636561630
0.295000000000000151,-24.058652905347507556
0.296000000000000152,-23.877418210074747407
0.297000000000000153,-23.700937657783377688
0.298000000000000154,-23.529046783557269862
0.299000000000000155,-23.361574162496623330
0.300000000000000155,-23.198342283308967637
0.301000000000000156,-23.039168402758228638
0.302000000000000157,-22.883865378424260939
0.303000000000000158,-22.732242477504215117
0.304000000000000159,-22.584106159657089563
0.305000000000000160,-22.439260832151667557
0.306000000000000161,-22.297509575826435224
0.307000000000000162,-22.158654840606899938
0.308000000000000163,-22.022499109549645624
0.309000000000000163,-21.888845530595766320
0.310000000000000164,-21.757498515415448992
0.311000000000000165,-21.628264304913354721
0.312000000000000166,-21.500951501139674349
0.313000000000000167,-21.375371565513866301
0.314000000000000168,-21.251339283419213189
0.315000000000000169,-21.128673195364754633
0.316000000000000170,-21.007195995037999836
0.317000000000000171,-20.886734894687862152
0.318000000000000171,-20.767121958381700608
0.319000000000000172,-20.648194403774830619
0.320000000000000173,-20.529794873114742160
0.321000000000000174,-20.411771674277041200
0.322000000000000175,-20.293978992694782448
0.323000000000000176,-20.176277075100053082
0.324000000000000177,-20.058532386044078066
0.325000000000000178,-19.940617738202867315
0.326000000000000179,-19.822412397508610837
0.327000000000000179,-19.703802164172223854
0.328000000000000180,-19.584679430683220147
0.329000000000000181,-19.464943217886105487
0.330000000000000182,-19.344499190240384223
0.331000000000000183,-19.223259651375137480
0.332000000000000184,-19.101143521046424212
0.333000000000000185,-18.978076294600548124
0.334000000000000186,-18.853989986035855964
0.335000000000000187,-18.728823055742289228
0.336000000000000187,-18.602520323981497796
0.337000000000000188,-18.475032871150396829
0.338000000000000189,-18.346317925849302100
0.339000000000000190,-18.216338741751187058
0.340000000000000191,-18.085064464242293525
0.341000000000000192,-17.952469987776815685
0.342000000000000193,-17.818535804858118610
0.343000000000000194,-17.683247847529141694
0.344000000000000195,-17.546597322222588389
0.345000000000000195,-17.408580538789134806
0.346000000000000196,-17.269198734489329183
0.347000000000000197,-17.128457893700794301
0.348000000000000198,-16.986368564059617370
0.349000000000000199,-16.842945669720240431
0.350000000000000200,-16.698208322385269753
0.351000000000000201,-16.552179630722594794
0.352000000000000202,-16.404886508754298546
0.353000000000000203,-16.256359483769013963
0.354000000000000203,-16.106632504276870321
0.355000000000000204,-15.955742748494552430
0.356000000000000205,-15.803730433816841838
0.357000000000000206,-15.650638627700516281
0.358000000000000207,-15.496513060356596370
0.359000000000000208,-15.341401939618469541
0.360000000000000209,-15.185355768324843240
0.361000000000000210,-15.028427164529613691
0.362000000000000210,-14.870670684824284891
0.363000000000000211,-14.712142651033190077
0.364000000000000212,-14.552900980517488705
0.365000000000000213,-14.393005020300060792
0.366000000000000214,-14.232515385201290670
0.367000000000000215,-14.071493800153813680
0.368000000000000216,-13.910002946843880167
0.369000000000000217,-13.748106314807154504
0.370000000000000218,-13.585868057088186234
0.371000000000000218,-13.423352850554882920
0.372000000000000219,-13.260625760942408746
0.373000000000000220,-13.097752112685132175
0.374000000000000221,-12.934797363579951579
0.375000000000000222,-12.771826984310356679
0.376000000000000223,-12.608906342846863069
0.377000000000000224,-12.446100593727397410
0.378000000000000225,-12.283474572209124531
0.379000000000000226,-12.121092693272327523
0.380000000000000226,-11.959018855447036245
0.381000000000000227,-11.797316349423166315
0.382000000000000228,-11.636047771396793138
0.383000000000000229,-11.475274941096587966
0.384000000000000230,-11.315058824427305595
0.385000000000000231,-11.155459460660591020
0.386000000000000232,-10.996535894096863828
0.387000000000000233,-10.838346110116731325
0.388000000000000234,-10.680946975535228205
0.389000000000000234,-10.524394183167888883
0.390000000000000235,-10.368742200513240803
0.391000000000000236,-10.214044222453399158
0.392000000000000237,-10.060352127870807237
0.393000000000000238,-9.907716440076997699
0.394000000000000239,-9.756186290946727624
0.395000000000000240,-9.605809388649237945
0.396000000000000241,-9.456631988866785576
0.397000000000000242,-9.308698869389520070
0.398000000000000242,-9.162053307975060790
0.399000000000000243,-9.016737063360565685
0.400000000000000244,-8.872790359314725706
0.401000000000000245,-8.730251871617596748
0.402000000000000246,-8.589158717856101077
0.403000000000000247,-8.449546449923527547
0.404000000000000248,-8.311449049112541232
0.405000000000000249,-8.174898923691669594
0.406000000000000250,-8.039926908856614318
0.407000000000000250,-7.906562268948954753
0.408000000000000251,-7.774832701836206006
0.409000000000000252,-7.644764345348893819
0.410000000000000253,-7.516381785671756965
0.411000000000000254,-7.389708067588381724
0.412000000000000255,-7.264764706480010048
0.413000000000000256,-7.141571701981748177
0.414000000000000257,-7.020147553201018908
0.415000000000000258,-6.900509275405657839
0.416000000000000258,-6.782672418090967881
0.417000000000000259,-6.666651084337435584
0.418000000000000260,-6.552457951373172662
0.419000000000000261,-6.440104292257191609
0.420000000000000262,-6.329599998602480682
0.421000000000000263,-6.220953604259704228
0.422000000000000264,-6.114172309885126388
0.423000000000000265,-6.009262008318503767
0.424000000000000266,-5.906227310699390998
0.425000000000000266,-5.805071573252350348
0.426000000000000267,-5.705796924674248594
0.427000000000000268,-5.608404294059040396
0.428000000000000269,-5.512893439297890552
0.429000000000000270,-5.419262975894769241
0.430000000000000271,-5.327510406140016030
0.431000000000000272,-5.237632148586635950
0.432000000000000273,-5.149623567776383304
0.433000000000000274,-5.063479004164887165
0.434000000000000274,-4.979191804197293791
0.435000000000000275,-4.896754350488023988
0.436000000000000276,-4.816158092060446094
0.437000000000000277,-4.737393574604150004
0.438000000000000278,-4.660450470709815107
0.439000000000000279,-4.585317610043438741
0.440000000000000280,-4.511983009423681246
0.441000000000000281,-4.440433902768047503
0.442000000000000282,-4.370656770875450015
0.443000000000000282,-4.302637371014422563
0.444000000000000283,-4.236360766288144397
0.445000000000000284,-4.171811354749054956
0.446000000000000285,-4.108972898237436944
0.447000000000000286,-4.047828550920200108
0.448000000000000287,-3.988360887507298891
0.449000000000000288,-3.930551931125092491
0.450000000000000289,-3.874383180827156714
0.451000000000000290,-3.819835638724587312
0.452000000000000290,-3.766889836719201412
0.453000000000000291,-3.715525862824340386
0.454000000000000292,-3.665723387059282690
0.455000000000000293,-3.617461686904402285
0.456000000000000294,-3.570719672305609382
0.457000000000000295,-3.525475910217432673
0.458000000000000296,-3.481708648675544193
0.459000000000000297,-3.439395840390262471
0.460000000000000298,-3.398515165853819298
0.461000000000000298,-3.359044055954944152
0.462000000000000299,-3.320959714095444326
0.463000000000000300,-3.284239137804120023
0.464000000000000301,-3.248859139844415544
0.465000000000000302,-3.214796368812820937
0.466000000000000303,-3.182027329225994627
0.467000000000000304,-3.150528401095051390
0.468000000000000305,-3.120275858986520046
0.469000000000000306,-3.091245890569739085
0.470000000000000306,-3.063414614651376322
0.471000000000000307,-3.036758098698208119
0.472000000000000308,-3.011252375849954088
0.473000000000000309,-2.986873461424320197
0.474000000000000310,-2.963597368917135100
0.475000000000000311,-2.941400125500764240
0.476000000000000312,-2.920257787024493012
0.477000000000000313,-2.900146452520951712
0.478000000000000314,-2.881042278223122199
0.479000000000000314,-2.862921491096737547
0.480000000000000315,-2.845760401893247860
0.481000000000000316,-2.829535417728918922
0.482000000000000317,-2.814223054195795992
0.483000000000000318,-2.799799947010635393
0.484000000000000319,-2.786242863208082898
0.485000000000000320,-2.773528711884720721
0.486000000000000321,-2.761634554500631999
0.487000000000000322,-2.750537614745488302
0.488000000000000322,-2.740215287976282887
0.489000000000000323,-2.730645150233928398
0.490000000000000324,-2.721804966846154805
0.491000000000000325,-2.713672700624279344
0.492000000000000326,-2.706226519661370844
0.493000000000000327,-2.699444804739648873
0.494000000000000328,-2.693306156354871028
0.495000000000000329,-2.687789401365569208
0.496000000000000330,-2.682873599275110710
0.497000000000000330,-2.678538048154447182
0.498000000000000331,-2.674762290213704929
0.499000000000000332,-2.671526117030437852
0.500000000000000333,-2.668809574442702282
0.501000000000000334,-2.666592967114946866
0.502000000000000335,-2.664856862784647173
0.503000000000000336,-2.663582096197778526
0.504000000000000337,-2.662749772741012766
0.505000000000000338,-2.662341271778582374
0.506000000000000338,-2.662338249701711401
0.507000000000000339,-2.662722642698412301
0.508000000000000340,-2.663476669251474860
0.509000000000000341,-2.664582832372262899
0.510000000000000342,-2.666023921578098310
0.511000000000000343,-2.667783014620678461
0.512000000000000344,-2.669843478973110695
0.513000000000000345,-2.672188973082916252
0.514000000000000346,-2.674803447398363510
0.515000000000000346,-2.677671145175363421
0.516000000000000347,-2.680776603072031694
0.517000000000000348,-2.684104651538023578
0.518000000000000349,-2.687640415005522865
0.519000000000000350,-2.691369311888736515
0.520000000000000351,-2.695277054398710348
0.521000000000000352,-2.699349648179942829
0.522000000000000353,-2.703573391775450752
0.523000000000000353,-2.707934875926633289
0.524000000000000354,-2.712420982714214279
0.525000000000000355,-2.717018884546490654
0.526000000000000356,-2.721716043000910190
0.527000000000000357,-2.726500207524925390
0.528000000000000358,-2.731359414002034303
0.529000000000000359,-2.736281983188555422
0.530000000000000360,-2.741256519026947558
0.531000000000000361,-2.746271906840970889
0.532000000000000361,-2.751317311418156386
0.533000000000000362,-2.756382174984776334
0.534000000000000363,-2.761456215078488263
0.535000000000000364,-2.766529422323595000
0.536000000000000365,-2.771592058113875989
0.537000000000000366,-2.776634652207722542
0.538000000000000367,-2.781648000240264818
0.539000000000000368,-2.786623161156990935
0.540000000000000369,-2.791551454573354185
0.541000000000000369,-2.796424458064604046
0.542000000000000370,-2.801234004390125154
0.543000000000000371,-2.805972178656299665
0.544000000000000372,-2.810631315421943555
0.545000000000000373,-2.815203995750124033
0.546000000000000374,-2.819683044210187450
0.547000000000000375,-2.824061525833585939
0.548000000000000376,-2.828332743027135887
0.549000000000000377,-2.832490232447066880
0.550000000000000377,-2.836527761837281503
0.551000000000000378,-2.840439326835034528
0.552000000000000379,-2.844219147747183651
0.553000000000000380,-2.847861666300050665
0.554000000000000381,-2.851361542365867585
0.555000000000000382,-2.854713650668637026
0.556000000000000383,-2.857913077472186814
0.557000000000000384,-2.860955117253072721
0.558000000000000385,-2.863835269360934799
0.559000000000000385,-2.866549234668783086
0.560000000000000386,-2.869092912215592150
0.561000000000000387,-2.871462395843593640
0.562000000000000388,-2.873653970832445559
0.563000000000000389,-2.875664110532425433
0.564000000000000390,-2.877489472998784770
0.565000000000000391,-2.879126897629190385
0.566000000000000392,-2.880573401806223899
0.567000000000000393,-2.881826177546751744
0.568000000000000393,-2.882882588159935811
0.569000000000000394,-2.883740164915617132
0.570000000000000395,-2.884396603724661112
0.571000000000000396,-2.884849761832834147
0.572000000000000397,-2.885097654529720224
0.573000000000000398,-2.885138451874092347
0.574000000000000399,-2.884970475437071080
0.575000000000000400,-2.884592195064461961
0.576000000000000401,-2.884002225659378915
0.577000000000000401,-2.883199323986448626
0.578000000000000402,-2.882182385498667010
0.579000000000000403,-2.880950441187972277
0.580000000000000404,-2.879502654460552868
0.581000000000000405,-2.877838318037868603
0.582000000000000406,-2.875956850884246130
0.583000000000000407,-2.873857795161952389
0.584000000000000408,-2.871540813214528587
0.585000000000000409,-2.869005684579124527
0.586000000000000409,-2.866252303028604231
0.587000000000000410,-2.863280673644028607
0.588000000000000411,-2.860090909918175495
0.589000000000000412,-2.856683230890666891
0.590000000000000413,-2.853057958315244669
0.591000000000000414,-2.849215513859717497
0.592000000000000415,-2.845156416338986194
0.593000000000000416,-2.840881278981637781
0.594000000000000417,-2.836390806730478165
0.595000000000000417,-2.831685793577301435
0.596000000000000418,-2.826767119932318106
0.597000000000000419,-2.821635750028440803
0.598000000000000420,-2.816292729360730274
0.599000000000000421,-2.810739182161210437
0.600000000000000422,-2.804976308909258975
0.601000000000000423,-2.799005383877728903
0.602000000000000424,-2.792827752714945433
0.603000000000000425,-2.786444830062713152
0.604000000000000425,-2.779858097210365475
0.605000000000000426,-2.773069099785002933
0.606000000000000427,-2.766079445477871435
0.607000000000000428,-2.758890801806977766
0.608000000000000429,-2.751504893915861505
