# CNT15-NH2-2_TYR
# h[nm],U(h)[kJ/mol]
0.200000000000000011,62.346637587384805101
0.201000000000000012,62.020615612092470315
0.202000000000000013,60.783561107164018722
0.203000000000000014,59.153659607453882074
0.204000000000000015,57.419113238426724877
0.205000000000000016,55.723581782430734677
0.206000000000000016,54.123982512212933216
0.207000000000000017,52.628676877690246272
0.208000000000000018,51.221928331746241270
0.209000000000000019,49.878908099678497479
0.210000000000000020,48.574326957670535876
0.211000000000000021,47.286882708913786644
0.212000000000000022,46.001059360362781092
0.213000000000000023,44.707336966830759195
0.214000000000000024,43.401526341130271192
0.215000000000000024,42.083696510851218875
0.216000000000000025,40.756989263928531386
0.217000000000000026,39.426494965518287472
0.218000000000000027,38.098282456842341048
0.219000000000000028,36.778622349958915549
0.220000000000000029,35.473409301288022277
0.221000000000000030,34.187768899080381857
0.222000000000000031,32.925824261234922119
0.223000000000000032,31.690593143645834573
0.224000000000000032,30.483986042277297912
0.225000000000000033,29.306877841347017011
0.226000000000000034,28.159228915825138984
0.227000000000000035,27.040235499470231417
0.228000000000000036,25.948493100088892760
0.229000000000000037,24.882160486669487653
0.230000000000000038,23.839115122729317875
0.231000000000000039,22.817093799153035150
0.232000000000000040,21.813814609031716429
0.233000000000000040,20.827078324671813192
0.234000000000000041,19.854848723079449258
0.235000000000000042,18.895312512240984404
0.236000000000000043,17.946920292017267684
0.237000000000000044,17.008410495575713384
0.238000000000000045,16.078818551744603838
0.239000000000000046,15.157473632219112147
0.240000000000000047,14.243985341099525854
0.241000000000000048,13.338222602751532264
0.242000000000000048,12.440286836589478980
0.243000000000000049,11.550481297875446529
0.244000000000000050,10.669278230956555475
0.245000000000000051,9.797285240248402971
0.246000000000000052,8.935212045834449057
0.247000000000000053,8.083838562848821852
0.248000000000000054,7.243985032414030911
0.249000000000000055,6.416484740351324767
0.250000000000000056,5.602159690104364209
0.251000000000000056,4.801799449005857312
0.252000000000000057,4.016143261926329089
0.253000000000000058,3.245865422547255186
0.254000000000000059,2.491563808594480456
0.255000000000000060,1.753751421651347897
0.256000000000000061,1.032850722765762841
0.257000000000000062,0.329190520031343137
0.258000000000000063,-0.356994858273766646
0.259000000000000064,-1.025564383429180770
0.260000000000000064,-1.676467420538769959
0.261000000000000065,-2.309739374970670056
0.262000000000000066,-2.925496158902153532
0.263000000000000067,-3.523927731767479088
0.264000000000000068,-4.105290951017514622
0.265000000000000069,-4.669901949954367026
0.266000000000000070,-5.218128238356084303
0.267000000000000071,-5.750380699876871837
0.268000000000000071,-6.267105638386913036
0.269000000000000072,-6.768777003985039009
0.270000000000000073,-7.255888908754248412
0.271000000000000074,-7.728948522724296666
0.272000000000000075,-8.188469422170522094
0.273000000000000076,-8.634965445457744693
0.274000000000000077,-9.068945096224188873
0.275000000000000078,-9.490906519833949062
0.276000000000000079,-9.901333066712181719
0.277000000000000079,-10.300689445388938381
0.278000000000000080,-10.689418458761137387
0.279000000000000081,-11.067938309171097444
0.280000000000000082,-11.436640451306734789
0.281000000000000083,-11.795887966562190741
0.282000000000000084,-12.146014428256851403
0.283000000000000085,-12.487323223894362556
0.284000000000000086,-12.820087298348596505
0.285000000000000087,-13.144549280387238355
0.286000000000000087,-13.460921954190530059
0.287000000000000088,-13.769389037395763253
0.288000000000000089,-14.070106227609883831
0.289000000000000090,-14.363202480200081723
0.290000000000000091,-14.648781481416421002
0.291000000000000092,-14.926923282453904207
0.292000000000000093,-15.197686061856325423
0.293000000000000094,-15.461107985644835239
0.294000000000000095,-15.717209136668037317
0.295000000000000095,-15.965993486872122276
0.296000000000000096,-16.207450888437982428
0.297000000000000097,-16.441559061994201585
0.298000000000000098,-16.668285562358907015
0.299000000000000099,-16.887589704465977292
0.300000000000000100,-17.099424434269565154
0.301000000000000101,-17.303738131480180584
0.302000000000000102,-17.500476332949382652
0.303000000000000103,-17.689583367381462864
0.304000000000000103,-17.871003893797666962
0.305000000000000104,-18.044684337809854924
0.306000000000000105,-18.210574221270565687
0.307000000000000106,-18.368627382254629765
0.308000000000000107,-18.518803083594679748
0.309000000000000108,-18.661067009339593170
0.310000000000000109,-18.795392149535299353
0.311000000000000110,-18.921759574643289170
0.312000000000000111,-19.040159101720824708
0.313000000000000111,-19.150589855189657840
0.314000000000000112,-19.253060725626255589
0.315000000000000113,-19.347590730518749780
0.316000000000000114,-19.434209281362559096
0.317000000000000115,-19.512956361811617967
0.318000000000000116,-19.583882621873947016
0.319000000000000117,-19.647049393342769008
0.320000000000000118,-19.702528631794947955
0.321000000000000119,-19.750402790572778144
0.322000000000000119,-19.790764632197682005
0.323000000000000120,-19.823716982652221930
0.324000000000000121,-19.849372433913980984
0.325000000000000122,-19.867853000036262756
0.326000000000000123,-19.879289731951661935
0.327000000000000124,-19.883822296028544230
0.328000000000000125,-19.881598521242491273
0.329000000000000126,-19.872773919637502615
0.330000000000000127,-19.857511184549487382
0.331000000000000127,-19.835979670850313994
0.332000000000000128,-19.808354861246662892
0.333000000000000129,-19.774817822438034653
0.334000000000000130,-19.735554654703342692
0.335000000000000131,-19.690755938249502321
0.336000000000000132,-19.640616179418216802
0.337000000000000133,-19.585333259612269785
0.338000000000000134,-19.525107889570495701
0.339000000000000135,-19.460143071392479897
0.340000000000000135,-19.390643570492095193
0.341000000000000136,-19.316815399442397450
0.342000000000000137,-19.238865315466064487
0.343000000000000138,-19.157000333124187819
0.344000000000000139,-19.071427253563648208
0.345000000000000140,-18.982352211499666339
0.346000000000000141,-18.889980240934939104
0.347000000000000142,-18.794514860451425164
0.348000000000000143,-18.696157678754907749
0.349000000000000143,-18.595108021005337662
0.350000000000000144,-18.491562576329354073
0.351000000000000145,-18.385715066782765348
0.352000000000000146,-18.277755937912825601
0.353000000000000147,-18.167872070959838027
0.354000000000000148,-18.056246516637383337
0.355000000000000149,-17.943058250337664106
0.356000000000000150,-17.828481948524803613
0.357000000000000151,-17.712687786002906165
0.358000000000000151,-17.595841253677082960
0.359000000000000152,-17.478102996364970778
0.360000000000000153,-17.359628670161942665
0.361000000000000154,-17.240568818816036867
0.362000000000000155,-17.121068768527358372
0.363000000000000156,-17.001268540551620845
0.364000000000000157,-16.881302780957817333
0.365000000000000158,-16.761300706865810639
0.366000000000000159,-16.641386068469934401
0.367000000000000159,-16.521677126139884706
0.368000000000000160,-16.402286641879637585
0.369000000000000161,-16.283321884418018755
0.370000000000000162,-16.164884647201528622
0.371000000000000163,-16.047071278560427032
0.372000000000000164,-15.929972723321469630
0.373000000000000165,-15.813674575147473433
0.374000000000000166,-15.698257138891438700
0.375000000000000167,-15.583795502264070620
0.376000000000000167,-15.470359616125815450
0.377000000000000168,-15.358014382729013647
0.378000000000000169,-15.246819751251479147
0.379000000000000170,-15.136830819980460205
0.380000000000000171,-15.028097944523659990
0.381000000000000172,-14.920666851444286394
0.382000000000000173,-14.814578756736370480
0.383000000000000174,-14.709870488578426162
0.384000000000000175,-14.606574613824225395
0.385000000000000175,-14.504719567711628514
0.386000000000000176,-14.404329786292681348
0.387000000000000177,-14.305425841109974172
0.388000000000000178,-14.208024575667220546
0.389000000000000179,-14.112139243263820632
0.390000000000000180,-14.017779645785640952
0.391000000000000181,-13.924952273066278252
0.392000000000000182,-13.833660442454725370
0.393000000000000183,-13.743904438246811850
0.394000000000000183,-13.655681650658952009
0.395000000000000184,-13.568986714043294484
0.396000000000000185,-13.483811644063559143
0.397000000000000186,-13.400145973570548819
0.398000000000000187,-13.317976886935429803
0.399000000000000188,-13.237289352617466420
0.400000000000000189,-13.158066253760917874
0.401000000000000190,-13.080288516633109097
0.402000000000000191,-13.003935236732639069
0.403000000000000191,-12.928983802412579607
0.404000000000000192,-12.855410015879391139
0.405000000000000193,-12.783188211442723770
0.406000000000000194,-12.712291370905935750
0.407000000000000195,-12.642691236000539234
0.408000000000000196,-12.574358417780734598
0.409000000000000197,-12.507262502906668189
0.410000000000000198,-12.441372156756722589
0.411000000000000199,-12.376655223320158328
0.412000000000000199,-12.313078821832071696
0.413000000000000200,-12.250609440122527616
0.414000000000000201,-12.189213024660976004
0.415000000000000202,-12.128855067285901015
0.416000000000000203,-12.069500688617930351
0.417000000000000204,-12.011114718162243520
0.418000000000000205,-11.953661771113299750
0.419000000000000206,-11.897106321881675939
0.420000000000000207,-11.841412774368841099
0.421000000000000207,-11.786545529021646317
0.422000000000000208,-11.732469046703252857
0.423000000000000209,-11.679147909422445295
0.424000000000000210,-11.626546877967411930
0.425000000000000211,-11.574630946494147921
0.426000000000000212,-11.523365394123532113
0.427000000000000213,-11.472715833603952973
0.428000000000000214,-11.422648257099762503
0.429000000000000214,-11.373129079168140976
0.430000000000000215,-11.324125176989275232
0.431000000000000216,-11.275603927916993285
0.432000000000000217,-11.227533244418243186
0.433000000000000218,-11.179881606471750999
0.434000000000000219,-11.132618091496969015
0.435000000000000220,-11.085712401885679412
0.436000000000000221,-11.039134890209103546
0.437000000000000222,-10.992856582174013624
0.438000000000000222,-10.946849197401650855
0.439000000000000223,-10.901085168103396228
0.440000000000000224,-10.855537655726969604
0.441000000000000225,-10.810180565646930972
0.442000000000000226,-10.764988559972806570
0.443000000000000227,-10.719937068547583436
0.444000000000000228,-10.675002298208990936
0.445000000000000229,-10.630161240384898846
0.446000000000000230,-10.585391677093557661
0.447000000000000230,-10.540672185418461737
0.448000000000000231,-10.495982140526519899
0.449000000000000232,-10.451301717297061700
0.450000000000000233,-10.406611890628257200
0.451000000000000234,-10.361894434486007555
0.452000000000000235,-10.317131919759292558
0.453000000000000236,-10.272307710984399876
0.454000000000000237,-10.227405961999377126
0.455000000000000238,-10.182411610588161466
0.456000000000000238,-10.137310372172880335
0.457000000000000239,-10.092088732610903890
0.458000000000000240,-10.046733940152005715
0.459000000000000241,-10.001233996609245835
0.460000000000000242,-9.955577647795823992
0.461000000000000243,-9.909754373278451212
0.462000000000000244,-9.863754375496400328
0.463000000000000245,-9.817568568293506104
0.464000000000000246,-9.771188564909348173
0.465000000000000246,-9.724606665473803702
0.466000000000000247,-9.677815844047859883
0.467000000000000248,-9.630809735252032766
0.468000000000000249,-9.583582620522184570
0.469000000000000250,-9.536129414031025320
0.470000000000000251,-9.488445648312128000
0.471000000000000252,-9.440527459621717909
0.472000000000000253,-9.392371573072367141
0.473000000000000254,-9.343975287570788879
0.474000000000000254,-9.295336460591098415
0.475000000000000255,-9.246453492813042629
0.476000000000000256,-9.197325312653742202
0.477000000000000257,-9.147951360719956071
0.478000000000000258,-9.098331574206607542
0.479000000000000259,-9.048466371266176367
0.480000000000000260,-8.998356635372218193
0.481000000000000261,-8.948003699699075497
0.482000000000000262,-8.897409331538796096
0.483000000000000262,-8.846575716775015863
0.484000000000000263,-8.795505444432450304
0.485000000000000264,-8.744201491319754993
0.486000000000000265,-8.692667206782207501
0.487000000000000266,-8.640906297579830309
0.488000000000000267,-8.588922812905567028
0.489000000000000268,-8.536721129557161447
0.490000000000000269,-8.484305937275417264
0.491000000000000270,-8.431682224260772074
0.492000000000000270,-8.378855262879058685
0.493000000000000271,-8.325830595566753090
0.494000000000000272,-8.272614020945008306
0.495000000000000273,-8.219211580150988183
0.496000000000000274,-8.165629543394624434
0.497000000000000275,-8.111874396747641214
0.498000000000000276,-8.057952829171565412
0.499000000000000277,-8.003871719790449646
0.500000000000000222,-7.949638125413462042
0.501000000000000334,-7.895259268312069700
0.502000000000000224,-7.840742524255736257
0.503000000000000336,-7.786095410809569906
0.504000000000000226,-7.731325575897093572
0.505000000000000338,-7.676440786630237767
0.506000000000000227,-7.621448918408923134
0.507000000000000339,-7.566357944291394411
0.508000000000000229,-7.511175924636684265
0.509000000000000341,-7.455910997019614683
0.510000000000000231,-7.400571366418960295
0.511000000000000343,-7.345165295678297568
0.512000000000000233,-7.289701096239504352
0.513000000000000345,-7.234187119147759581
0.514000000000000234,-7.178631746327461371
0.515000000000000346,-7.123043382127110412
0.516000000000000236,-7.067430445132106165
0.517000000000000348,-7.011801360243092418
0.518000000000000238,-6.956164551018092723
0.519000000000000350,-6.900528432275723212
0.520000000000000240,-6.844901402957226821
0.521000000000000352,-6.789291839244315341
0.522000000000000242,-6.733708087930051711
0.523000000000000353,-6.678158460039471223
0.524000000000000243,-6.622651224696838312
0.525000000000000355,-6.567194603235959605
0.526000000000000245,-6.511796763550196765
0.527000000000000357,-6.456465814678193915
0.528000000000000247,-6.401209801621954298
0.529000000000000359,-6.346036700392962082
0.530000000000000249,-6.290954413282740632
0.531000000000000361,-6.235970764353488960
0.532000000000000250,-6.181093495144997618
0.533000000000000362,-6.126330260593337407
0.534000000000000252,-6.071688625157397823
0.535000000000000364,-6.017176059148731326
0.536000000000000254,-5.962799935260697737
0.537000000000000366,-5.908567525292154343
0.538000000000000256,-5.854485997061877889
0.539000000000000368,-5.800562411508738414
0.540000000000000258,-5.746803719973836877
0.541000000000000369,-5.693216761659639857
0.542000000000000259,-5.639808261262297506
0.543000000000000371,-5.586584826772237555
0.544000000000000261,-5.533552947439094538
0.545000000000000373,-5.480718991896311287
0.546000000000000263,-5.428089206441383041
0.547000000000000375,-5.375669713467026156
0.548000000000000265,-5.323466510039583710
0.549000000000000377,-5.271485466619770577
0.550000000000000266,-5.219732325922141314
0.551000000000000378,-5.168212701908677431
0.552000000000000268,-5.116932078912677540
0.553000000000000380,-5.065895810888655149
0.554000000000000270,-5.015109120784419616
0.555000000000000382,-4.964577100031108969
0.556000000000000272,-4.914304708147595235
0.557000000000000384,-4.864296772454938633
0.558000000000000274,-4.814557987897605251
0.559000000000000385,-4.765092916967139658
0.560000000000000275,-4.715905989725098557
0.561000000000000387,-4.667001503921200722
0.562000000000000277,-4.618383625203386522
0.563000000000000389,-4.570056387416110866
0.564000000000000279,-4.522023692983543341
0.565000000000000391,-4.474289313374132604
0.566000000000000281,-4.426856889643405069
0.567000000000000393,-4.379729933051510038
0.568000000000000282,-4.332911825752598922
0.569000000000000394,-4.286405821552569329
0.570000000000000284,-4.240215046732487281
0.571000000000000396,-4.194342500934334694
0.572000000000000286,-4.148791058106495733
0.573000000000000398,-4.103563467505766837
0.574000000000000288,-4.058662354753428403
0.575000000000000400,-4.014090222942398256
0.576000000000000290,-3.969849453792984040
0.577000000000000401,-3.925942308854454499
0.578000000000000291,-3.882370930750104865
0.579000000000000403,-3.839137344463134038
0.580000000000000293,-3.796243458661149539
0.581000000000000405,-3.753691067056694752
0.582000000000000295,-3.711481849801852029
0.583000000000000407,-3.669617374914351249
0.584000000000000297,-3.628099099733339106
0.585000000000000409,-3.586928372402468312
0.586000000000000298,-3.546106433378530376
0.587000000000000410,-3.505634416963345323
0.588000000000000300,-3.465513352857359397
0.589000000000000412,-3.425744167732716505
0.590000000000000302,-3.386327686824354366
0.591000000000000414,-3.347264635537123389
0.592000000000000304,-3.308555641067416619
0.593000000000000416,-3.270201234037521054
0.594000000000000306,-3.232201850141307453
0.595000000000000417,-3.194557831799523573
0.596000000000000307,-3.157269429823408302
0.597000000000000419,-3.120336805085039522
0.598000000000000309,-3.083760030193209989
0.599000000000000421,-3.047539091173322667
0.600000000000000311,-3.011673889150245476
0.601000000000000423,-2.976164242032647955
0.602000000000000313,-2.941009886197946788
0.603000000000000425,-2.906210478176344481
0.604000000000000314,-2.871765596333311521
0.605000000000000426,-2.837674742549002094
0.606000000000000316,-2.803937343894033596
0.607000000000000428,-2.770552754300279474
0.608000000000000318,-2.737520256226101623
0.609000000000000430,-2.704839062314805087
0.610000000000000320,-2.672508317045796833
0.611000000000000432,-2.640527098377319692
0.612000000000000322,-2.608894419380299201
0.613000000000000433,-2.577609229862293905
0.614000000000000323,-2.546670417981068635
0.615000000000000435,-2.516076811846962080
0.616000000000000325,-2.485827181113543283
0.617000000000000437,-2.455920238555839408
0.618000000000000327,-2.426354641635696918
0.619000000000000439,-2.397128994053576712
0.620000000000000329,-2.368241847286450596
0.621000000000000441,-2.339691702111170279
0.622000000000000330,-2.311477010112968244
0.623000000000000442,-2.283596175178559839
0.624000000000000332,-2.256047554973573455
0.625000000000000444,-2.228829462403805195
0.626000000000000334,-2.201940167060076892
0.627000000000000446,-2.175377896646252474
0.628000000000000336,-2.149140838390224850
0.629000000000000448,-2.123227140437495386
0.630000000000000338,-2.097634913227211406
0.631000000000000449,-2.072362230850254505
0.632000000000000339,-2.047407132389380102
0.633000000000000451,-2.022767623241001456
0.634000000000000341,-1.998441676418639457
0.635000000000000453,-1.974427233837700246
0.636000000000000343,-1.950722207581604195
0.637000000000000455,-1.927324481149016666
0.638000000000000345,-1.904231910682197881
0.639000000000000457,-1.881442326176228530
0.640000000000000346,-1.858953532669236797
0.641000000000000458,-1.836763311413357913
0.642000000000000348,-1.814869421026591878
0.643000000000000460,-1.793269598625312877
0.644000000000000350,-1.771961560937652225
0.645000000000000462,-1.750943005397507024
0.646000000000000352,-1.730211611219418355
0.647000000000000464,-1.709765040454102714
0.648000000000000353,-1.689600939024938686
0.649000000000000465,-1.669716937745142404
0.650000000000000355,-1.650110653316007703
0.651000000000000467,-1.630779689305978053
0.652000000000000357,-1.611721637110865357
0.653000000000000469,-1.592934076895105466
0.654000000000000359,-1.574414578514308882
0.655000000000000471,-1.556160702419030262
0.656000000000000361,-1.538170000540063809
0.657000000000000473,-1.520440017155150869
0.658000000000000362,-1.502968289737446561
0.659000000000000474,-1.485752349785679716
