# tri-graphene_HMA
# h[nm],U(h)[kJ/mol]
0.149999999999999994,107.977940520541693559
0.150999999999999995,104.545231194161303279
0.151999999999999996,102.011085353632566353
0.152999999999999997,99.736844545346613700
0.153999999999999998,97.465888907660456653
0.154999999999999999,95.131891121440617098
0.156000000000000000,92.750787376050993771
0.157000000000000001,90.363693592400096577
0.158000000000000002,88.009777355772371266
0.159000000000000002,85.715913481920125605
0.160000000000000003,83.495071281079603409
0.161000000000000004,81.348682393886150521
0.162000000000000005,79.270324200928968139
0.163000000000000006,77.249338817351571151
0.164000000000000007,75.273772185564297388
0.165000000000000008,73.332450377871523983
0.166000000000000009,71.416236252246335425
0.167000000000000010,69.518611213616708255
0.168000000000000010,67.635756935204454976
0.169000000000000011,65.766303827279131156
0.170000000000000012,63.910887192586720573
0.171000000000000013,62.071620334741922420
0.172000000000000014,60.251562960999464735
0.173000000000000015,58.454236269403736515
0.174000000000000016,56.683214350271590831
0.175000000000000017,54.941805040794534420
0.176000000000000018,53.232821634747324424
0.177000000000000018,51.558439096734090867
0.178000000000000019,49.920123833716374406
0.179000000000000020,48.318623857152672940
0.180000000000000021,46.754005650186044818
0.181000000000000022,45.225724679181126930
0.182000000000000023,43.732717819572748397
0.183000000000000024,42.273507671852868839
0.184000000000000025,40.846310585545502647
0.185000000000000026,39.449142022829811083
0.186000000000000026,38.079914573402568578
0.187000000000000027,36.736525417128333970
0.188000000000000028,35.416931292558352595
0.189000000000000029,34.119210062013841878
0.190000000000000030,32.841608777436242406
0.191000000000000031,31.582578764885504086
0.192000000000000032,30.340798683819286907
0.193000000000000033,29.115186806524626206
0.194000000000000034,27.904903929590837208
0.195000000000000034,26.709348397861624846
0.196000000000000035,25.528144714294903395
0.197000000000000036,24.361127146209689442
0.198000000000000037,23.208319636221240501
0.199000000000000038,22.069913198618330341
0.200000000000000039,20.946241840223400743
0.201000000000000040,19.837757897700129206
0.202000000000000041,18.745007537540260500
0.203000000000000042,17.668607025484806883
0.204000000000000042,16.609220242322024319
0.205000000000000043,15.567537805048607069
0.206000000000000044,14.544258047483861418
0.207000000000000045,13.540070023042037661
0.208000000000000046,12.555638614363470396
0.209000000000000047,11.591591769333904338
0.210000000000000048,10.648509829843806784
0.211000000000000049,9.726916877432753239
0.212000000000000050,8.827273987594658422
0.213000000000000050,7.949974260826545347
0.214000000000000051,7.095339482319322322
0.215000000000000052,6.263618252403697184
0.216000000000000053,5.454985425426908563
0.217000000000000054,4.669542694682958128
0.218000000000000055,3.907320164478926383
0.219000000000000056,3.168278756619231640
0.220000000000000057,2.452313306843915797
0.221000000000000058,1.759256216489018865
0.222000000000000058,1.088881535336053918
0.223000000000000059,0.440909362877060951
0.224000000000000060,-0.184989533310611881
0.225000000000000061,-0.789188971984148280
0.226000000000000062,-1.372102564239038758
0.227000000000000063,-1.934178939226894656
0.228000000000000064,-2.475897047637274362
0.229000000000000065,-2.997761591582520424
0.230000000000000066,-3.500298620834422003
0.231000000000000066,-3.984051327427087674
0.232000000000000067,-4.449576063465910281
0.233000000000000068,-4.897438600563583933
0.234000000000000069,-5.328210643636857924
0.235000000000000070,-5.742466606812735463
0.236000000000000071,-6.140780654869891997
0.237000000000000072,-6.523724009938999480
0.238000000000000073,-6.891862520055560992
0.239000000000000073,-7.245754483553025871
0.240000000000000074,-7.585948721156638541
0.241000000000000075,-7.912982885937495325
0.242000000000000076,-8.227381999968923054
0.243000000000000077,-8.529657205548321741
0.244000000000000078,-8.820304718164527102
0.245000000000000079,-9.099804967965701152
0.246000000000000080,-9.368621916278208062
0.247000000000000081,-9.627202533712068799
0.248000000000000081,-9.875976426530007402
0.249000000000000082,-10.115355598230529210
0.250000000000000111,-10.345734333674624139
0.251000000000000112,-10.567489193549395310
0.252000000000000113,-10.780979107491898361
0.253000000000000114,-10.986545554772918720
0.254000000000000115,-11.184512822053601866
0.255000000000000115,-11.375188328359666201
0.256000000000000116,-11.558863008062237654
0.257000000000000117,-11.735811743299452203
0.258000000000000118,-11.906293837911404054
0.259000000000000119,-12.070553525588282540
0.260000000000000120,-12.228820505540852537
0.261000000000000121,-12.381310499590066243
0.262000000000000122,-12.528225825136640736
0.263000000000000123,-12.669755979007991442
0.264000000000000123,-12.806078227688866278
0.265000000000000124,-12.937358199921240143
0.266000000000000125,-13.063750478108872244
0.267000000000000126,-13.185399185381637466
0.268000000000000127,-13.302438565565452677
0.269000000000000128,-13.414993553664729120
0.270000000000000129,-13.523180334797700652
0.271000000000000130,-13.627106889831248182
0.272000000000000131,-13.726873526241718082
0.273000000000000131,-13.822573392983553475
0.274000000000000132,-13.914292978379179999
0.275000000000000133,-14.002112590253052105
0.276000000000000134,-14.086106817721480766
0.277000000000000135,-14.166344974218432640
0.278000000000000136,-14.242891521488783013
0.279000000000000137,-14.315806474414170424
0.280000000000000138,-14.385145786654792488
0.281000000000000139,-14.450961717194513056
0.282000000000000139,-14.513303177967156188
0.283000000000000140,-14.572216062820359639
0.284000000000000141,-14.627743558140789304
0.285000000000000142,-14.679926435521903016
0.286000000000000143,-14.728803326903726401
0.287000000000000144,-14.774410982653808588
0.288000000000000145,-14.816784513091686648
0.289000000000000146,-14.855957613984362098
0.290000000000000147,-14.891962776560831117
0.291000000000000147,-14.924831482607910260
0.292000000000000148,-14.954594385219959207
0.293000000000000149,-14.981281475780383161
0.294000000000000150,-15.004922237755275560
0.295000000000000151,-15.025545787878385795
0.296000000000000152,-15.043181005302546538
0.297000000000000153,-15.057856649286748052
0.298000000000000154,-15.069601465979454602
0.299000000000000155,-15.078444284848766088
0.300000000000000155,-15.084414105298611375
0.301000000000000156,-15.087540173997130211
0.302000000000000157,-15.087852053429880783
0.303000000000000158,-15.085379682175879879
0.304000000000000159,-15.080153427389200615
0.305000000000000160,-15.072204129953286511
0.306000000000000161,-15.061563142759116118
0.307000000000000162,-15.048262362542335069
0.308000000000000163,-15.032334255697771042
0.309000000000000163,-15.013811878473919847
0.310000000000000164,-14.992728891933513324
0.311000000000000165,-14.969119572050056277
0.312000000000000166,-14.943018815294715651
0.313000000000000167,-14.914462140051957917
0.314000000000000168,-14.883485684187016673
0.315000000000000169,-14.850126199073438116
0.316000000000000170,-14.814421040374075034
0.317000000000000171,-14.776408155854664273
0.318000000000000171,-14.736126070495142670
0.319000000000000172,-14.693613869150530249
0.320000000000000173,-14.648911176999892092
0.321000000000000174,-14.602058138009358146
0.322000000000000175,-14.553095391622875354
0.323000000000000176,-14.502064047882678111
0.324000000000000177,-14.449005661169852743
0.325000000000000178,-14.393962202744507550
0.326000000000000179,-14.336976032254776570
0.327000000000000179,-14.278089868373211146
0.328000000000000180,-14.217346758709780374
0.329000000000000181,-14.154790049141443120
0.330000000000000182,-14.090463352688839649
0.331000000000000183,-14.024410518062717657
0.332000000000000184,-13.956675597993930538
0.333000000000000185,-13.887302817453454296
0.334000000000000186,-13.816336541861229392
0.335000000000000187,-13.743821245375354323
0.336000000000000187,-13.669801479346736173
0.337000000000000188,-13.594321841017318775
0.338000000000000189,-13.517426942534324752
0.339000000000000190,-13.439161380346785535
0.340000000000000191,-13.359569705044965104
0.341000000000000192,-13.278696391698369794
0.342000000000000193,-13.196585810742561762
0.343000000000000194,-13.113282199460519095
0.344000000000000195,-13.028829634099505341
0.345000000000000195,-12.943272002660460629
0.346000000000000196,-12.856652978392450137
0.347000000000000197,-12.769015994021208016
0.348000000000000198,-12.680404216737105827
0.349000000000000199,-12.590860523964202855
0.350000000000000200,-12.500427479929346219
0.351000000000000201,-12.409147313046631211
0.352000000000000202,-12.317061894130169719
0.353000000000000203,-12.224212715445199606
0.354000000000000203,-12.130640870605112980
0.355000000000000204,-12.036387035319547678
0.356000000000000205,-11.941491448996668367
0.357000000000000206,-11.845993897200560951
0.358000000000000207,-11.749933694962667374
0.359000000000000208,-11.653349670944690430
0.360000000000000209,-11.556280152448442422
0.361000000000000210,-11.458762951266749042
0.362000000000000210,-11.360835350368017060
0.363000000000000211,-11.262534091405802528
0.364000000000000212,-11.163895363043582876
0.365000000000000213,-11.064954790083575631
0.366000000000000214,-10.965747423387808723
0.367000000000000215,-10.866307730578380841
0.368000000000000216,-10.766669587503276517
0.369000000000000217,-10.666866270453137844
0.370000000000000218,-10.566930449113963064
0.371000000000000218,-10.466894180239794565
0.372000000000000219,-10.366788902029206554
0.373000000000000220,-10.266645429188830718
0.374000000000000221,-10.166493948666717628
0.375000000000000222,-10.066364016037983475
0.376000000000000223,-9.966284552525062068
0.377000000000000224,-9.866283842634405943
0.378000000000000225,-9.766389532391524853
0.379000000000000226,-9.666628628155859104
0.380000000000000226,-9.567027495997280084
0.381000000000000227,-9.467611861615356617
0.382000000000000228,-9.368406810783241667
0.383000000000000229,-9.269436790297405082
0.384000000000000230,-9.170725609414798640
0.385000000000000231,-9.072296441759261754
0.386000000000000232,-8.974171827678642188
0.387000000000000233,-8.876373677034766985
0.388000000000000234,-8.778923272408066580
0.389000000000000234,-8.681841272699333700
0.390000000000000235,-8.585147717110857002
0.391000000000000236,-8.488862029489713024
0.392000000000000237,-8.393003023016067488
0.393000000000000238,-8.297588905219736688
0.394000000000000239,-8.202637283308359173
0.395000000000000240,-8.108165169790995108
0.396000000000000241,-8.014188988381228285
0.397000000000000242,-7.920724580163941653
0.398000000000000242,-7.827787210010730412
0.399000000000000243,-7.735391573228691975
0.400000000000000244,-7.643551802428014241
0.401000000000000245,-7.552281474594171762
0.402000000000000246,-7.461593618350603307
0.403000000000000247,-7.371500721398250633
0.404000000000000248,-7.282014738118810726
0.405000000000000249,-7.193147097328711936
0.406000000000000250,-7.104908710171249808
0.407000000000000250,-7.017309978134774084
0.408000000000000251,-6.930360801184957786
0.409000000000000252,-6.844070585999851630
0.410000000000000253,-6.758448254296442137
0.411000000000000254,-6.673502251238069505
0.412000000000000255,-6.589240553912243392
0.413000000000000256,-6.505670679868851281
0.414000000000000257,-6.422799695708974355
0.415000000000000258,-6.340634225715073846
0.416000000000000258,-6.259180460513410260
0.417000000000000259,-6.178444165760088147
0.418000000000000260,-6.098430690842407742
0.419000000000000261,-6.019144977587375323
0.420000000000000262,-5.940591568969835201
0.421000000000000263,-5.862774617812779532
0.422000000000000264,-5.785697895472728725
0.423000000000000265,-5.709364800503463400
0.424000000000000266,-5.633778367291727207
0.425000000000000266,-5.558941274658593557
0.426000000000000267,-5.484855854420734644
0.427000000000000268,-5.411524099905962615
0.428000000000000269,-5.338947674417719114
0.429000000000000270,-5.267127919643534995
0.430000000000000271,-5.196065864002578749
0.431000000000000272,-5.125762230927863428
0.432000000000000273,-5.056217447078775962
0.433000000000000274,-4.987431650479987155
0.434000000000000274,-4.919404698582811264
0.435000000000000275,-4.852136176245614330
0.436000000000000276,-4.785625403629852670
0.437000000000000277,-4.719871444008600925
0.438000000000000278,-4.654873111484731041
0.439000000000000279,-4.590628978616035027
0.440000000000000280,-4.527137383944731752
0.441000000000000281,-4.464396439429097363
0.442000000000000282,-4.402404037775125900
0.443000000000000282,-4.341157859666187058
0.444000000000000283,-4.280655380889013983
0.445000000000000284,-4.220893879354386868
0.446000000000000285,-4.161870442010963345
0.447000000000000286,-4.103581971651243165
0.448000000000000287,-4.046025193608193682
0.449000000000000288,-3.989196662341872646
0.450000000000000289,-3.933092767914949661
0.451000000000000290,-3.877709742356562739
0.452000000000000290,-3.823043665913887335
0.453000000000000291,-3.769090473190916502
0.454000000000000292,-3.715845959174179036
0.455000000000000293,-3.663305785145089200
0.456000000000000294,-3.611465484478882271
0.457000000000000295,-3.560320468330056887
0.458000000000000296,-3.509866031204418313
0.459000000000000297,-3.460097356417951797
0.460000000000000298,-3.411009521442687653
0.461000000000000298,-3.362597503140003941
0.462000000000000299,-3.314856182881758428
0.463000000000000300,-3.267780351559725460
0.464000000000000301,-3.221364714483980318
0.465000000000000302,-3.175603896170873686
0.466000000000000303,-3.130492445021244130
0.467000000000000304,-3.086024837889708827
0.468000000000000305,-3.042195484545890505
0.469000000000000306,-2.998998732028373304
0.470000000000000306,-2.956428868892469364
0.471000000000000307,-2.914480129352621240
0.472000000000000308,-2.873146697320657417
0.473000000000000309,-2.832422710340810390
0.474000000000000310,-2.792302263422742570
0.475000000000000311,-2.752779412773629808
0.476000000000000312,-2.713848179430640606
0.477000000000000313,-2.675502552794816857
0.478000000000000314,-2.637736494067783877
0.479000000000000314,-2.600543939592517173
0.480000000000000315,-2.563918804099379223
0.481000000000000316,-2.527854983858886406
0.482000000000000317,-2.492346359742411810
0.483000000000000318,-2.457386800192276066
0.484000000000000319,-2.422970164102519419
0.485000000000000320,-2.389090303611832056
0.486000000000000321,-2.355741066809940332
0.487000000000000322,-2.322916300358926822
0.488000000000000322,-2.290609852030839111
0.489000000000000323,-2.258815573163076795
0.490000000000000324,-2.227527321032924945
0.491000000000000325,-2.196738961152695513
0.492000000000000326,-2.166444369486854704
0.493000000000000327,-2.136637434592660867
0.494000000000000328,-2.107312059685653161
0.495000000000000329,-2.078462164631468934
0.496000000000000330,-2.050081687865400681
0.497000000000000330,-2.022164588241124328
0.498000000000000331,-1.994704846809979726
0.499000000000000332,-1.967696468532289966
0.500000000000000333,-1.941133483922039549
0.501000000000000334,-1.915009950626353596
0.502000000000000335,-1.889319954941150126
0.503000000000000336,-1.864057613264369140
0.504000000000000337,-1.839217073488095933
0.505000000000000338,-1.814792516330981043
0.506000000000000338,-1.790778156612290672
0.507000000000000339,-1.767168244468894756
0.508000000000000340,-1.743957066516535814
0.509000000000000341,-1.721138946956706661
0.510000000000000342,-1.698708248630371953
0.511000000000000343,-1.676659374019865423
0.512000000000000344,-1.654986766200192694
0.513000000000000345,-1.633684909741007107
0.514000000000000346,-1.612748331560500903
0.515000000000000346,-1.592171601732392805
0.516000000000000347,-1.571949334247231933
0.517000000000000348,-1.552076187729266588
0.518000000000000349,-1.532546866109900430
0.519000000000000350,-1.513356119259040788
0.520000000000000351,-1.494498743575394695
0.521000000000000352,-1.475969582536836855
0.522000000000000353,-1.457763527211977328
0.523000000000000353,-1.439875516733966743
0.524000000000000354,-1.422300538737680142
0.525000000000000355,-1.405033629761241354
0.526000000000000356,-1.388069875612975457
0.527000000000000357,-1.371404411704816528
0.528000000000000358,-1.355032423353082383
0.529000000000000359,-1.338949146047709871
0.530000000000000360,-1.323149865690816274
0.531000000000000361,-1.307629918805590652
0.532000000000000361,-1.292384692716394445
0.533000000000000362,-1.277409625701036777
0.534000000000000363,-1.262700207116056017
0.535000000000000364,-1.248251977495916654
0.536000000000000365,-1.234060528626969910
0.537000000000000366,-1.220121503597028756
0.538000000000000367,-1.206430596821331580
0.539000000000000368,-1.192983554045797145
0.540000000000000369,-1.179776172328226291
0.541000000000000369,-1.166804299998357441
0.542000000000000370,-1.154063836597438275
0.543000000000000371,-1.141550732798074730
0.544000000000000372,-1.129260990305118950
0.545000000000000373,-1.117190661738248769
0.546000000000000374,-1.105335850496958372
0.547000000000000375,-1.093692710608626051
0.548000000000000376,-1.082257446560346281
0.549000000000000377,-1.071026313115127859
0.550000000000000377,-1.059995615113095146
0.551000000000000378,-1.049161707258356335
0.552000000000000379,-1.038520993892061428
0.553000000000000380,-1.028069928752306073
0.554000000000000381,-1.017805014721390844
0.555000000000000382,-1.007722803561059255
0.556000000000000383,-0.997819895636171239
0.557000000000000384,-0.988092939627436273
0.558000000000000385,-0.978538632233637129
0.559000000000000385,-0.969153717863918240
0.560000000000000386,-0.959934988320551463
0.561000000000000387,-0.950879282472732235
0.562000000000000388,-0.941983485921820796
0.563000000000000389,-0.933244530658479676
0.564000000000000390,-0.924659394712175287
0.565000000000000391,-0.916225101793446961
0.566000000000000392,-0.907938720929352350
0.567000000000000393,-0.899797366092526807
0.568000000000000393,-0.891798195824194728
0.569000000000000394,-0.883938412851571931
0.570000000000000395,-0.876215263699980484
0.571000000000000396,-0.868626038300049919
0.572000000000000397,-0.861168069590384944
0.573000000000000398,-0.853838733115964033
0.574000000000000399,-0.846635446622687526
0.575000000000000400,-0.839555669648304637
0.576000000000000401,-0.832596903110086162
0.577000000000000401,-0.825756688889529578
0.578000000000000402,-0.819032609414369062
0.579000000000000403,-0.812422287238161567
0.580000000000000404,-0.805923384617769911
0.581000000000000405,-0.799533603088950273
0.582000000000000406,-0.793250683040313875
0.583000000000000407,-0.787072403285928091
0.584000000000000408,-0.780996580636763582
0.585000000000000409,-0.775021069471223512
0.586000000000000409,-0.769143761305001061
0.587000000000000410,-0.763362584360436802
0.588000000000000411,-0.757675503135612272
0.589000000000000412,-0.752080517973366947
0.590000000000000413,-0.746575664630422464
0.591000000000000414,-0.741159013846809933
0.592000000000000415,-0.735828670915777305
0.593000000000000416,-0.730582775254329575
0.594000000000000417,-0.725419499974582660
0.595000000000000417,-0.720337051456099275
0.596000000000000418,-0.715333668919307053
0.597000000000000419,-0.710407624000221727
0.598000000000000420,-0.705557220326539225
0.599000000000000421,-0.700780793095277521
0.600000000000000422,-0.696076708652083709
0.601000000000000423,-0.691443364072321542
0.602000000000000424,-0.686879186744062453
0.603000000000000425,-0.682382633953103168
0.604000000000000425,-0.677952192470090420
0.605000000000000426,-0.673586378139872544
0.606000000000000427,-0.669283735473205521
0.607000000000000428,-0.665042837240803264
0.608000000000000429,-0.660862284069990702
0.609000000000000430,-0.656740704043835000
0.610000000000000431,-0.652676752303044339
