# tri-graphene_NC4-AC
# h[nm],U(h)[kJ/mol]
0.149999999999999994,142.114344156395588925
0.150999999999999995,137.545170505631972446
0.151999999999999996,135.223496810701590221
0.152999999999999997,133.350867488383016735
0.153999999999999998,131.303238746069666831
0.154999999999999999,128.989898312561109606
0.156000000000000000,126.515484290382147492
0.157000000000000001,124.017298227192299009
0.158000000000000002,121.599309117198615127
0.159000000000000002,119.315826583474546396
0.160000000000000003,117.177741443845931713
0.161000000000000004,115.166523025624343290
0.162000000000000005,113.248532654518129448
0.163000000000000006,111.386462674261153438
0.164000000000000007,109.547024732460982932
0.165000000000000008,107.705158593696523894
0.166000000000000009,105.845504004417392707
0.167000000000000010,103.961979704135345060
0.168000000000000010,102.056231897988936907
0.169000000000000011,100.135558402212069495
0.170000000000000012,98.210744524012810075
0.171000000000000013,96.294092873124498055
0.172000000000000014,94.397804304972424916
0.173000000000000015,92.532773660172409791
0.174000000000000016,90.707799329571528801
0.175000000000000017,88.929165125292982452
0.176000000000000018,87.200531083139168231
0.177000000000000018,85.523061578501966551
0.178000000000000019,83.895720150957657779
0.179000000000000020,82.315667206677559875
0.180000000000000021,80.778706647090160686
0.181000000000000022,79.279738543426304886
0.182000000000000023,77.813185941058151229
0.183000000000000024,76.373373920122816116
0.184000000000000025,74.954847709549255796
0.185000000000000026,73.552623762403044338
0.186000000000000026,72.162373242857341893
0.187000000000000027,70.780541455000829387
0.188000000000000028,69.404409532741141220
0.189000000000000029,68.032106410402491292
0.190000000000000030,66.662579913530720432
0.191000000000000031,65.295535947433805291
0.192000000000000032,63.931354396347401803
0.193000000000000033,62.570989633891770154
0.194000000000000034,61.215862614964954957
0.195000000000000034,59.867750474414194173
0.196000000000000035,58.528678479411802016
0.197000000000000036,57.200818130400648442
0.198000000000000037,55.886394222012448552
0.199000000000000038,54.587602788049181868
0.200000000000000039,53.306541079181123166
0.201000000000000040,52.045150064949140756
0.202000000000000041,50.805169412532748652
0.203000000000000042,49.588104468133927583
0.204000000000000042,48.395204443919020321
0.205000000000000043,47.227450783378372989
0.206000000000000044,46.085554528761782933
0.207000000000000045,44.969961433706416187
0.208000000000000046,43.880863540371159104
0.209000000000000047,42.818215962090917515
0.210000000000000048,41.781757669493089224
0.211000000000000049,40.771035161009294256
0.212000000000000050,39.785427999770874408
0.213000000000000050,38.824175311187204329
0.214000000000000051,37.886402453385471745
0.215000000000000052,36.971147191523030529
0.216000000000000053,36.077384823118208601
0.217000000000000054,35.204051812190037651
0.218000000000000055,34.350067593121082155
0.219000000000000056,33.514354299370786805
0.220000000000000057,32.695854256622261858
0.221000000000000058,31.893545154253228446
0.222000000000000058,31.106452873136436921
0.223000000000000059,30.333662001952074405
0.224000000000000060,29.574324118886874402
0.225000000000000061,28.827663951424096211
0.226000000000000062,28.092983554611681285
0.227000000000000063,27.369664668522045048
0.228000000000000064,26.657169429398130944
0.229000000000000065,25.955039617034582733
0.230000000000000066,25.262894624071233096
0.231000000000000066,24.580428331837985922
0.232000000000000067,23.907405072908453292
0.233000000000000068,23.243654853251943138
0.234000000000000069,22.589067997427601853
0.235000000000000070,21.943589369179925086
0.236000000000000071,21.307212307553296426
0.237000000000000072,20.679972405662098822
0.238000000000000073,20.061941245894701069
0.239000000000000073,19.453220191900975067
0.240000000000000074,18.853934324463942573
0.241000000000000075,18.264226595501583006
0.242000000000000076,17.684252262143274947
0.243000000000000077,17.114173651207796212
0.244000000000000078,16.554155293568555862
0.245000000000000079,16.004359457890593887
0.246000000000000080,15.464942104102807008
0.247000000000000081,14.936049268742801033
0.248000000000000081,14.417813886982250082
0.249000000000000082,13.910353049690794336
0.250000000000000111,13.413765688297246470
0.251000000000000112,12.928130675423835427
0.252000000000000113,12.453505325253576785
0.253000000000000114,11.989924274298646267
0.254000000000000115,11.537398720608964098
0.255000000000000115,11.095915997445549905
0.256000000000000116,10.665439455982889783
0.257000000000000117,10.245908630644057880
0.258000000000000118,9.837239660157525378
0.259000000000000119,9.439325937300733216
0.260000000000000120,9.052038960513280941
0.261000000000000121,8.675229361073943934
0.262000000000000122,8.308728080294525142
0.263000000000000123,7.952347672149352675
0.264000000000000123,7.605883707892064471
0.265000000000000124,7.269116260476968350
0.266000000000000125,6.941811447968026627
0.267000000000000126,6.623723016556067655
0.268000000000000127,6.314593945287783505
0.269000000000000128,6.014158056117145712
0.270000000000000129,5.722141614399670395
0.271000000000000130,5.438264906446194757
0.272000000000000131,5.162243782221212385
0.273000000000000131,4.893791152697888336
0.274000000000000132,4.632618432758741633
0.275000000000000133,4.378436921848157581
0.276000000000000134,4.130959115834819784
0.277000000000000135,3.889899944723859360
0.278000000000000136,3.654977931965311289
0.279000000000000137,3.425916272136872998
0.280000000000000138,3.202443824732841282
0.281000000000000139,2.984296022666750758
0.282000000000000139,2.771215694894876513
0.283000000000000140,2.562953803290979771
0.284000000000000141,2.359270094552877950
0.285000000000000142,2.159933668499828929
0.286000000000000143,1.964723464630000027
0.287000000000000144,1.773428669252545165
0.288000000000000145,1.585849045891065456
0.289000000000000146,1.401795191980837574
0.290000000000000147,1.221088725151029619
0.291000000000000147,1.043562402602841610
0.292000000000000148,0.869060177265177813
0.293000000000000149,0.697437194538076843
0.294000000000000150,0.528559733521538955
0.295000000000000151,0.362305096679061300
0.296000000000000152,0.198561451903735808
0.297000000000000153,0.037227630943678890
0.298000000000000154,-0.121787111894070724
0.299000000000000155,-0.278563376902857651
0.300000000000000155,-0.433171928222196634
0.301000000000000156,-0.585674031492351865
0.302000000000000157,-0.736121816354938563
0.303000000000000158,-0.884558660363729432
0.304000000000000159,-1.031019591008384806
0.305000000000000160,-1.175531702700170822
0.306000000000000161,-1.318114585722442778
0.307000000000000162,-1.458780764307128441
0.308000000000000163,-1.597536141160273093
0.309000000000000163,-1.734380445923842773
0.310000000000000164,-1.869307685225696902
0.311000000000000165,-2.002306592133906271
0.312000000000000166,-2.133361072994704788
0.313000000000000167,-2.262450649793880775
0.314000000000000168,-2.389550896338955788
0.315000000000000169,-2.514633866713345434
0.316000000000000170,-2.637668514603129122
0.317000000000000171,-2.758621102241492373
0.318000000000000171,-2.877455597855246960
0.319000000000000172,-2.994134060631785665
0.320000000000000173,-3.108617012352298037
0.321000000000000174,-3.220863794959206050
0.322000000000000175,-3.330832913441354126
0.323000000000000176,-3.438482363529781871
0.324000000000000177,-3.543769943800158195
0.325000000000000178,-3.646653551874470711
0.326000000000000179,-3.747091464505566627
0.327000000000000179,-3.845042601411905903
0.328000000000000180,-3.940466772808722595
0.329000000000000181,-4.033324910653893092
0.330000000000000182,-4.123579283693298514
0.331000000000000183,-4.211193696451772439
0.332000000000000184,-4.296133672370862300
0.333000000000000185,-4.378366621345209708
0.334000000000000186,-4.457861991954532144
0.335000000000000187,-4.534591408728627648
0.336000000000000187,-4.608528794818917085
0.337000000000000188,-4.679650480481114982
0.338000000000000189,-4.747935297801552323
0.339000000000000190,-4.813364662122827653
0.340000000000000191,-4.875922640644118289
0.341000000000000192,-4.935596008688266423
0.342000000000000193,-4.992374294140304869
0.343000000000000194,-5.046249810572636996
0.344000000000000195,-5.097217679578702310
0.345000000000000195,-5.145275842842353953
0.346000000000000196,-5.190425064471568817
0.347000000000000197,-5.232668924125659871
0.348000000000000198,-5.272013801462819060
0.349000000000000199,-5.308468852430910268
0.350000000000000200,-5.342045977918933097
0.351000000000000201,-5.372759785279247247
0.352000000000000202,-5.400627543222220162
0.353000000000000203,-5.425669130575199617
0.354000000000000203,-5.447906979386886839
0.355000000000000204,-5.467366012846190060
0.356000000000000205,-5.484073578472308697
0.357000000000000206,-5.498059377019306915
0.358000000000000207,-5.509355387524230707
0.359000000000000208,-5.517995788913861333
0.360000000000000209,-5.524016878569912414
0.361000000000000210,-5.527456988237455349
0.362000000000000210,-5.528356397645931786
0.363000000000000211,-5.526757246196469353
0.364000000000000212,-5.522703443053663896
0.365000000000000213,-5.516240575964133086
0.366000000000000214,-5.507415819108618216
0.367000000000000215,-5.496277840278706250
0.368000000000000216,-5.482876707654040338
0.369000000000000217,-5.467263796440262169
0.370000000000000218,-5.449491695613338571
0.371000000000000218,-5.429614115000690688
0.372000000000000219,-5.407685792915435385
0.373000000000000220,-5.383762404545694658
0.374000000000000221,-5.357900471287106114
0.375000000000000222,-5.330157271193121993
0.376000000000000223,-5.300590750704892606
0.377000000000000224,-5.269259437809426849
0.378000000000000225,-5.236222356762729291
0.379000000000000226,-5.201538944502532402
0.380000000000000226,-5.165268968864106469
0.381000000000000227,-5.127472448701059449
0.382000000000000228,-5.088209576003096757
0.383000000000000229,-5.047540640092059938
0.384000000000000230,-5.005525953967974395
0.385000000000000231,-4.962225782867781376
0.386000000000000232,-4.917700275090113315
0.387000000000000233,-4.872009395131518872
0.388000000000000234,-4.825212859171071678
0.389000000000000234,-4.777370072933114997
0.390000000000000235,-4.728540071950335211
0.391000000000000236,-4.678781464242817378
0.392000000000000237,-4.628152375422129872
0.393000000000000238,-4.576710396223671928
0.394000000000000239,-4.524512532464561865
0.395000000000000240,-4.471615157419381426
0.396000000000000241,-4.418073966600912783
0.397000000000000242,-4.363943934928387058
0.398000000000000242,-4.309279276261739788
0.399000000000000243,-4.254133405276072644
0.400000000000000244,-4.198558901647038155
0.401000000000000245,-4.142607476514633014
0.402000000000000246,-4.086329941189477566
0.403000000000000247,-4.029776178063130487
0.404000000000000248,-3.972995113681401680
0.405000000000000249,-3.916034693937207489
0.406000000000000250,-3.858941861337580548
0.407000000000000250,-3.801762534297600915
0.408000000000000251,-3.744541588412322319
0.409000000000000252,-3.687322839656535400
0.410000000000000253,-3.630149029460769672
0.411000000000000254,-3.573061811611179195
0.412000000000000255,-3.516101740919860053
0.413000000000000256,-3.459308263611706735
0.414000000000000257,-3.402719709373131174
0.415000000000000258,-3.346373285007936182
0.416000000000000258,-3.290305069645002245
0.417000000000000259,-3.234550011442711259
0.418000000000000260,-3.179141925734804808
0.419000000000000261,-3.124113494562604121
0.420000000000000262,-3.069496267538758705
0.421000000000000263,-3.015320663988018346
0.422000000000000264,-2.961615976310932208
0.423000000000000265,-2.908410374516856134
0.424000000000000266,-2.855730911873481048
0.425000000000000266,-2.803603531620295186
0.426000000000000267,-2.752053074694658985
0.427000000000000268,-2.701103288419512083
0.428000000000000269,-2.650776836102855860
0.429000000000000270,-2.601095307499968534
0.430000000000000271,-2.552079230090115392
0.431000000000000272,-2.503748081120748648
0.432000000000000273,-2.456120300372937493
0.433000000000000274,-2.409213303603018996
0.434000000000000274,-2.363043496616342942
0.435000000000000275,-2.317626289930232453
0.436000000000000276,-2.272976113984298330
0.437000000000000277,-2.229106434857334840
0.438000000000000278,-2.186029770451265897
0.439000000000000279,-2.143757707103676857
0.440000000000000280,-2.102300916591600011
0.441000000000000281,-2.061669173490388918
0.442000000000000282,-2.021871372852790838
0.443000000000000282,-1.982915548174170484
0.444000000000000283,-1.944808889611373770
0.445000000000000284,-1.907557762423551351
0.446000000000000285,-1.871167725604469867
0.447000000000000286,-1.835643550677167557
0.448000000000000287,-1.800989240622535847
0.449000000000000288,-1.767208048914926222
0.450000000000000289,-1.734302498638602641
0.451000000000000290,-1.702274401660203607
0.452000000000000290,-1.671124877833292333
0.453000000000000291,-1.640854374212106448
0.454000000000000292,-1.611462684252750410
0.455000000000000293,-1.582948966980912475
0.456000000000000294,-1.555311766106328708
0.457000000000000295,-1.528549029065083387
0.458000000000000296,-1.502658125971767955
0.459000000000000297,-1.477635868464525437
0.460000000000000298,-1.453478528426805472
0.461000000000000298,-1.430181856570610588
0.462000000000000299,-1.407741100866832795
0.463000000000000300,-1.386151024809073151
0.464000000000000301,-1.365405925498257567
0.465000000000000302,-1.345499651536054220
0.466000000000000303,-1.326425620715846465
0.467000000000000304,-1.308176837500874212
0.468000000000000305,-1.290745910279761377
0.469000000000000306,-1.274125068390377091
0.470000000000000306,-1.258306178903734640
0.471000000000000307,-1.243280763160092839
0.472000000000000308,-1.229040013050310964
0.473000000000000309,-1.215574807035892491
0.474000000000000310,-1.202875725901862980
0.475000000000000311,-1.190933068237165493
0.476000000000000312,-1.179736865637837084
0.477000000000000313,-1.169276897628638290
0.478000000000000314,-1.159542706299461656
0.479000000000000314,-1.150523610653276352
0.480000000000000315,-1.142208720662736487
0.481000000000000316,-1.134586951033221824
0.482000000000000317,-1.127647034670296033
0.483000000000000318,-1.121377535850148766
0.484000000000000319,-1.115766863091854244
0.485000000000000320,-1.110803281730766479
0.486000000000000321,-1.106474926192597463
0.487000000000000322,-1.102769811968211666
0.488000000000000322,-1.099675847289308228
0.489000000000000323,-1.097180844505723174
0.490000000000000324,-1.095272531165093266
0.491000000000000325,-1.093938560796125614
0.492000000000000326,-1.093166523396830625
0.493000000000000327,-1.092943955629438690
0.494000000000000328,-1.093258350723859795
0.495000000000000329,-1.094097168091810124
0.496000000000000330,-1.095447842653945347
0.497000000000000330,-1.097297793882530792
0.498000000000000331,-1.099634434562288821
0.499000000000000332,-1.102445179272389719
0.500000000000000333,-1.105717452592569483
0.501000000000000334,-1.109438697036512433
0.502000000000000335,-1.113596380715928147
0.503000000000000336,-1.118178004738654918
0.504000000000000337,-1.123171110344425072
0.505000000000000338,-1.128563285781929659
0.506000000000000338,-1.134342172930970172
0.507000000000000339,-1.140495473673537763
0.508000000000000340,-1.147010956017764149
0.509000000000000341,-1.153876459978781410
0.510000000000000342,-1.161079903220526344
0.511000000000000343,-1.168609286462663599
0.512000000000000344,-1.176452698656785811
0.513000000000000345,-1.184598321936125576
0.514000000000000346,-1.193034436343081595
0.515000000000000346,-1.201749424338795169
0.516000000000000347,-1.210731775099125773
0.517000000000000348,-1.219970088601409541
0.518000000000000349,-1.229453079506275692
0.519000000000000350,-1.239169580838932916
0.520000000000000351,-1.249108547474294451
0.521000000000000352,-1.259259059430286154
0.522000000000000353,-1.269610324973688531
0.523000000000000353,-1.280151683542901431
0.524000000000000354,-1.290872608491909990
0.525000000000000355,-1.301762709659836537
0.526000000000000356,-1.312811735770281540
0.527000000000000357,-1.324009576664824328
0.528000000000000358,-1.335346265374855346
0.529000000000000359,-1.346811980035979683
0.530000000000000360,-1.358397045649146317
0.531000000000000361,-1.370091935692684171
0.532000000000000361,-1.381887273589302634
0.533000000000000362,-1.393773834032160153
0.534000000000000363,-1.405742544173957942
0.535000000000000364,-1.417784484683117796
0.536000000000000365,-1.429890890670874271
0.537000000000000366,-1.442053152493236068
0.538000000000000367,-1.454262816431581840
0.539000000000000368,-1.466511585255726891
0.540000000000000369,-1.478791318673115640
0.541000000000000369,-1.491094033667869301
0.542000000000000370,-1.503411904733241711
0.543000000000000371,-1.515737264001091322
0.544000000000000372,-1.528062601271842347
0.545000000000000373,-1.540380563948370085
0.546000000000000374,-1.552683956877219718
0.547000000000000375,-1.564965742100438151
0.548000000000000376,-1.577219038521354033
0.549000000000000377,-1.589437121487418558
0.550000000000000377,-1.601613422293345135
0.551000000000000378,-1.613741527607559068
0.552000000000000379,-1.625815178825022800
0.553000000000000380,-1.637828271349394793
0.554000000000000381,-1.649774853807394193
0.555000000000000382,-1.661649127198275622
0.556000000000000383,-1.673445443981124381
0.557000000000000384,-1.685158307102754494
0.558000000000000385,-1.696782368968827059
0.559000000000000385,-1.708312430360831913
0.560000000000000386,-1.719743439301438581
0.561000000000000387,-1.731070489870724316
0.562000000000000388,-1.742288820975691266
0.563000000000000389,-1.753393815075462658
0.564000000000000390,-1.764380996864430617
0.565000000000000391,-1.775246031915646228
0.566000000000000392,-1.785984725286618113
0.567000000000000393,-1.796593020089685577
0.568000000000000393,-1.807066996029017769
0.569000000000000394,-1.817402867906305231
0.570000000000000395,-1.827596984097090926
0.571000000000000396,-1.837645824999663891
0.572000000000000397,-1.847546001458419962
0.573000000000000398,-1.857294253163444209
0.574000000000000399,-1.866887447028132030
0.575000000000000400,-1.876322575546553129
0.576000000000000401,-1.885596755132173286
0.577000000000000401,-1.894707224439647009
0.578000000000000402,-1.903651342671151436
0.579000000000000403,-1.912426587868807371
0.580000000000000404,-1.921030555194717993
0.581000000000000405,-1.929460955199948646
0.582000000000000406,-1.937715612083916294
0.583000000000000407,-1.945792461945480500
0.584000000000000408,-1.953689551027025573
0.585000000000000409,-1.961405033952808852
0.586000000000000409,-1.968937171962748423
0.587000000000000410,-1.976284331142861728
0.588000000000000411,-1.983444980653409129
0.589000000000000412,-1.990417690955920360
0.590000000000000413,-1.997201132040049343
0.591000000000000414,-2.003794071651351150
0.592000000000000415,-2.010195373520899498
0.593000000000000416,-2.016403995597690901
0.594000000000000417,-2.022418988284745645
0.595000000000000417,-2.028239492679767331
0.596000000000000418,-2.033864738821159257
0.597000000000000419,-2.039294043940244272
0.598000000000000420,-2.044526810720400434
0.599000000000000421,-2.049562525563883408
0.600000000000000422,-2.054400756867019950
0.601000000000000423,-2.059041153304410621
0.602000000000000424,-2.063483442122854061
0.603000000000000425,-2.067727427445546162
0.604000000000000425,-2.071772988587129216
0.605000000000000426,-2.075620078380190581
0.606000000000000427,-2.079268721513739315
0.607000000000000428,-2.082719012884062249
0.608000000000000429,-2.085971115958631827
0.609000000000000430,-2.089025261153276247
0.610000000000000431,-2.091881744223265116
0.611000000000000432,-2.094540924668561566
0.612000000000000433,-2.097003224153662693
0.613000000000000433,-2.099269124942460873
