# tri-graphene_CYSSCA-JS
# h[nm],U(h)[kJ/mol]
0.200000000000000011,58.032343025684625104
0.201000000000000012,54.705372583726827429
0.202000000000000013,52.919578657924148501
0.203000000000000014,51.844855629352174731
0.204000000000000015,51.006725033959369853
0.205000000000000016,50.159001057663211043
0.206000000000000016,49.196205867621003449
0.207000000000000017,48.094569409030874851
0.208000000000000018,46.873339358484841455
0.209000000000000019,45.570314850307319432
0.210000000000000020,44.227165387057141288
0.211000000000000021,42.881330575284017925
0.212000000000000022,41.562215046403693464
0.213000000000000023,40.290071908608588558
0.214000000000000024,39.076465733907397748
0.215000000000000024,37.925567293985025685
0.216000000000000025,36.835791390384613919
0.217000000000000026,35.801472403181847426
0.218000000000000027,34.814399533177343926
0.219000000000000028,33.865120203236322993
0.220000000000000029,32.943977047563343774
0.221000000000000030,32.041879824661954501
0.222000000000000031,31.150834727570789084
0.223000000000000032,30.264264560791378500
0.224000000000000032,29.377157478806147139
0.225000000000000033,28.486081863714854734
0.226000000000000034,27.589102181237468159
0.227000000000000035,26.685626493802242720
0.228000000000000036,25.776211540644215603
0.229000000000000037,24.862346451968768690
0.230000000000000038,23.946231580583990706
0.231000000000000039,23.030564801354238114
0.232000000000000040,22.118344039580836835
0.233000000000000040,21.212691771143170172
0.234000000000000041,20.316704774426405322
0.235000000000000042,19.433330465282399047
0.236000000000000043,18.565269655942064020
0.237000000000000044,17.714904485341854468
0.238000000000000045,16.884249509580357085
0.239000000000000046,16.074923457914792380
0.240000000000000047,15.288138897510268777
0.241000000000000048,14.524706960766925690
0.242000000000000048,13.785054330569611380
0.243000000000000049,13.069249815681903470
0.244000000000000050,12.377038051192872814
0.245000000000000051,11.707878103340231490
0.246000000000000052,11.060985024993104986
0.247000000000000053,10.435372682628120344
0.248000000000000054,9.829896446465998139
0.249000000000000055,9.243294594287979393
0.250000000000000056,8.674227520577504791
0.251000000000000056,8.121314062332739780
0.252000000000000057,7.583164449095244564
0.253000000000000058,7.058409556637069038
0.254000000000000059,6.545726291501789085
0.255000000000000060,6.043859058079441127
0.256000000000000061,5.551637362485149829
0.257000000000000062,5.067989689914774942
0.258000000000000063,4.591953856273645940
0.259000000000000064,4.122684082713371723
0.260000000000000064,3.659455075272719959
0.261000000000000065,3.201663413059160579
0.262000000000000066,2.748826559186506202
0.263000000000000067,2.300579810741555598
0.264000000000000068,1.856671498979648005
0.265000000000000069,1.416956740187238495
0.266000000000000070,0.981390022483820013
0.267000000000000071,0.550016895392490879
0.268000000000000071,0.122965008271002138
0.269000000000000072,-0.299565278500542376
0.270000000000000073,-0.717310508623320575
0.271000000000000074,-1.129953793428372322
0.272000000000000075,-1.537134368811859719
0.273000000000000076,-1.938456912585679648
0.274000000000000077,-2.333500510362819025
0.275000000000000078,-2.721827177967389488
0.276000000000000079,-3.102989866853156364
0.277000000000000079,-3.476539896029239962
0.278000000000000080,-3.842033769468918170
0.279000000000000081,-4.199039351902735362
0.280000000000000082,-4.547141388280172336
0.281000000000000083,-4.885946363066486775
0.282000000000000084,-5.215086704979244203
0.283000000000000085,-5.534224350836626449
0.284000000000000086,-5.843053688971073356
0.285000000000000087,-6.141303908246760201
0.286000000000000087,-6.428740783205499909
0.287000000000000088,-6.705167929348631262
0.288000000000000089,-6.970427565140307813
0.289000000000000090,-7.224400819086062242
0.290000000000000091,-7.467007621291109842
0.291000000000000092,-7.698206219325892441
0.292000000000000093,-7.917992358103482786
0.293000000000000094,-8.126398162885003273
0.294000000000000095,-8.323490763546939064
0.295000000000000095,-8.509370696936493061
0.296000000000000096,-8.684170122568037442
0.297000000000000097,-8.848050885132336063
0.298000000000000098,-9.001202455349559983
0.299000000000000099,-9.143839778642865568
0.300000000000000100,-9.276201058979928860
0.301000000000000101,-9.398545503061217943
0.302000000000000102,-9.511151047854738749
0.303000000000000103,-9.614312092314913016
0.304000000000000103,-9.708337251998219841
0.305000000000000104,-9.793547153220433898
0.306000000000000105,-9.870272281403575931
0.307000000000000106,-9.938850896347492636
0.308000000000000107,-9.999627025341139230
0.309000000000000108,-10.052948543308541929
0.310000000000000109,-10.099165347569885043
0.311000000000000110,-10.138627633291418917
0.312000000000000111,-10.171684274301554751
0.313000000000000111,-10.198681312663664400
0.314000000000000112,-10.219960559218577600
0.315000000000000113,-10.235858306239217441
0.316000000000000114,-10.246704152373299124
0.317000000000000115,-10.252819939184268705
0.318000000000000116,-10.254518797831398302
0.319000000000000117,-10.252104303753009518
0.320000000000000118,-10.245869736626898927
0.321000000000000119,-10.236097442374770594
0.322000000000000119,-10.223058293547186537
0.323000000000000120,-10.207011244067222933
0.324000000000000121,-10.188202974019665348
0.325000000000000122,-10.166867619942564716
0.326000000000000123,-10.143226585904685066
0.327000000000000124,-10.117488430530382715
0.328000000000000125,-10.089848825058899351
0.329000000000000126,-10.060490577491801645
0.330000000000000127,-10.029583717887621930
0.331000000000000127,-9.997285639901448917
0.332000000000000128,-9.963741293735449034
0.333000000000000129,-9.929083425760680370
0.334000000000000130,-9.893432860187299838
0.335000000000000131,-9.856898818296471632
0.336000000000000132,-9.819579270899094325
0.337000000000000133,-9.781561319852404068
0.338000000000000134,-9.742921604641765043
0.339000000000000135,-9.703726730219830898
0.340000000000000135,-9.664033712486560290
0.341000000000000136,-9.623890437989043534
0.342000000000000137,-9.583336134618459567
0.343000000000000138,-9.542401850280567643
0.344000000000000139,-9.501110936715159383
0.345000000000000140,-9.459479535837221675
0.346000000000000141,-9.417517066167016893
0.347000000000000142,-9.375226707107390922
0.348000000000000143,-9.332605879013069483
0.349000000000000143,-9.289646717177962643
0.350000000000000144,-9.246336538042131181
0.351000000000000145,-9.202658296089364143
0.352000000000000146,-9.158591030068969019
0.353000000000000147,-9.114110297331080801
0.354000000000000148,-9.069188595213514503
0.355000000000000149,-9.023795768559164543
0.356000000000000150,-8.977899402576952070
0.357000000000000151,-8.931465200385559911
0.358000000000000151,-8.884457344698136083
0.359000000000000152,-8.836838843217455164
0.360000000000000153,-8.788571857415435673
0.361000000000000154,-8.739618014467684048
0.362000000000000155,-8.689938702203788168
0.363000000000000156,-8.639495347017241755
0.364000000000000157,-8.588249674755140006
0.365000000000000158,-8.536163954678265497
0.366000000000000159,-8.483201226645565640
0.367000000000000159,-8.429325511735253684
0.368000000000000160,-8.374502006567055901
0.369000000000000161,-8.318697261636639695
0.370000000000000162,-8.261879344015211402
0.371000000000000163,-8.204017984803881447
0.372000000000000164,-8.145084711764415175
0.373000000000000165,-8.085052967575935057
0.374000000000000166,-8.023898214190509748
0.375000000000000167,-7.961598023780467770
0.376000000000000167,-7.898132156786338953
0.377000000000000168,-7.833482627587119218
0.378000000000000169,-7.767633758324090643
0.379000000000000170,-7.700572221416412511
0.380000000000000171,-7.632287071310348558
0.381000000000000172,-7.562769766006043781
0.382000000000000173,-7.492014178904620181
0.383000000000000174,-7.420016601516105759
0.384000000000000175,-7.346775737563651987
0.385000000000000175,-7.272292689013537093
0.386000000000000176,-7.196570934552433130
0.387000000000000177,-7.119616301024244365
0.388000000000000178,-7.041436928328553613
0.389000000000000179,-6.962043228271023843
0.390000000000000180,-6.881447837843934323
0.391000000000000181,-6.799665567401613764
0.392000000000000182,-6.716713344181873602
0.393000000000000183,-6.632610151609831917
0.394000000000000183,-6.547376964805789790
0.395000000000000184,-6.461036682703459988
0.396000000000000185,-6.373614057169146641
0.397000000000000186,-6.285135619496905690
0.398000000000000187,-6.195629604638575039
0.399000000000000188,-6.105125873511722645
0.400000000000000189,-6.013655833712588716
0.401000000000000190,-5.921252358945071848
0.402000000000000191,-5.827949707461267614
0.403000000000000191,-5.733783439793167069
0.404000000000000192,-5.638790336039925855
0.405000000000000193,-5.543008312959827322
0.406000000000000194,-5.446476341101226915
0.407000000000000195,-5.349234362192268222
0.408000000000000196,-5.251323206994673143
0.409000000000000197,-5.152784513813314149
0.410000000000000198,-5.053660647839675946
0.411000000000000199,-4.953994621494056894
0.412000000000000199,-4.853830015918838114
0.413000000000000200,-4.753210903762871808
0.414000000000000201,-4.652181773385036578
0.415000000000000202,-4.550787454593630876
0.416000000000000203,-4.449073046027487877
0.417000000000000204,-4.347083844273728737
0.418000000000000205,-4.244865274807414934
0.419000000000000206,-4.142462824828441192
0.420000000000000207,-4.039921978061633112
0.421000000000000207,-3.937288151577715389
0.422000000000000208,-3.834606634683736193
0.423000000000000209,-3.731922529924254661
0.424000000000000210,-3.629280696226560021
0.425000000000000211,-3.526725694216277240
0.426000000000000212,-3.424301733722977303
0.427000000000000213,-3.322052623488882084
0.428000000000000214,-3.220021723088072552
0.429000000000000214,-3.118251897057662259
0.430000000000000215,-3.016785471237340310
0.431000000000000216,-2.915664191308907416
0.432000000000000217,-2.814929183522450806
0.433000000000000218,-2.714620917592021065
0.434000000000000219,-2.614779171739415986
0.435000000000000220,-2.515442999861263296
0.436000000000000221,-2.416650700791072470
0.437000000000000222,-2.318439789624975766
0.438000000000000222,-2.220846971077131027
0.439000000000000223,-2.123908114828079619
0.440000000000000224,-2.027658232827203477
0.441000000000000225,-1.932131458508198563
0.442000000000000226,-1.837361027874975905
0.443000000000000227,-1.743379262413317976
0.444000000000000228,-1.650217553782626023
0.445000000000000229,-1.557906350240611637
0.446000000000000230,-1.466475144752832582
0.447000000000000230,-1.375952464738128711
0.448000000000000231,-1.286365863400212195
0.449000000000000232,-1.197741912595175817
0.450000000000000233,-1.110106197184318022
0.451000000000000234,-1.023483310821242220
0.452000000000000235,-0.937896853122270224
0.453000000000000236,-0.853369428168903377
0.454000000000000237,-0.769922644291467617
0.455000000000000238,-0.687577115082911527
0.456000000000000238,-0.606352461592355230
0.457000000000000239,-0.526267315647999334
0.458000000000000240,-0.447339324259874604
0.459000000000000241,-0.369585155052917558
0.460000000000000242,-0.293020502682046047
0.461000000000000243,-0.217660096180992191
0.462000000000000244,-0.143517707197886507
0.463000000000000245,-0.070606159070875682
0.464000000000000246,0.001062663301694844
0.465000000000000246,0.071477802841405924
0.466000000000000247,0.140629218964115510
0.467000000000000248,0.208507775591509237
0.468000000000000249,0.275105228541752289
0.469000000000000250,0.340414212340402589
0.470000000000000251,0.404428226491457488
0.471000000000000252,0.467141621247624872
0.472000000000000253,0.528549582917652971
0.473000000000000254,0.588648118747643223
0.474000000000000254,0.647434041412176753
0.475000000000000255,0.704904953149932845
0.476000000000000256,0.761059229577562668
0.477000000000000257,0.815896003214277576
0.478000000000000258,0.869415146748826695
0.479000000000000259,0.921617256079174219
0.480000000000000260,0.972503633154331304
0.481000000000000261,1.022076268646686215
0.482000000000000262,1.070337824482000544
0.483000000000000262,1.117291616253422992
0.484000000000000263,1.162941595544637385
0.485000000000000264,1.207292332186388650
0.486000000000000265,1.250348996469518248
0.487000000000000266,1.292117341336728398
0.488000000000000267,1.332603684574343195
0.489000000000000268,1.371814891024210725
0.490000000000000269,1.409758354835252359
0.491000000000000270,1.446441981772888408
0.492000000000000270,1.481874171604015133
0.493000000000000271,1.516063800574024345
0.494000000000000272,1.549020203991743561
0.495000000000000273,1.580753158937172387
0.496000000000000274,1.611272867106090745
0.497000000000000275,1.640589937804945775
0.498000000000000276,1.668715371108427492
0.499000000000000277,1.695660541191589044
0.500000000000000222,1.721437179847506327
0.501000000000000334,1.746057360200808928
0.502000000000000224,1.769533480626650945
0.503000000000000336,1.791878248884195557
0.504000000000000226,1.813104666472727944
0.505000000000000338,1.833226013218271389
0.506000000000000227,1.852255832097515098
0.507000000000000339,1.870207914305777264
0.508000000000000229,1.887096284574676375
0.509000000000000341,1.902935186745000617
0.510000000000000231,1.917739069599469603
0.511000000000000343,1.931522572959819328
0.512000000000000233,1.944300514051907625
0.513000000000000345,1.956087874142268035
0.514000000000000234,1.966899785448890103
0.515000000000000346,1.976751518328834667
0.516000000000000236,1.985658468744561533
0.517000000000000348,1.993636146010694388
0.518000000000000238,2.000700160822480367
0.519000000000000350,2.006866213566778079
0.520000000000000240,2.012150082916167371
0.521000000000000352,2.016567614706362477
0.522000000000000242,2.020134711096846392
0.523000000000000353,2.022867320014274384
0.524000000000000243,2.024781424878007385
0.525000000000000355,2.025893034606777832
0.526000000000000245,2.026218173905257380
0.527000000000000357,2.025772873829102316
0.528000000000000247,2.024573162626717604
0.529000000000000359,2.022635056855907720
0.530000000000000249,2.019974552773220910
0.531000000000000361,2.016607617993727786
0.532000000000000250,2.012550183418721605
0.533000000000000362,2.007818135428697470
0.534000000000000252,2.002427308338804224
0.535000000000000364,1.996393477113745263
0.536000000000000254,1.989732350339140199
0.537000000000000366,1.982459563446007156
0.538000000000000256,1.974590672185111639
0.539000000000000368,1.966141146347675672
0.540000000000000258,1.957126363728943330
0.541000000000000369,1.947561604330912077
0.542000000000000259,1.937462044800582817
0.543000000000000371,1.926842753099863526
0.544000000000000261,1.915718683403305089
0.545000000000000373,1.904104671219746692
0.546000000000000263,1.892015428733920146
0.547000000000000375,1.879465540363914000
0.548000000000000265,1.866469458530598091
0.549000000000000377,1.853041499634723976
0.550000000000000266,1.839195840237811241
0.551000000000000378,1.824946513442457841
0.552000000000000268,1.810307405468127184
0.553000000000000380,1.795292252418103640
0.554000000000000270,1.779914637233555696
0.555000000000000382,1.764187986830445753
0.556000000000000272,1.748125569415227787
0.557000000000000384,1.731740491975082064
0.558000000000000274,1.715045697938607727
0.559000000000000385,1.698053965002803256
0.560000000000000275,1.680777903122268713
0.561000000000000387,1.663229952656471555
0.562000000000000277,1.645422382671127393
0.563000000000000389,1.627367289389514582
0.564000000000000279,1.609076594789864867
0.565000000000000391,1.590562045344725339
0.566000000000000281,1.571835210898500756
0.567000000000000393,1.552907483679128120
0.568000000000000282,1.533790077440164712
0.569000000000000394,1.514494026729352516
0.570000000000000284,1.495030186280044804
0.571000000000000396,1.475409230521566695
0.572000000000000286,1.455641653205040242
0.573000000000000398,1.435737767140889076
0.574000000000000288,1.415707704044576687
0.575000000000000400,1.395561414486885088
0.576000000000000290,1.375308667945488228
0.577000000000000401,1.354959052954148868
0.578000000000000291,1.334521977346375010
0.579000000000000403,1.314006668590114169
0.580000000000000293,1.293422174210293374
0.581000000000000405,1.272777362295888226
0.582000000000000295,1.252080922088592896
0.583000000000000407,1.231341364649738646
0.584000000000000297,1.210567023602689307
0.585000000000000409,1.189766055947500067
0.586000000000000298,1.168946442945187680
0.587000000000000410,1.148115991068458852
0.588000000000000300,1.127282333016409677
0.589000000000000412,1.106452928790170098
0.590000000000000302,1.085635066827061568
0.591000000000000414,1.064835865190410180
0.592000000000000304,1.044062272812680936
0.593000000000000416,1.023321070789211529
0.594000000000000306,1.002618873720257486
0.595000000000000417,0.981962131098818580
0.596000000000000307,0.961357128742064804
0.597000000000000419,0.940809990263892670
0.598000000000000309,0.920326678586524283
0.599000000000000421,0.899912997488941047
0.600000000000000311,0.879574593190004306
0.601000000000000423,0.859316955964193441
0.602000000000000313,0.839145421788041523
0.603000000000000425,0.819065174015160880
0.604000000000000314,0.799081245078116398
0.605000000000000426,0.779198518215129754
0.606000000000000316,0.759421729219967867
0.607000000000000428,0.739755468213134759
0.608000000000000318,0.720204181432759771
0.609000000000000430,0.700772173043420321
0.610000000000000320,0.681463606961463020
0.611000000000000432,0.662282508695031913
0.612000000000000322,0.643232767197550626
0.613000000000000433,0.624318136732963103
0.614000000000000323,0.605542238751477502
0.615000000000000435,0.586908563774324654
0.616000000000000325,0.568420473286317951
0.617000000000000437,0.550081201634774253
0.618000000000000327,0.531893857933713132
0.619000000000000439,0.513861427971993190
0.620000000000000329,0.495986776124317352
0.621000000000000441,0.478272647263923267
0.622000000000000330,0.460721668675920182
0.623000000000000442,0.443336351970159359
0.624000000000000332,0.426119094992755798
0.625000000000000444,0.409072183735102235
0.626000000000000334,0.392197794239657116
0.627000000000000446,0.375497994501403531
0.628000000000000336,0.358974746364272956
0.629000000000000448,0.342629907411592050
0.630000000000000338,0.326465232849856901
0.631000000000000449,0.310482377384931119
0.632000000000000339,0.294682897090100815
0.633000000000000451,0.279068251265130296
0.634000000000000341,0.263639804285782708
0.635000000000000453,0.248398827442995629
0.636000000000000343,0.233346500771326959
0.637000000000000455,0.218483914865807982
0.638000000000000345,0.203812072686931078
0.639000000000000457,0.189331891352976234
0.640000000000000346,0.175044203919399205
0.641000000000000458,0.160949761144595305
0.642000000000000348,0.147049233241782956
0.643000000000000460,0.133343211616375218
0.644000000000000350,0.119832210588621965
0.645000000000000462,0.106516669100956612
0.646000000000000352,0.093396952409864592
0.647000000000000464,0.080473353761738295
0.648000000000000353,0.067746096052601665
0.649000000000000465,0.055215333471197371
0.650000000000000355,0.042881153125349722
0.651000000000000467,0.030743576651180306
0.652000000000000357,0.018802561805041716
0.653000000000000469,0.007058004037885845
0.654000000000000359,-0.004490261948113994
0.655000000000000471,-0.015842460660896250
0.656000000000000361,-0.026998874297939408
0.657000000000000473,-0.037959841244013671
0.658000000000000362,-0.048725754587306346
0.659000000000000474,-0.059297060654128722
0.660000000000000364,-0.069674257562259576
0.661000000000000476,-0.079857893793095880
0.662000000000000366,-0.089848566782592704
0.663000000000000478,-0.099646921531183222
0.664000000000000368,-0.109253649232627342
0.665000000000000480,-0.118669485921950063
0.666000000000000369,-0.127895211142387971
0.667000000000000481,-0.136931646631482107
