# tri-graphene_THRSCA-JS
# h[nm],U(h)[kJ/mol]
0.149999999999999994,97.777007489656469374
0.150999999999999995,94.900098790111584890
0.151999999999999996,93.006233758224212238
0.152999999999999997,91.310788096747060649
0.153999999999999998,89.548129446522949593
0.154999999999999999,87.684910792317083406
0.156000000000000000,85.770483387136181364
0.157000000000000001,83.865957050840293618
0.158000000000000002,82.016194074919980039
0.159000000000000002,80.243544744859690354
0.160000000000000003,78.551231015412923853
0.161000000000000004,76.929855668201440722
0.162000000000000005,75.363823819570967544
0.163000000000000006,73.836349809417129109
0.164000000000000007,72.332733141974742352
0.165000000000000008,70.842075418233790174
0.166000000000000009,69.357799758161689851
0.167000000000000010,67.877363559248820479
0.168000000000000010,66.401507821845953572
0.169000000000000011,64.933309684279805651
0.170000000000000012,63.477225228946736024
0.171000000000000013,62.038239655785503146
0.172000000000000014,60.621186381776951180
0.173000000000000015,59.230256032520948395
0.174000000000000016,57.868689026787521357
0.175000000000000017,56.538629041582439072
0.176000000000000018,55.241106468291000908
0.177000000000000018,53.976118644433640270
0.178000000000000019,52.742775174749581879
0.179000000000000020,51.539480472468937933
0.180000000000000021,50.364130592174078060
0.181000000000000022,49.214306671694274087
0.182000000000000023,48.087452315091056221
0.183000000000000024,46.981026711725590417
0.184000000000000025,45.892629037046823726
0.185000000000000026,44.820092670453121286
0.186000000000000026,43.761550019701054737
0.187000000000000027,42.715470330135396182
0.188000000000000028,41.680673874319481342
0.189000000000000029,40.656326465774050405
0.190000000000000030,39.641918420214253160
0.191000000000000031,38.637231991771415096
0.192000000000000032,37.642301021722524013
0.193000000000000033,36.657366121932717817
0.194000000000000034,35.682828230314598272
0.195000000000000034,34.719202864694722166
0.196000000000000035,33.767076897183827100
0.197000000000000036,32.827069196656289307
0.198000000000000037,31.899796057555352746
0.199000000000000038,30.985841957883188513
0.200000000000000039,30.085735871855558088
0.201000000000000040,29.199933103491410691
0.202000000000000041,28.328802403851341296
0.203000000000000042,27.472617982388602087
0.204000000000000042,26.631555916445954324
0.205000000000000043,25.805694396266744661
0.206000000000000044,24.995017209767016908
0.207000000000000045,24.199419865674734353
0.208000000000000046,23.418717769778961468
0.209000000000000047,22.652655901750893719
0.210000000000000048,21.900919484687339178
0.211000000000000049,21.163145192194246391
0.212000000000000050,20.438932495092277719
0.213000000000000050,19.727854808910894491
0.214000000000000051,19.029470162002645850
0.215000000000000052,18.343331160626743070
0.216000000000000053,17.668994080426529081
0.217000000000000054,17.006026962450960127
0.218000000000000055,16.354016635662606660
0.219000000000000056,15.712574626422446400
0.220000000000000057,15.081341948646842965
0.221000000000000058,14.459992796282691074
0.222000000000000058,13.848237182646149890
0.223000000000000059,13.245822589339008246
0.224000000000000060,12.652534701266352712
0.225000000000000061,12.068197314154378574
0.226000000000000062,11.492671507349035309
0.227000000000000063,10.925854178012594176
0.228000000000000064,10.367676033566656457
0.229000000000000065,9.818099137774975560
0.230000000000000066,9.277114102618494229
0.231000000000000066,8.744737013448929730
0.232000000000000067,8.221006169152897058
0.233000000000000068,7.705978712510022532
0.234000000000000069,7.199727218850563659
0.235000000000000070,6.702336303736593948
0.236000000000000071,6.213899302901891630
0.237000000000000072,5.734515070250237656
0.238000000000000073,5.264284932466101630
0.239000000000000073,4.803309831842853761
0.240000000000000074,4.351687682362196163
0.241000000000000075,3.909510957931789044
0.242000000000000076,3.476864526044864512
0.243000000000000077,3.053823734995341876
0.244000000000000078,2.640452758177767922
0.245000000000000079,2.236803194923865146
0.246000000000000080,1.842912923770406053
0.247000000000000081,1.458805200997488116
0.248000000000000081,1.084487994703732472
0.249000000000000082,0.719953542565783922
0.250000000000000111,0.365178119734546947
0.251000000000000112,0.020122002017902218
0.252000000000000113,-0.315270391446739295
0.253000000000000114,-0.641070192447380616
0.254000000000000115,-0.957363631631936274
0.255000000000000115,-1.264251456951108521
0.256000000000000116,-1.561848239294301610
0.257000000000000117,-1.850281581666738617
0.258000000000000118,-2.129691247756630101
0.259000000000000119,-2.400228225108024915
0.260000000000000120,-2.662053737371910866
0.261000000000000121,-2.915338219278527987
0.262000000000000122,-3.160260267080310825
0.263000000000000123,-3.397005576274582772
0.264000000000000123,-3.625765877447091778
0.265000000000000124,-3.846737880095078221
0.266000000000000125,-4.060122233306357131
0.267000000000000126,-4.266122511199244016
0.268000000000000127,-4.464944230077810161
0.269000000000000128,-4.656793903334778051
0.270000000000000129,-4.841878139248393609
0.271000000000000130,-5.020402785974614090
0.272000000000000131,-5.192572127235857593
0.273000000000000131,-5.358588131456219372
0.274000000000000132,-5.518649756392079553
0.275000000000000133,-5.672952310658147645
0.276000000000000134,-5.821686872952463787
0.277000000000000135,-5.965039769239597334
0.278000000000000136,-6.103192107659410226
0.279000000000000137,-6.236319370487005465
0.280000000000000138,-6.364591062077174399
0.281000000000000139,-6.488170411382027325
0.282000000000000139,-6.607214127330921727
0.283000000000000140,-6.721872205105535514
0.284000000000000141,-6.832287781127280191
0.285000000000000142,-6.938597034396923213
0.286000000000000143,-7.040929131684443121
0.287000000000000144,-7.139406213958148228
0.288000000000000145,-7.234143421364210624
0.289000000000000146,-7.325248954016435832
0.290000000000000147,-7.412824165831589873
0.291000000000000147,-7.496963688642480861
0.292000000000000148,-7.577755583839672404
0.293000000000000149,-7.655281518828362053
0.294000000000000150,-7.729616965639658943
0.295000000000000151,-7.800831419101524666
0.296000000000000152,-7.868988632052949406
0.297000000000000153,-7.934146865173492991
0.298000000000000154,-7.996359149097253649
0.299000000000000155,-8.055673556584348916
0.300000000000000155,-8.112133482632394532
0.301000000000000156,-8.165777930524074080
0.302000000000000157,-8.216641801923525890
0.303000000000000158,-8.264756189252477014
0.304000000000000159,-8.310148668696481167
0.305000000000000160,-8.352843592310497556
0.306000000000000161,-8.392862377811526997
0.307000000000000162,-8.430223794762699896
0.308000000000000163,-8.464944245967563674
0.309000000000000163,-8.497038043005282759
0.310000000000000164,-8.526517674946051173
0.311000000000000165,-8.553394069390844123
0.312000000000000166,-8.577676845081127155
0.313000000000000167,-8.599374555420810751
0.314000000000000168,-8.618494922345444564
0.315000000000000169,-8.635045060061814937
0.316000000000000170,-8.649031688264578577
0.317000000000000171,-8.660461334515179743
0.318000000000000171,-8.669340525542517994
0.319000000000000172,-8.675675967294148805
0.320000000000000173,-8.679474713631364580
0.321000000000000174,-8.680744323621507164
0.322000000000000175,-8.679493007436459351
0.323000000000000176,-8.675729760917139544
0.324000000000000177,-8.669464488910609390
0.325000000000000178,-8.660708117528763239
0.326000000000000179,-8.649472695516315923
0.327000000000000179,-8.635771484949966492
0.328000000000000180,-8.619619041521680458
0.329000000000000181,-8.601031284686353473
0.330000000000000182,-8.580025557977648987
0.331000000000000183,-8.556620679816855812
0.332000000000000184,-8.530836985156817320
0.333000000000000185,-8.502696358318003078
0.334000000000000186,-8.472222257385613631
0.335000000000000187,-8.439439730546183682
0.336000000000000187,-8.404375424749417789
0.337000000000000188,-8.367057587085543702
0.338000000000000189,-8.327516059271953708
0.339000000000000190,-8.285782265643490518
0.340000000000000191,-8.241889195040240423
0.341000000000000192,-8.195871376984545265
0.342000000000000193,-8.147764852535033242
0.343000000000000194,-8.097607140200851816
0.344000000000000195,-8.045437197292594433
0.345000000000000195,-7.991295377079969953
0.346000000000000196,-7.935223382117401414
0.347000000000000197,-7.877264214090324401
0.348000000000000198,-7.817462120525116909
0.349000000000000199,-7.755862538695252439
0.350000000000000200,-7.692512037045768913
0.351000000000000201,-7.627458254446483288
0.352000000000000202,-7.560749837573301768
0.353000000000000203,-7.492436376704711520
0.354000000000000203,-7.422568340208771431
0.355000000000000204,-7.351197007983432563
0.356000000000000205,-7.278374404100995676
0.357000000000000206,-7.204153228895071592
0.358000000000000207,-7.128586790715938371
0.359000000000000208,-7.051728937568283229
0.360000000000000209,-6.973633988832905750
0.361000000000000210,-6.894356667262084848
0.362000000000000210,-6.813952031426472544
0.363000000000000211,-6.732475408779754034
0.364000000000000212,-6.649982329496036293
0.365000000000000213,-6.566528461223650304
0.366000000000000214,-6.482169544888367163
0.367000000000000215,-6.396961331668398643
0.368000000000000216,-6.310959521253376892
0.369000000000000217,-6.224219701489559498
0.370000000000000218,-6.136797289504007047
0.371000000000000218,-6.048747474391086065
0.372000000000000219,-5.960125161536016236
0.373000000000000220,-5.870984918641402039
0.374000000000000221,-5.781380923514733539
0.375000000000000222,-5.691366913666767502
0.376000000000000223,-5.600996137763539551
0.377000000000000224,-5.510321308967367493
0.378000000000000225,-5.419394560195618382
0.379000000000000226,-5.328267401319516594
0.380000000000000226,-5.236990678319296322
0.381000000000000227,-5.145614534406079521
0.382000000000000228,-5.054188373115680477
0.383000000000000229,-4.962760823374377850
0.384000000000000230,-4.871379706531728360
0.385000000000000231,-4.780092005351503026
0.386000000000000232,-4.688943834947155942
0.387000000000000233,-4.597980415644758345
0.388000000000000234,-4.507246047752507145
0.389000000000000234,-4.416784088212824422
0.390000000000000235,-4.326636929109760388
0.391000000000000236,-4.236845978001934299
0.392000000000000237,-4.147451640048367416
0.393000000000000238,-4.058493301892582394
0.394000000000000239,-3.970009317267957361
0.395000000000000240,-3.882036994285712694
0.396000000000000241,-3.794612584365082419
0.397000000000000242,-3.707771272763750403
0.398000000000000242,-3.621547170665537774
0.399000000000000243,-3.535973308781007240
0.400000000000000244,-3.451081632415747613
0.401000000000000245,-3.366902997960602217
0.402000000000000246,-3.283467170757068399
0.403000000000000247,-3.200802824290905679
0.404000000000000248,-3.118937540666602892
0.405000000000000249,-3.037897812315069945
0.406000000000000250,-2.957709044886857264
0.407000000000000250,-2.878395561283263238
0.408000000000000251,-2.799980606777706882
0.409000000000000252,-2.722486355180111950
0.410000000000000253,-2.645933915997178421
0.411000000000000254,-2.570343342541963949
0.412000000000000255,-2.495733640946556253
0.413000000000000256,-2.422122780032233358
0.414000000000000257,-2.349527701992007334
0.415000000000000258,-2.277964333841265177
0.416000000000000258,-2.207447599592771148
0.417000000000000259,-2.137991433113173745
0.418000000000000260,-2.069608791618956278
0.419000000000000261,-2.002311669770507674
0.420000000000000262,-1.936111114324092553
0.421000000000000263,-1.871017239302174007
0.422000000000000264,-1.807039241643673577
0.423000000000000265,-1.744185417296540974
0.424000000000000266,-1.682463177716267300
0.425000000000000266,-1.621879066734583930
0.426000000000000267,-1.562438777763995201
0.427000000000000268,-1.504147171304538455
0.428000000000000269,-1.447008292720327827
0.429000000000000270,-1.391025390254495120
0.430000000000000271,-1.336200933252008394
0.431000000000000272,-1.282536630561142088
0.432000000000000273,-1.230033449085163877
0.433000000000000274,-1.178691632457027350
0.434000000000000274,-1.128510719810711826
0.435000000000000275,-1.079489564624037001
0.436000000000000276,-1.031626353608664726
0.437000000000000277,-0.984918625624019439
0.438000000000000278,-0.939363290592899580
0.439000000000000279,-0.894956648397480015
0.440000000000000280,-0.851694407735329895
0.441000000000000281,-0.809571704916070112
0.442000000000000282,-0.768583122580241751
0.443000000000000282,-0.728722708322701473
0.444000000000000283,-0.689983993204015045
0.445000000000000284,-0.652360010133941626
0.446000000000000285,-0.615843312112021479
0.447000000000000286,-0.580425990311320694
0.448000000000000287,-0.546099691991782210
0.449000000000000288,-0.512855638230885091
0.450000000000000289,-0.480684641459707351
0.451000000000000290,-0.449577122793480555
0.452000000000000290,-0.419523129146352869
0.453000000000000291,-0.390512350120770346
0.454000000000000292,-0.362534134662676366
0.455000000000000293,-0.335577507474236647
0.456000000000000294,-0.309631185176623913
0.457000000000000295,-0.284683592215858650
0.458000000000000296,-0.260722876505433132
0.459000000000000297,-0.237736924799924587
0.460000000000000298,-0.215713377794468253
0.461000000000000298,-0.194639644945406781
0.462000000000000299,-0.174502919008047375
0.463000000000000300,-0.155290190287853347
0.464000000000000301,-0.136988260602005696
0.465000000000000302,-0.119583756948646688
0.466000000000000303,-0.103063144881562346
0.467000000000000304,-0.087412741588528076
0.468000000000000305,-0.072618728671979563
0.469000000000000306,-0.058667164630922010
0.470000000000000306,-0.045543997043563655
0.471000000000000307,-0.033235074450317037
0.472000000000000308,-0.021726157937322944
0.473000000000000309,-0.011002932420836952
0.474000000000000310,-0.001051017633221112
0.475000000000000311,0.008144021188481921
0.476000000000000312,0.016596662910075673
0.477000000000000313,0.024321420402376188
0.478000000000000314,0.031332830736166689
0.479000000000000314,0.037645445667935838
0.480000000000000315,0.043273822414205507
0.481000000000000316,0.048232514711931088
0.482000000000000317,0.052536064162417170
0.483000000000000318,0.056198991855854488
0.484000000000000319,0.059235790273558533
0.485000000000000320,0.061660915464687827
0.486000000000000321,0.063488779494221645
0.487000000000000322,0.064733743158706766
0.488000000000000322,0.065410108966269420
0.489000000000000323,0.065532114377163775
0.490000000000000324,0.065113925301129985
0.491000000000000325,0.064169629847651108
0.492000000000000326,0.062713232325172244
0.493000000000000327,0.060758647485228488
0.494000000000000328,0.058319695007345518
0.495000000000000329,0.055410094220596152
0.496000000000000330,0.052043459057512134
0.497000000000000330,0.048233293236122507
0.498000000000000331,0.043992985665774240
0.499000000000000332,0.039335806072396520
0.500000000000000333,0.034274900838787689
0.501000000000000334,0.028823289055579553
0.502000000000000335,0.022993858778399358
0.503000000000000336,0.016799363486834269
0.504000000000000337,0.010252418740747438
0.505000000000000338,0.003365499029505768
0.506000000000000338,-0.003849065190313433
0.507000000000000339,-0.011379090273154242
0.508000000000000340,-0.019212541983074344
0.509000000000000341,-0.027337537917091582
0.510000000000000342,-0.035742349757652198
0.511000000000000343,-0.044415405358577006
0.512000000000000344,-0.053345290668804536
0.513000000000000345,-0.062520751498216398
0.514000000000000346,-0.071930695129828956
0.515000000000000346,-0.081564191782523304
0.516000000000000347,-0.091410475928531271
0.517000000000000348,-0.101458947469822647
0.518000000000000349,-0.111699172777449382
0.519000000000000350,-0.122120885597918963
0.520000000000000351,-0.132713987830620772
0.521000000000000352,-0.143468550180201715
0.522000000000000353,-0.154374812687837454
0.523000000000000353,-0.165423185145221752
0.524000000000000354,-0.176604247395062613
0.525000000000000355,-0.187908749521853852
0.526000000000000356,-0.199327611936534338
0.527000000000000357,-0.210851925358737813
0.528000000000000358,-0.222472950700128902
0.529000000000000359,-0.234182118852363008
0.530000000000000360,-0.245971030383093675
0.531000000000000361,-0.257831455143428423
0.532000000000000361,-0.269755331790131669
0.533000000000000362,-0.281734767225853888
0.534000000000000363,-0.293762035960561163
0.535000000000000364,-0.305829579397321916
0.536000000000000365,-0.317930005045504283
0.537000000000000366,-0.330056085664404197
0.538000000000000367,-0.342200758340242828
0.539000000000000368,-0.354357123499430160
0.540000000000000369,-0.366518443860900267
0.541000000000000369,-0.378678143330291872
0.542000000000000370,-0.390829805838662669
0.543000000000000371,-0.402967174128375294
0.544000000000000372,-0.415084148488742144
0.545000000000000373,-0.427174785443916238
0.546000000000000374,-0.439233296395508899
0.547000000000000375,-0.451254046222309024
0.548000000000000376,-0.463231551839452416
0.549000000000000377,-0.475160480719297618
0.550000000000000377,-0.487035649376237167
0.551000000000000378,-0.498852021817608293
0.552000000000000379,-0.510604707962774240
0.553000000000000380,-0.522288962032468218
0.554000000000000381,-0.533900180910334976
0.555000000000000382,-0.545433902478651422
0.556000000000000383,-0.556885803930066037
0.557000000000000384,-0.568251700057208931
0.558000000000000385,-0.579527541521927980
0.559000000000000385,-0.590709413105889758
0.560000000000000386,-0.601793531944178839
0.561000000000000387,-0.612776245743552050
0.562000000000000388,-0.623654030986890429
0.563000000000000389,-0.634423491125384542
0.564000000000000390,-0.645081354759894587
0.565000000000000391,-0.655624473812948527
0.566000000000000392,-0.666049821692721866
0.567000000000000393,-0.676354491450345097
0.568000000000000393,-0.686535693931816793
0.569000000000000394,-0.696590755925784011
0.570000000000000395,-0.706517118308347847
0.571000000000000396,-0.716312334186096633
0.572000000000000397,-0.725974067038462234
0.573000000000000398,-0.735500088860453594
0.574000000000000399,-0.744888278306840901
0.575000000000000400,-0.754136618838757489
0.576000000000000401,-0.763243196873677032
0.577000000000000401,-0.772206199939713622
0.578000000000000402,-0.781023914835098587
0.579000000000000403,-0.789694725793683050
0.580000000000000404,-0.798217112657309658
0.581000000000000405,-0.806589649055796443
0.582000000000000406,-0.814811000595298096
0.583000000000000407,-0.822879923055764295
0.584000000000000408,-0.830795260598150564
0.585000000000000409,-0.838555943982056240
0.586000000000000409,-0.846160988794414259
0.587000000000000410,-0.853609493689799437
0.588000000000000411,-0.860900638642933869
0.589000000000000412,-0.868033683213937812
0.590000000000000413,-0.875007964826800211
0.591000000000000414,-0.881822897061585231
0.592000000000000415,-0.888477967960806581
0.593000000000000416,-0.894972738350415908
0.594000000000000417,-0.901306840175800650
0.595000000000000417,-0.907479974853187876
0.596000000000000418,-0.913491911636795550
0.597000000000000419,-0.919342486002089343
0.598000000000000420,-0.925031598045451320
0.599000000000000421,-0.930559210900546163
0.600000000000000422,-0.935925349171689680
0.601000000000000423,-0.941130097384432318
0.602000000000000424,-0.946173598453630915
0.603000000000000425,-0.951056052169222177
0.604000000000000425,-0.955777713699861642
0.605000000000000426,-0.960338892114650178
0.606000000000000427,-0.964739948923117874
0.607000000000000428,-0.968981296633540490
0.608000000000000429,-0.973063397329859803
0.609000000000000430,-0.976986761267151671
0.610000000000000431,-0.980751945485912713
0.611000000000000432,-0.984359552445136066
0.612000000000000433,-0.987810228674291246
0.613000000000000433,-0.991104663444309031
0.614000000000000434,-0.994243587457547817
