# tri-graphene_ETHANE-AC
# h[nm],U(h)[kJ/mol]
0.149999999999999994,118.645255486258406563
0.150999999999999995,114.773213098756016848
0.151999999999999996,112.570074272291009265
0.152999999999999997,110.680953426282670193
0.153999999999999998,108.655025257688336637
0.154999999999999999,106.442052853413571256
0.156000000000000000,104.131356694478540703
0.157000000000000001,101.829262966064163720
0.158000000000000002,99.611713993821098256
0.159000000000000002,97.514605913755332267
0.160000000000000003,95.540595363828970221
0.161000000000000004,93.670991220042793657
0.162000000000000005,91.877190119951336555
0.163000000000000006,90.129425951926563698
0.164000000000000007,88.402362895223262740
0.165000000000000008,86.677898913642877687
0.166000000000000009,84.945859785004145692
0.167000000000000010,83.203298422488515484
0.168000000000000010,81.453017416935225015
0.169000000000000011,79.701788635736619426
0.170000000000000012,77.958597511283016956
0.171000000000000013,76.233112872699706486
0.172000000000000014,74.534483644790455514
0.173000000000000015,72.870491812323990644
0.174000000000000016,71.247043425562821994
0.175000000000000017,69.667951397655556889
0.176000000000000018,68.134950556794365184
0.177000000000000018,66.647882489292527453
0.178000000000000019,65.204991515313679429
0.179000000000000020,63.803280849682074916
0.180000000000000021,62.438887532033753303
0.181000000000000022,61.107444613759469121
0.182000000000000023,59.804408424257005095
0.183000000000000024,58.525336957427761320
0.184000000000000025,57.266112258566316484
0.185000000000000026,56.023105088130364493
0.186000000000000026,54.793284158572170384
0.187000000000000027,53.574275027122894244
0.188000000000000028,52.364375463896486451
0.189000000000000029,51.162534995912636759
0.190000000000000030,49.968306543102599449
0.191000000000000031,48.781777785103216161
0.192000000000000032,47.603489278437322696
0.193000000000000033,46.434345508717406403
0.194000000000000034,45.275524113538224924
0.195000000000000034,44.128387527634231446
0.196000000000000035,42.994400341225443185
0.197000000000000036,41.875054766353301261
0.198000000000000037,40.771805801026481220
0.199000000000000038,39.686016982128343500
0.200000000000000039,38.618917031213079838
0.201000000000000040,37.571567221699886829
0.202000000000000041,36.544838925900684501
0.203000000000000042,35.539400526900877253
0.204000000000000042,34.555712692725364832
0.205000000000000043,33.594030896710862066
0.206000000000000044,32.654414016640409102
0.207000000000000045,31.736737844434323108
0.208000000000000046,30.840712377251037424
0.209000000000000047,29.965901829958795588
0.210000000000000048,29.111746399455729062
0.211000000000000049,28.277584915803082311
0.212000000000000050,27.462677627320282170
0.213000000000000050,26.666228481538677642
0.214000000000000051,25.887406377113443057
0.215000000000000052,25.125364970292018540
0.216000000000000053,24.379260720994672340
0.217000000000000054,23.648268956356705672
0.218000000000000055,22.931597812695382999
0.219000000000000056,22.228499989783401247
0.220000000000000057,21.538282313917409994
0.221000000000000058,20.860313158780009246
0.222000000000000058,20.194027815945357673
0.223000000000000059,19.538931940708174295
0.224000000000000060,18.894603224462485969
0.225000000000000061,18.260691462943757557
0.226000000000000062,17.636917201131744548
0.227000000000000063,17.023069141350024580
0.228000000000000064,16.419000501936331204
0.229000000000000065,15.824624510595262095
0.230000000000000066,15.239909209940188717
0.231000000000000066,14.664871743473170795
0.232000000000000067,14.099572278975154305
0.233000000000000068,13.544107713540872950
0.234000000000000069,12.998605290792621503
0.235000000000000070,12.463216246569643886
0.236000000000000071,11.938109584983603639
0.237000000000000072,11.423466072457564735
0.238000000000000073,10.919472523480564519
0.239000000000000073,10.426316438510923490
0.240000000000000074,9.944181041902067975
0.241000000000000075,9.473240756024345899
0.242000000000000076,9.013657136990214980
0.243000000000000077,8.565575287609913602
0.244000000000000078,8.129120754432374696
0.245000000000000079,7.704396907962722807
0.246000000000000080,7.291482798377371566
0.247000000000000081,6.890431473246057870
0.248000000000000081,6.501268738877767461
0.249000000000000082,6.123992342879683193
0.250000000000000111,5.758571552297468088
0.251000000000000112,5.404947099230366980
0.252000000000000113,5.063031464018044048
0.253000000000000114,4.732709464916115216
0.254000000000000115,4.413839122543543603
0.255000000000000115,4.106252767238147250
0.256000000000000116,3.809758357730939515
0.257000000000000117,3.524140980188534833
0.258000000000000118,3.249164497619926983
0.259000000000000119,2.984573320845874012
0.260000000000000120,2.730094273638875801
0.261000000000000121,2.485438526215253408
0.262000000000000122,2.250303572956489973
0.263000000000000123,2.024375232020118709
0.264000000000000123,1.807329646337401341
0.265000000000000124,1.598835267358139856
0.266000000000000125,1.398554804766522164
0.267000000000000126,1.206147127234949323
0.268000000000000127,1.021269101086054176
0.269000000000000128,0.843577355482251212
0.270000000000000129,0.672729964443349093
0.271000000000000130,0.508388037596243070
0.272000000000000131,0.350217213078686140
0.273000000000000131,0.197889047445176131
0.274000000000000132,0.051082298753297908
0.275000000000000133,-0.090515899759265883
0.276000000000000134,-0.227208976864548606
0.277000000000000135,-0.359289971825191068
0.278000000000000136,-0.487040693656377144
0.279000000000000137,-0.610730989819961101
0.280000000000000138,-0.730618122257001401
0.281000000000000139,-0.846946248009857738
0.282000000000000139,-0.959946001116133596
0.283000000000000140,-1.069834171969626713
0.284000000000000141,-1.176813479933621620
0.285000000000000142,-1.281072434654792369
0.286000000000000143,-1.382785281256275312
0.287000000000000144,-1.482112024381449178
0.288000000000000145,-1.579198525911418072
0.289000000000000146,-1.674176671082302503
0.290000000000000147,-1.767164597681206262
0.291000000000000147,-1.858266982994539962
0.292000000000000148,-1.947575383217471146
0.293000000000000149,-2.035168620102003167
0.294000000000000150,-2.121113209721108728
0.295000000000000151,-2.205463828352872024
0.296000000000000152,-2.288263810637833018
0.297000000000000153,-2.369545675331809598
0.298000000000000154,-2.449331674161798311
0.299000000000000155,-2.527634359491058635
0.300000000000000155,-2.604457166708822768
0.301000000000000156,-2.679795007477176139
0.302000000000000157,-2.753634870190732276
0.303000000000000158,-2.825956424231060193
0.304000000000000159,-2.896732624826352520
0.305000000000000160,-2.965930315554652363
0.306000000000000161,-3.033510825755994844
0.307000000000000162,-3.099430560342430585
0.308000000000000163,-3.163641579714560947
0.309000000000000163,-3.226092167707972358
0.310000000000000164,-3.286727385701545323
0.311000000000000165,-3.345489611221362569
0.312000000000000166,-3.402319059568811976
0.313000000000000167,-3.457154287187832242
0.314000000000000168,-3.509932675664926283
0.315000000000000169,-3.560590895425285396
0.316000000000000170,-3.609065348349631108
0.317000000000000171,-3.655292588688367150
0.318000000000000171,-3.699209721792934946
0.319000000000000172,-3.740754780318551020
0.320000000000000173,-3.779867077677629972
0.321000000000000174,-3.816487538639739885
0.322000000000000175,-3.850559007081803209
0.323000000000000176,-3.882026530991432800
0.324000000000000177,-3.910837624917432809
0.325000000000000178,-3.936942510144338936
0.326000000000000179,-3.960294332943525397
0.327000000000000179,-3.980849361320674795
0.328000000000000180,-3.998567160740446269
0.329000000000000181,-4.013410749362973817
0.330000000000000182,-4.025346733373711849
0.331000000000000183,-4.034345423029806810
0.332000000000000184,-4.040380930080854860
0.333000000000000185,-4.043431247251958460
0.334000000000000186,-4.043478310501253503
0.335000000000000187,-4.040508044783799768
0.336000000000000187,-4.034510394068766104
0.337000000000000188,-4.025479336367456362
0.338000000000000189,-4.013412884536883496
0.339000000000000190,-3.998313073626611924
0.340000000000000191,-3.980185935536377340
0.341000000000000192,-3.959041461749143398
0.342000000000000193,-3.934893554897779033
0.343000000000000194,-3.907759969915488796
0.344000000000000195,-3.877662245508722183
0.345000000000000195,-3.844625626679014196
0.346000000000000196,-3.808678979004861187
0.347000000000000197,-3.769854695378723086
0.348000000000000198,-3.728188595876370748
0.349000000000000199,-3.683719821416605811
0.350000000000000200,-3.636490721849524821
0.351000000000000201,-3.586546739090207048
0.352000000000000202,-3.533936285893228835
0.353000000000000203,-3.478710620840934187
0.354000000000000203,-3.420923720095656595
0.355000000000000204,-3.360632146442878110
0.356000000000000205,-3.297894916129158194
0.357000000000000206,-3.232773363975105951
0.358000000000000207,-3.165331007220092641
0.359000000000000208,-3.095633408532339814
0.360000000000000209,-3.023748038594516352
0.361000000000000210,-2.949744138652128811
0.362000000000000210,-2.873692583389256150
0.363000000000000211,-2.795665744473886605
0.364000000000000212,-2.715737355093230665
0.365000000000000213,-2.633982375777800478
0.366000000000000214,-2.550476861792268402
0.367000000000000215,-2.465297832350533902
0.368000000000000216,-2.378523141892721515
0.369000000000000217,-2.290231353642428136
0.370000000000000218,-2.200501615644065545
0.371000000000000218,-2.109413539461865827
0.372000000000000219,-2.017047081705075406
0.373000000000000220,-1.923482428526821053
0.374000000000000221,-1.828799883228369172
0.375000000000000222,-1.733079757084792005
0.376000000000000223,-1.636402263493630160
0.377000000000000224,-1.538847415533882046
0.378000000000000225,-1.440494927009285053
0.379000000000000226,-1.341424117037129937
0.380000000000000226,-1.241713818231820587
0.381000000000000227,-1.141442288520660986
0.382000000000000228,-1.040687126618883962
0.383000000000000229,-0.939525191180461405
0.384000000000000230,-0.838032523631562554
0.385000000000000231,-0.736284274684843809
0.386000000000000232,-0.634354634523842442
0.387000000000000233,-0.532316766639214678
0.388000000000000234,-0.430242745290911610
0.389000000000000234,-0.328203496563836516
0.390000000000000235,-0.226268742977893123
0.391000000000000236,-0.124506951607786048
0.392000000000000237,-0.022985285662283195
0.393000000000000238,0.078230440531972881
0.394000000000000239,0.179075803201789840
0.395000000000000240,0.279487807517367459
0.396000000000000241,0.379404922768149799
0.397000000000000242,0.478767114395190596
0.398000000000000242,0.577515872953324738
0.399000000000000243,0.675594240079232078
0.400000000000000244,0.772946831543726787
0.401000000000000245,0.869519857468127655
0.402000000000000246,0.965261139786725231
0.403000000000000247,1.060120127038371773
0.404000000000000248,1.154047906571227466
0.405000000000000249,1.246997214245757934
0.406000000000000250,1.338922441721465351
0.407000000000000250,1.429779641413216895
0.408000000000000251,1.519526529203286902
0.409000000000000252,1.608122484994972679
0.410000000000000253,1.695528551193658640
0.411000000000000254,1.781707429200551918
0.412000000000000255,1.866623474003956229
0.413000000000000256,1.950242686952087023
0.414000000000000257,2.032532706790735944
0.415000000000000258,2.113462799047928442
0.416000000000000258,2.193003843846893730
0.417000000000000259,2.271128322227205398
0.418000000000000260,2.347810301052895454
0.419000000000000261,2.423025416584880354
0.420000000000000262,2.496750856793561013
0.421000000000000263,2.568965342486062120
0.422000000000000264,2.639649107320830801
0.423000000000000265,2.708783876780995303
0.424000000000000266,2.776352846175727862
0.425000000000000266,2.842340657737717713
0.426000000000000267,2.906733376882607800
0.427000000000000268,2.969518467694843622
0.428000000000000269,3.030684767702362947
0.429000000000000270,3.090222462000796089
0.430000000000000271,3.148123056786141571
0.431000000000000272,3.204379352352859200
0.432000000000000273,3.258985415612619896
0.433000000000000274,3.311936552187056293
0.434000000000000274,3.363229278126082189
0.435000000000000275,3.412861291301452660
0.436000000000000276,3.460831442523455870
0.437000000000000277,3.507139706426897874
0.438000000000000278,3.551787152170624573
0.439000000000000279,3.594775913993160543
0.440000000000000280,3.636109161665311174
0.441000000000000281,3.675791070878789757
0.442000000000000282,3.713826793608256960
0.443000000000000282,3.750222428482612891
0.444000000000000283,3.784984991199484394
0.445000000000000284,3.818122385015546350
0.446000000000000285,3.849643371343606013
0.447000000000000286,3.879557540485672806
0.448000000000000287,3.907875282530105743
0.449000000000000288,3.934607758439072622
0.450000000000000289,3.959766871351369844
0.451000000000000290,3.983365238124135566
0.452000000000000290,4.005416161135643804
0.453000000000000291,4.025933600370053433
0.454000000000000292,4.044932145803641355
0.455000000000000293,4.062426990110878933
0.456000000000000294,4.078433901707373188
0.457000000000000295,4.092969198145626208
0.458000000000000296,4.106049719878297921
0.459000000000000297,4.117692804402695472
0.460000000000000298,4.127916260798954795
0.461000000000000298,4.136738344673516643
0.462000000000000299,4.144177733518345619
0.463000000000000300,4.150253502495518276
0.464000000000000301,4.154985100655717467
0.465000000000000302,4.158392327598392058
0.466000000000000303,4.160495310580440531
0.467000000000000304,4.161314482079438548
0.468000000000000305,4.160870557816577886
0.469000000000000306,4.159184515243850910
0.470000000000000306,4.156277572499176287
0.471000000000000307,4.152171167832442222
0.472000000000000308,4.146886939504884850
0.473000000000000309,4.140446706163467994
0.474000000000000310,4.132872447691359419
0.475000000000000311,4.124186286535018731
0.476000000000000312,4.114410469507844503
0.477000000000000313,4.103567350069820208
0.478000000000000314,4.091679371082059369
0.479000000000000314,4.078769048034695643
0.480000000000000315,4.064858952746130960
0.481000000000000316,4.049971697531185022
0.482000000000000317,4.034129919835318212
0.483000000000000318,4.017356267331705588
0.484000000000000319,3.999673383477608812
0.485000000000000320,3.981103893526078075
0.486000000000000321,3.961670390988837109
0.487000000000000322,3.941395424545741655
0.488000000000000322,3.920301485396093799
0.489000000000000323,3.898410995046699412
0.490000000000000324,3.875746293531412423
0.491000000000000325,3.852329628056625488
0.492000000000000326,3.828183142067018707
0.493000000000000327,3.803328864725656899
0.494000000000000328,3.777788700802322985
0.495000000000000329,3.751584420963948396
0.496000000000000330,3.724737652460649251
0.497000000000000330,3.697269870200984965
0.498000000000000331,3.669202388209735322
0.499000000000000332,3.640556351461562201
0.500000000000000333,3.611352728083690344
0.501000000000000334,3.581612301920759300
0.502000000000000335,3.551355665454899224
0.503000000000000336,3.520603213074039672
0.504000000000000337,3.489375134681405477
0.505000000000000338,3.457691409639097824
0.506000000000000338,3.425571801038699959
0.507000000000000339,3.393035850291772793
0.508000000000000340,3.360102872033083887
0.509000000000000341,3.326791949329527931
0.510000000000000342,3.293121929187512897
0.511000000000000343,3.259111418351806400
0.512000000000000344,3.224778779388695504
0.513000000000000345,3.190142127046465603
0.514000000000000346,3.155219324886127108
0.515000000000000346,3.120027982175467951
0.516000000000000347,3.084585451039463244
0.517000000000000348,3.048908823860192907
0.518000000000000349,3.013014930919407863
0.519000000000000350,2.976920338277058597
0.520000000000000351,2.940641345878971968
0.521000000000000352,2.904193985887180141
0.522000000000000353,2.867594021226245182
0.523000000000000353,2.830856944339127601
0.524000000000000354,2.793997976146257223
0.525000000000000355,2.757032065201347137
0.526000000000000356,2.719973887037883564
0.527000000000000357,2.682837843700009994
0.528000000000000358,2.645638063451782429
0.529000000000000359,2.608388400658871564
0.530000000000000360,2.571102435836757572
0.531000000000000361,2.533793475859691835
0.532000000000000361,2.496474554324693340
0.533000000000000362,2.459158432065012612
0.534000000000000363,2.421857597807562712
0.535000000000000364,2.384584268968909626
0.536000000000000365,2.347350392584530265
0.537000000000000366,2.310167646366150684
0.538000000000000367,2.273047439882029508
0.539000000000000368,2.236000915855249183
0.540000000000000369,2.199038951575041700
0.541000000000000369,2.162172160416432565
0.542000000000000370,2.125410893463441919
0.543000000000000371,2.088765241231290481
0.544000000000000372,2.052245035483088120
0.545000000000000373,2.015859851136647229
0.546000000000000374,1.979619008257075263
0.547000000000000375,1.943531574131008410
0.548000000000000376,1.907606365418339278
0.549000000000000377,1.871851950377497076
0.550000000000000377,1.836276651160314799
0.551000000000000378,1.800888546172731086
0.552000000000000379,1.765695472497619933
0.553000000000000380,1.730705028376078758
0.554000000000000381,1.695924575743728679
0.555000000000000382,1.661361242818564676
0.556000000000000383,1.627021926737005630
0.557000000000000384,1.592913296234954590
0.558000000000000385,1.559041794370663592
0.559000000000000385,1.525413641286353705
0.560000000000000386,1.492034837005657089
0.561000000000000387,1.458911164263913429
0.562000000000000388,1.426048191368588958
0.563000000000000389,1.393451275087035146
0.564000000000000390,1.361125563559014040
0.565000000000000391,1.329075999231358107
0.566000000000000392,1.297307321812360525
0.567000000000000393,1.265824071243439874
0.568000000000000393,1.234630590685798168
0.569000000000000394,1.203731029519770512
0.570000000000000395,1.173129346354798042
0.571000000000000396,1.142829312047797696
0.572000000000000397,1.112834512727993275
0.573000000000000398,1.083148352826226679
0.574000000000000399,1.053774058106857314
0.575000000000000400,1.024714678700419324
0.576000000000000401,0.995973092135324145
0.577000000000000401,0.967552006366876882
0.578000000000000402,0.939453962801986564
0.579000000000000403,0.911681339318059614
0.580000000000000404,0.884236353274501674
0.581000000000000405,0.857121064515437681
0.582000000000000406,0.830337378362257184
0.583000000000000407,0.803887048594621789
0.584000000000000408,0.777771680418734901
0.585000000000000409,0.751992733421600112
0.586000000000000409,0.726551524510099300
0.587000000000000410,0.701449230833834370
0.588000000000000411,0.676686892690623654
0.589000000000000412,0.652265416413639665
0.590000000000000413,0.628185577239262938
0.591000000000000414,0.604448022154688624
0.592000000000000415,0.581053272724455838
0.593000000000000416,0.558001727895032440
0.594000000000000417,0.535293666776684440
0.595000000000000417,0.512929251401931241
0.596000000000000418,0.490908529459785137
0.597000000000000419,0.469231437005234120
0.598000000000000420,0.447897801143234464
0.599000000000000421,0.426907342686713598
0.600000000000000422,0.406259678787962986
0.601000000000000423,0.385954325542980925
0.602000000000000424,0.365990700568212812
0.603000000000000425,0.346368125549268657
0.604000000000000425,0.327085828761247421
0.605000000000000426,0.308142947560219982
0.606000000000000427,0.289538530845538489
0.607000000000000428,0.271271541492694501
0.608000000000000429,0.253340858756331000
0.609000000000000430,0.235745280643281985
0.610000000000000431,0.218483526255247501
0.611000000000000432,0.201554238101005950
0.612000000000000433,0.184955984377932731
0.613000000000000433,0.168687261222616736
0.614000000000000434,0.152746494930527860
0.615000000000000435,0.137132044144528009
0.616000000000000436,0.121842202012166334
0.617000000000000437,0.106875198311680464
0.618000000000000438,0.092229201546652664
