# tri-graphene_CS-387-AC
# h[nm],U(h)[kJ/mol]
0.200000000000000011,90.545315577105753846
0.201000000000000012,89.315110230914498857
0.202000000000000013,87.682454513347835245
0.203000000000000014,85.913401291969449858
0.204000000000000015,84.142943421094670953
0.205000000000000016,82.428161888891281706
0.206000000000000016,80.782852839423341607
0.207000000000000017,79.199364768088770461
0.208000000000000018,77.661761258310519906
0.209000000000000019,76.153232348574263710
0.210000000000000020,74.659804033538605950
0.211000000000000021,73.171760442266418067
0.212000000000000022,71.683736013912664475
0.213000000000000023,70.194109370131585024
0.214000000000000024,68.704101742696494171
0.215000000000000024,67.216824589323977079
0.216000000000000025,65.736413857941101924
0.217000000000000026,64.267317696466321308
0.218000000000000027,62.813759510007876941
0.219000000000000028,61.379371266016143238
0.220000000000000029,59.966977118697442961
0.221000000000000030,58.578500652604120091
0.222000000000000031,57.214967410379642843
0.223000000000000032,55.876575828908755739
0.224000000000000032,54.562812861900951589
0.225000000000000033,53.272594480595373057
0.226000000000000034,52.004415315861038493
0.227000000000000035,50.756495567084314757
0.228000000000000036,49.526916750853743565
0.229000000000000037,48.313740800305275513
0.230000000000000038,47.115109430614324992
0.231000000000000039,45.929322578840618974
0.232000000000000040,44.754896154342830528
0.233000000000000040,43.590600359370412775
0.234000000000000041,42.435480522543080895
0.235000000000000042,41.288862793784709027
0.236000000000000043,40.150347236302522447
0.237000000000000044,39.019790871388536857
0.238000000000000045,37.897283129983264871
0.239000000000000046,36.783115978663943224
0.240000000000000047,35.677750747690296862
0.241000000000000048,34.581783419406448843
0.242000000000000048,33.495909855556817547
0.243000000000000049,32.420892166086360930
0.244000000000000050,31.357527159932097049
0.245000000000000051,30.306617577049841827
0.246000000000000052,29.268946584717106418
0.247000000000000053,28.245255832173075561
0.248000000000000054,27.236227196491068270
0.249000000000000055,26.242468218631664456
0.250000000000000056,25.264501120463329187
0.251000000000000056,24.302755209163755978
0.252000000000000057,23.357562412489730974
0.253000000000000058,22.429155644413931725
0.254000000000000059,21.517669673019277354
0.255000000000000060,20.623144148821662469
0.256000000000000061,19.745528449487675715
0.257000000000000062,18.884688004029491992
0.258000000000000063,18.040411773996190448
0.259000000000000064,17.212420589159336259
0.260000000000000064,16.400376059148690899
0.261000000000000065,15.603889809085472962
0.262000000000000066,14.822532815343663515
0.263000000000000067,14.055844646197124703
0.264000000000000068,13.303342440508206579
0.265000000000000069,12.564529485164930733
0.266000000000000070,11.838903278209320646
0.267000000000000071,11.125962989161468641
0.268000000000000071,10.425216250692971087
0.269000000000000072,9.736185236379217400
0.270000000000000073,9.058411997685654526
0.271000000000000074,8.391463049599247270
0.272000000000000075,7.734933208433799834
0.273000000000000076,7.088448697389641673
0.274000000000000077,6.451669545532718431
0.275000000000000078,5.824291314100050521
0.276000000000000079,5.206046190575368549
0.277000000000000079,4.596703495955355656
0.278000000000000080,3.996069654199692511
0.279000000000000081,3.403987675172855720
0.280000000000000082,2.820336203597869851
0.281000000000000083,2.245028186791830027
0.282000000000000084,1.678009213381094211
0.283000000000000085,1.119255573928098046
0.284000000000000086,0.568772092561435905
0.285000000000000087,0.026589776400197707
0.286000000000000087,-0.507236673101726487
0.287000000000000088,-1.032631445700984640
0.288000000000000089,-1.549500266735981624
0.289000000000000090,-2.057733065507097781
0.290000000000000091,-2.557206636152129953
0.291000000000000092,-3.047787262812589937
0.292000000000000093,-3.529333284152667893
0.293000000000000094,-4.001697575480725355
0.294000000000000095,-4.464729929799923447
0.295000000000000095,-4.918279322056859471
0.296000000000000096,-5.362196043642596166
0.297000000000000097,-5.796333696817700165
0.298000000000000098,-6.220551041169196438
0.299000000000000099,-6.634713686458009185
0.300000000000000100,-7.038695628275938532
0.301000000000000101,-7.432380624803424318
0.302000000000000102,-7.815663414642100904
0.303000000000000103,-8.188450777198543307
0.304000000000000103,-8.550662438417774069
0.305000000000000104,-8.902231825819395539
0.306000000000000105,-9.243106677780639657
0.307000000000000106,-9.573249512849216103
0.308000000000000107,-9.892637965564560432
0.309000000000000108,-10.201264995827736826
0.310000000000000109,-10.499138979299631913
0.311000000000000110,-10.786283686631350065
0.312000000000000111,-11.062738159554426076
0.313000000000000111,-11.328556491985938948
0.314000000000000112,-11.583807524349332141
0.315000000000000113,-11.828574459281689712
0.316000000000000114,-12.062954406802528950
0.317000000000000115,-12.287057866865792377
0.318000000000000116,-12.501008157013817623
0.319000000000000117,-12.704940792606423727
0.320000000000000118,-12.899002826817300260
0.321000000000000119,-13.083352157280057071
0.322000000000000119,-13.258156805932349798
0.323000000000000120,-13.423594178255285669
0.324000000000000121,-13.579850307740992221
0.325000000000000122,-13.727119091047550015
0.326000000000000123,-13.865601518922877844
0.327000000000000124,-13.995504907599567446
0.328000000000000125,-14.117042134985794632
0.329000000000000126,-14.230430885604203439
0.330000000000000127,-14.335892907865281032
0.331000000000000127,-14.433653286904933211
0.332000000000000128,-14.523939735869930701
0.333000000000000129,-14.606981908201452924
0.334000000000000130,-14.683010733146105053
0.335000000000000131,-14.752257776418520763
0.336000000000000132,-14.814954627647727747
0.337000000000000133,-14.871332315964854942
0.338000000000000134,-14.921620754829831412
0.339000000000000135,-14.966048216951204353
0.340000000000000135,-15.004840839926293583
0.341000000000000136,-15.038222163017318067
0.342000000000000137,-15.066412695283892376
0.343000000000000138,-15.089629515112429559
0.344000000000000139,-15.108085901018574404
0.345000000000000140,-15.121990993448912732
0.346000000000000141,-15.131549487172653912
0.347000000000000142,-15.136961353732427682
0.348000000000000143,-15.138421593314840052
0.349000000000000143,-15.136120015305376540
0.350000000000000144,-15.130241046708595931
0.351000000000000145,-15.120963567541604533
0.352000000000000146,-15.108460772247440218
0.353000000000000147,-15.092900056122720898
0.354000000000000148,-15.074442925711972308
0.355000000000000149,-15.053244932087073593
0.356000000000000150,-15.029455625905239202
0.357000000000000151,-15.003218533120829647
0.358000000000000151,-14.974671150215579374
0.359000000000000152,-14.943944957807119067
0.360000000000000153,-14.911165451497414125
0.361000000000000154,-14.876452188828855228
0.362000000000000155,-14.839918851227679397
0.363000000000000156,-14.801673319829756537
0.364000000000000157,-14.761817764103483341
0.365000000000000158,-14.720448742207631554
0.366000000000000159,-14.677657312047614369
0.367000000000000159,-14.633529152022436648
0.368000000000000160,-14.588144690485298938
0.369000000000000161,-14.541579242973266872
0.370000000000000162,-14.493903156295806056
0.371000000000000163,-14.445181958607378192
0.372000000000000164,-14.395476514625503484
0.373000000000000165,-14.344843185193150603
0.374000000000000166,-14.293333990421720259
0.375000000000000167,-14.240996775688785192
0.376000000000000167,-14.187875379802870057
0.377000000000000168,-14.134009804685394585
0.378000000000000169,-14.079436385957299294
0.379000000000000170,-14.024187963855620609
0.380000000000000171,-13.968294053941260557
0.381000000000000172,-13.911781017095941948
0.382000000000000173,-13.854672228341025075
0.383000000000000174,-13.796988244045872207
0.384000000000000175,-13.738746967126479248
0.385000000000000175,-13.679963809868016966
0.386000000000000176,-13.620651854036401218
0.387000000000000177,-13.560822007974161707
0.388000000000000178,-13.500483160405845950
0.389000000000000179,-13.439642330705698470
0.390000000000000180,-13.378304815407876305
0.391000000000000181,-13.316474330765256440
0.392000000000000182,-13.254153151187372472
0.393000000000000183,-13.191342243411790847
0.394000000000000183,-13.128041396285373921
0.395000000000000184,-13.064249346053191658
0.396000000000000185,-12.999963897072721153
0.397000000000000186,-12.935182037889910944
0.398000000000000187,-12.869900052631431109
0.399000000000000188,-12.804113627684040821
0.400000000000000189,-12.737817953647633473
0.401000000000000190,-12.671007822562934564
0.402000000000000191,-12.603677720428589026
0.403000000000000191,-12.535821915034508933
0.404000000000000192,-12.467434539150385575
0.405000000000000193,-12.398509669118499943
0.406000000000000194,-12.329041398909984295
0.407000000000000195,-12.259023909712672307
0.408000000000000196,-12.188451535126342051
0.409000000000000197,-12.117318822049012894
0.410000000000000198,-12.045620587344219032
0.411000000000000199,-11.973351970384920051
0.412000000000000199,-11.900508481575219122
0.413000000000000200,-11.827086046955276544
0.414000000000000201,-11.753081048998936353
0.415000000000000202,-11.678490363716669265
0.416000000000000203,-11.603311394179527838
0.417000000000000204,-11.527542100581793960
0.418000000000000205,-11.451181026961972265
0.419000000000000206,-11.374227324703074515
0.420000000000000207,-11.296680772933898496
0.421000000000000207,-11.218541795953889562
0.422000000000000208,-11.139811477803743145
0.423000000000000209,-11.060491574104345247
0.424000000000000210,-10.980584521285653210
0.425000000000000211,-10.900093443326456466
0.426000000000000212,-10.819022156125058132
0.427000000000000213,-10.737375169619189919
0.428000000000000214,-10.655157687772447872
0.429000000000000214,-10.572375606542266269
0.430000000000000215,-10.489035509942786106
0.431000000000000216,-10.405144664314033065
0.432000000000000217,-10.320711010906006067
0.433000000000000218,-10.235743156884534955
0.434000000000000219,-10.150250364862746011
0.435000000000000220,-10.064242541059883251
0.436000000000000221,-9.977730222185885012
0.437000000000000222,-9.890724561148021010
0.438000000000000222,-9.803237311672642562
0.439000000000000223,-9.715280811932405669
0.440000000000000224,-9.626867967266342418
0.441000000000000225,-9.538012232077219821
0.442000000000000226,-9.448727590987832770
0.443000000000000227,-9.359028539334600438
0.444000000000000228,-9.268930063074193981
0.445000000000000229,-9.178447618175804124
0.446000000000000230,-9.087597109568585907
0.447000000000000230,-8.996394869711341613
0.448000000000000231,-8.904857636848047875
0.449000000000000232,-8.813002533010289241
0.450000000000000233,-8.720847041824958623
0.451000000000000234,-8.628408986182366291
0.452000000000000235,-8.535706505817625356
0.453000000000000236,-8.442758034855138760
0.454000000000000237,-8.349582279363655601
0.455000000000000238,-8.256198194966524184
0.456000000000000238,-8.162624964549458184
0.457000000000000239,-8.068881976105533482
0.458000000000000240,-7.974988800754870155
0.459000000000000241,-7.880965170973799339
0.460000000000000242,-7.786830959066636915
0.461000000000000243,-7.692606155910169718
0.462000000000000244,-7.598310849999729832
0.463000000000000245,-7.503965206822677203
0.464000000000000246,-7.409589448584080529
0.465000000000000246,-7.315203834306683639
0.466000000000000247,-7.220828640325788861
0.467000000000000248,-7.126484141197667377
0.468000000000000249,-7.032190591038653515
0.469000000000000250,-6.937968205309981151
0.470000000000000251,-6.843837143062283523
0.471000000000000252,-6.749817489651675828
0.472000000000000253,-6.655929239938376263
0.473000000000000254,-6.562192281976853891
0.474000000000000254,-6.468626381205657694
0.475000000000000255,-6.375251165143370535
0.476000000000000256,-6.282086108596211638
0.477000000000000257,-6.189150519381523274
0.478000000000000258,-6.096463524570129522
0.479000000000000259,-6.004044057249851463
0.480000000000000260,-5.911910843811068794
0.481000000000000261,-5.820082391754509032
0.482000000000000262,-5.728576978020541333
0.483000000000000262,-5.637412637838361995
0.484000000000000263,-5.546607154092548342
0.485000000000000264,-5.456178047204030435
0.486000000000000265,-5.366142565521482055
0.487000000000000266,-5.276517676218683839
0.488000000000000267,-5.187320056692760417
0.489000000000000268,-5.098566086457650748
0.490000000000000269,-5.010271839526494020
0.491000000000000270,-4.922453077276418121
0.492000000000000270,-4.835125241788395201
0.493000000000000271,-4.748303449654803998
0.494000000000000272,-4.662002486246665356
0.495000000000000273,-4.576236800432208263
0.496000000000000274,-4.491020499738421101
0.497000000000000275,-4.406367345946438974
0.498000000000000276,-4.322290751111830254
0.499000000000000277,-4.238803774000439617
0.500000000000000222,-4.155919116930069990
0.501000000000000334,-4.073649123008551420
0.502000000000000224,-3.992005773758188436
0.503000000000000336,-3.911000687116536589
0.504000000000000226,-3.830645115803728462
0.505000000000000338,-3.750949946045720740
0.506000000000000227,-3.671925696643847825
0.507000000000000339,-3.593582518379775159
0.508000000000000229,-3.515930193746189758
0.509000000000000341,-3.438978136992360213
0.510000000000000231,-3.362735394474935191
0.511000000000000343,-3.287210645303054068
0.512000000000000233,-3.212412202268177364
0.513000000000000345,-3.138348013047955298
0.514000000000000234,-3.065025661674634083
0.515000000000000346,-2.992452370257282723
0.516000000000000236,-2.920635000948663240
0.517000000000000348,-2.849580058146297112
0.518000000000000238,-2.779293690918517079
0.519000000000000350,-2.709781695645468780
0.520000000000000240,-2.641049518865992152
0.521000000000000352,-2.573102260320749846
0.522000000000000242,-2.505944676182620956
0.523000000000000353,-2.439581182465082154
0.524000000000000243,-2.374015858599950679
0.525000000000000355,-2.309252451175459964
0.526000000000000245,-2.245294377826382082
0.527000000000000357,-2.182144731267430249
0.528000000000000247,-2.119806283462090324
0.529000000000000359,-2.058281489918404983
0.530000000000000249,-1.997572494104154162
0.531000000000000361,-1.937681131973396420
0.532000000000000250,-1.878608936597139900
0.533000000000000362,-1.820357142890411506
0.534000000000000252,-1.762926692428903319
0.535000000000000364,-1.706318238347846350
0.536000000000000254,-1.650532150316643465
0.537000000000000366,-1.595568519582175826
0.538000000000000256,-1.541427164074852030
0.539000000000000368,-1.488107633570566746
0.540000000000000258,-1.435609214903023512
0.541000000000000369,-1.383930937219948643
0.542000000000000259,-1.333071577278009734
0.543000000000000371,-1.283029664770410694
0.544000000000000261,-1.233803487682118005
0.545000000000000373,-1.185391097667305882
0.546000000000000263,-1.137790315444186628
0.547000000000000375,-1.090998736202052344
0.548000000000000265,-1.045013735016326883
0.549000000000000377,-0.999832472266554140
0.550000000000000266,-0.955451899053459952
0.551000000000000378,-0.911868762610545724
0.552000000000000268,-0.869079611706428778
0.553000000000000380,-0.827080802033866691
0.554000000000000270,-0.785868501581965417
0.555000000000000382,-0.745438695987753031
0.556000000000000272,-0.705787193864018891
0.557000000000000384,-0.666909632099822791
0.558000000000000274,-0.628801481130900397
0.559000000000000385,-0.591458050176659422
0.560000000000000275,-0.554874492441250311
0.561000000000000387,-0.519045810275742925
0.562000000000000277,-0.483966860299032908
0.563000000000000389,-0.449632358474931493
0.564000000000000279,-0.416036885143223123
0.565000000000000391,-0.383174890002417334
0.566000000000000281,-0.351040697042210303
0.567000000000000393,-0.319628509423639073
0.568000000000000282,-0.288932414305234420
0.569000000000000394,-0.258946387613232076
0.570000000000000284,-0.229664298754512108
0.571000000000000396,-0.201079915270496956
0.572000000000000286,-0.173186907430877973
0.573000000000000398,-0.145978852765585781
0.574000000000000288,-0.119449240534072090
0.575000000000000400,-0.093591476130637147
0.576000000000000290,-0.068398885424836048
0.577000000000000401,-0.043864719036036504
0.578000000000000291,-0.019982156541327865
0.579000000000000403,0.003255689384076255
0.580000000000000293,0.025855768894461971
0.581000000000000405,0.047825090970030605
0.582000000000000295,0.069170719482468404
0.583000000000000407,0.089899769330259532
0.584000000000000297,0.110019402644005421
0.585000000000000409,0.129536825062146588
0.586000000000000298,0.148459282077265942
0.587000000000000410,0.166794055453217543
0.588000000000000300,0.184548459713135160
0.589000000000000412,0.201729838698480490
0.590000000000000302,0.218345562199037335
0.591000000000000414,0.234403022653854626
0.592000000000000304,0.249909631923074110
0.593000000000000416,0.264872818130452548
0.594000000000000306,0.279300022576372708
0.595000000000000417,0.293198696721175600
0.596000000000000307,0.306576299238484729
0.597000000000000419,0.319440293138198050
0.598000000000000309,0.331798142958790121
0.599000000000000421,0.343657312028597062
0.600000000000000311,0.355025259795519188
0.601000000000000423,0.365909439224825384
0.602000000000000313,0.376317294264403857
0.603000000000000425,0.386256257377135981
0.604000000000000314,0.395733747139573155
0.605000000000000426,0.404757165906612648
0.606000000000000316,0.413333897541326156
0.607000000000000428,0.421471305209493607
0.608000000000000318,0.429176729238038124
0.609000000000000430,0.436457485036802262
0.610000000000000320,0.443320861082894868
0.611000000000000432,0.449774116966930204
0.612000000000000322,0.455824481500422707
0.613000000000000433,0.461479150883579159
0.614000000000000323,0.466745286932737702
0.615000000000000435,0.471630015366670652
0.616000000000000325,0.476140424150976738
0.617000000000000437,0.480283561899745692
0.618000000000000327,0.484066436333692895
0.619000000000000439,0.487496012793967815
0.620000000000000329,0.490579212810768439
0.621000000000000441,0.493322912725950857
0.622000000000000330,0.495733942368809632
0.623000000000000442,0.497819083784144578
0.624000000000000332,0.499585070011812515
0.625000000000000444,0.501038583916841418
0.626000000000000334,0.502186257069341835
0.627000000000000446,0.503034668673252972
0.628000000000000336,0.503590344543157764
0.629000000000000448,0.503859756128237968
0.630000000000000338,0.503849319582533317
0.631000000000000449,0.503565394880636896
0.632000000000000339,0.503014284977988391
0.633000000000000451,0.502202235014857390
0.634000000000000341,0.501135431563219269
0.635000000000000453,0.499820001915590340
0.636000000000000343,0.498262013415099680
0.637000000000000455,0.496467472825771750
0.638000000000000345,0.494442325742349031
0.639000000000000457,0.492192456038702819
0.640000000000000346,0.489723685354051086
0.641000000000000458,0.487041772616119140
0.642000000000000348,0.484152413600470399
0.643000000000000460,0.481061240525126277
0.644000000000000350,0.477773821679725319
0.645000000000000462,0.474295661088360909
0.646000000000000352,0.470632198205363728
0.647000000000000464,0.466788807643175319
0.648000000000000353,0.462770798931580962
0.649000000000000465,0.458583416307487446
0.650000000000000355,0.454231838534521704
0.651000000000000467,0.449721178751651074
0.652000000000000357,0.445056484350106252
0.653000000000000469,0.440242736877838658
0.654000000000000359,0.435284851970808073
0.655000000000000471,0.430187679310364668
0.656000000000000361,0.424956002606000305
0.657000000000000473,0.419594539602776984
0.658000000000000362,0.414107942112733884
0.659000000000000474,0.408500796069595939
0.660000000000000364,0.402777621606081659
0.661000000000000476,0.396942873153157127
0.662000000000000366,0.391000939560613769
