# tri-graphene_CS-6110-AC
# h[nm],U(h)[kJ/mol]
0.200000000000000011,55.723651401079564494
0.201000000000000012,52.485621148950031056
0.202000000000000013,50.798957642470135454
0.203000000000000014,49.809433328268831076
0.204000000000000015,49.037156330424913619
0.205000000000000016,48.239586954418783193
0.206000000000000016,47.318202444036863596
0.207000000000000017,46.256311596798944663
0.208000000000000018,45.078815773736280903
0.209000000000000019,43.827192844849861331
0.210000000000000020,42.544837593061387793
0.211000000000000021,41.269274428456455439
0.212000000000000022,40.028780382808662353
0.213000000000000023,38.841706299710757833
0.214000000000000024,37.717329436237498896
0.215000000000000024,36.657462976245852815
0.216000000000000025,35.658326552608102133
0.217000000000000026,34.712376624914540457
0.218000000000000027,33.809928995923804962
0.219000000000000028,32.940494805872333473
0.220000000000000029,32.093808664811675158
0.221000000000000030,31.260562550547962957
0.222000000000000031,30.432878617483567041
0.223000000000000032,29.604563163165174444
0.224000000000000032,28.771186313278661828
0.225000000000000033,27.930030092333595348
0.226000000000000034,27.079943249528195537
0.227000000000000035,26.221135739591296954
0.228000000000000036,25.354939933848239519
0.229000000000000037,24.483559976110257139
0.230000000000000038,23.609825508890509127
0.231000000000000039,22.736961439045451527
0.232000000000000040,21.868381550276119185
0.233000000000000040,21.007510600392496514
0.234000000000000041,20.157637021260065069
0.235000000000000042,19.321796403753726423
0.236000000000000043,18.502684523114510284
0.237000000000000044,17.702597663603548028
0.238000000000000045,16.923397359704146936
0.239000000000000046,16.166496314565716119
0.240000000000000047,15.432862122606445965
0.241000000000000048,14.723035458059580805
0.242000000000000048,14.037159548797504272
0.243000000000000049,13.375017996824732691
0.244000000000000050,12.736078302359439718
0.245000000000000051,12.119538772735738874
0.246000000000000052,11.524376831321138326
0.247000000000000053,10.949397070830176659
0.248000000000000054,10.393277709370824624
0.249000000000000055,9.854614399082436194
0.250000000000000056,9.331960601740215466
0.251000000000000056,8.823863980727356449
0.252000000000000057,8.328898463438338950
0.253000000000000058,7.845691802823919758
0.254000000000000059,7.372948612651495814
0.255000000000000060,6.909468969987301534
0.256000000000000061,6.454162772657722869
0.257000000000000062,6.006060111493637166
0.258000000000000063,5.564317969571773048
0.259000000000000064,5.128223596000323070
0.260000000000000064,4.697194922525559591
0.261000000000000065,4.270778399700306593
0.262000000000000066,3.848644627714802535
0.263000000000000067,3.430582147219165101
0.264000000000000068,3.016489739327600006
0.265000000000000069,2.606367563049428071
0.266000000000000070,2.200307434001321560
0.267000000000000071,1.798482521584848781
0.268000000000000071,1.401136713854520988
0.269000000000000072,1.008573870874798439
0.270000000000000073,0.621147159144851080
0.271000000000000074,0.239248632195346062
0.272000000000000075,-0.136700803848535918
0.273000000000000076,-0.506260925771880310
0.274000000000000077,-0.868981138998984770
0.275000000000000078,-1.224408763967691716
0.276000000000000079,-1.572096612894060552
0.277000000000000079,-1.911609824023334125
0.278000000000000080,-2.242531935851701963
0.279000000000000081,-2.564470197279280494
0.280000000000000082,-2.877060121289092720
0.281000000000000083,-3.179969299636609570
0.282000000000000084,-3.472900504287586010
0.283000000000000085,-3.755594108078558868
0.284000000000000086,-4.027829862419999074
0.285000000000000087,-4.289428073943616582
0.286000000000000087,-4.540250224941087431
0.287000000000000088,-4.780199084376270946
0.288000000000000089,-5.009218357297119617
0.289000000000000090,-5.227291920743163622
0.290000000000000091,-5.434442693846976979
0.291000000000000092,-5.630731188866915815
0.292000000000000093,-5.816253788455378881
0.293000000000000094,-5.991140792649846780
0.294000000000000095,-6.155554276950159220
0.295000000000000095,-6.309685800486387386
0.296000000000000096,-6.453754000749329478
0.297000000000000097,-6.588002108707010862
0.298000000000000098,-6.712695415413780786
0.299000000000000099,-6.828118718476977378
0.300000000000000100,-6.934573774015666103
0.301000000000000101,-7.032376777058179762
0.302000000000000102,-7.121855890705582226
0.303000000000000103,-7.203348841858824514
0.304000000000000103,-7.277200598884126848
0.305000000000000104,-7.343761144288838416
0.306000000000000105,-7.403383353307633641
0.307000000000000106,-7.456420987263676636
0.308000000000000107,-7.503226808676236814
0.309000000000000108,-7.544150823336709166
0.310000000000000109,-7.579538652969818990
0.311000000000000110,-7.609730040634126169
0.312000000000000111,-7.635057489693709343
0.313000000000000111,-7.655845036006134308
0.314000000000000112,-7.672407151916698531
0.315000000000000113,-7.685047779718996885
0.316000000000000114,-7.694059491431685771
0.317000000000000115,-7.699722771043447267
0.318000000000000116,-7.702305414786654758
0.319000000000000117,-7.702062044507290928
0.320000000000000118,-7.699233728797652887
0.321000000000000119,-7.694047706241901707
0.322000000000000119,-7.686717204885916033
0.323000000000000120,-7.677441351874816355
0.324000000000000121,-7.666405167097996909
0.325000000000000122,-7.653779634635498041
0.326000000000000123,-7.639721845805278910
0.327000000000000124,-7.624375207662369647
0.328000000000000125,-7.607869710893028881
0.329000000000000126,-7.590322251173570400
0.330000000000000127,-7.571836998220875969
0.331000000000000127,-7.552505806944445510
0.332000000000000128,-7.532408665314001439
0.333000000000000129,-7.511614173778676573
0.334000000000000130,-7.490180051309602405
0.335000000000000131,-7.468153663384617502
0.336000000000000132,-7.445572567488019544
0.337000000000000133,-7.422465071958216143
0.338000000000000134,-7.398850804278294113
0.339000000000000135,-7.374741285167681681
0.340000000000000135,-7.350140505094620025
0.341000000000000136,-7.325045500087941086
0.342000000000000137,-7.299446923980893231
0.343000000000000138,-7.273329614468332593
0.344000000000000139,-7.246673150600377866
0.345000000000000140,-7.219452399569836309
0.346000000000000141,-7.191638050876353994
0.347000000000000142,-7.163197136166855827
0.348000000000000143,-7.134093533259291853
0.349000000000000143,-7.104288453053628771
0.350000000000000144,-7.073740908221637369
0.351000000000000145,-7.042408162743678979
0.352000000000000146,-7.010246161527509123
0.353000000000000147,-6.977209939500275127
0.354000000000000148,-6.943254009711031571
0.355000000000000149,-6.908332730116997666
0.356000000000000150,-6.872400648852709182
0.357000000000000151,-6.835412827897670240
0.358000000000000151,-6.797325145164778704
0.359000000000000152,-6.758094575129611314
0.360000000000000153,-6.717679448209542770
0.361000000000000154,-6.676039689181999748
0.362000000000000155,-6.633137035003461968
0.363000000000000156,-6.588935232455355617
0.364000000000000157,-6.543400216099934497
0.365000000000000158,-6.496500267079698077
0.366000000000000159,-6.448206153336994539
0.367000000000000159,-6.398491251867962859
0.368000000000000160,-6.347331653656350881
0.369000000000000161,-6.294706251958507082
0.370000000000000162,-6.240596814631707900
0.371000000000000163,-6.184988041214097620
0.372000000000000164,-6.127867605475854518
0.373000000000000165,-6.069226184169007610
0.374000000000000166,-6.009057472706867742
0.375000000000000167,-5.947358188504479948
0.376000000000000167,-5.884128062708657403
0.377000000000000168,-5.819369821040480950
0.378000000000000169,-5.753089154464872124
0.379000000000000170,-5.685294680391487887
0.380000000000000171,-5.615997895098195691
0.381000000000000172,-5.545213118054411083
0.382000000000000173,-5.472957428805012903
0.383000000000000174,-5.399250597058627754
0.384000000000000175,-5.324115006604898781
0.385000000000000175,-5.247575573666048321
0.386000000000000176,-5.169659660267350354
0.387000000000000177,-5.090396983189815039
0.388000000000000178,-5.009819519046890157
0.389000000000000179,-4.927961406004385481
0.390000000000000180,-4.844858842640829444
0.391000000000000181,-4.760549984422348224
0.392000000000000182,-4.675074838243935105
0.393000000000000183,-4.588475155465827626
0.394000000000000183,-4.500794323851563306
0.395000000000000184,-4.412077258791724077
0.396000000000000185,-4.322370294175262195
0.397000000000000186,-4.231721073248788656
0.398000000000000187,-4.140178439782532749
0.399000000000000188,-4.047792329841000125
0.400000000000000189,-3.954613664435890463
0.401000000000000190,-3.860694243318683050
0.402000000000000191,-3.766086640151408371
0.403000000000000191,-3.670844099274801042
0.404000000000000192,-3.575020434275263170
0.405000000000000193,-3.478669928534280587
0.406000000000000194,-3.381847237927100736
0.407000000000000195,-3.284607295821238893
0.408000000000000196,-3.187005220509593340
0.409000000000000197,-3.089096225198124213
0.410000000000000198,-2.990935530653770602
0.411000000000000199,-2.892578280604408913
0.412000000000000199,-2.794079459969837309
0.413000000000000200,-2.695493815990382291
0.414000000000000201,-2.596875782307932479
0.415000000000000202,-2.498279406043073969
0.416000000000000203,-2.399758277901740122
0.417000000000000204,-2.301365465334533678
0.418000000000000205,-2.203153448763000899
0.419000000000000206,-2.105174060878171716
0.420000000000000207,-2.007478429008478393
0.421000000000000207,-1.910116920546917285
0.422000000000000208,-1.813139091419713411
0.423000000000000209,-1.716593637572709552
0.424000000000000210,-1.620528349445244487
0.425000000000000211,-1.524990069395870895
0.426000000000000212,-1.430024652039112443
0.427000000000000213,-1.335676927447674966
0.428000000000000214,-1.241990667170423723
0.429000000000000214,-1.149008553012338840
0.430000000000000215,-1.056772148519343757
0.431000000000000216,-0.965321873107851558
0.432000000000000217,-0.874696978775792666
0.433000000000000218,-0.784935529329868653
0.434000000000000219,-0.696074382061354635
0.435000000000000220,-0.608149171801141031
0.436000000000000221,-0.521194297283087860
0.437000000000000222,-0.435242909743526751
0.438000000000000222,-0.350326903683825797
0.439000000000000223,-0.266476909722043687
0.440000000000000224,-0.183722289459264332
0.441000000000000225,-0.102091132285746025
0.442000000000000226,-0.021610254052158405
0.443000000000000227,0.057694802469159666
0.444000000000000228,0.135799765407410622
0.445000000000000229,0.212681629975339875
0.446000000000000230,0.288318653083718512
0.447000000000000230,0.362690346461390700
0.448000000000000231,0.435777468353153619
0.449000000000000232,0.507562013866856176
0.450000000000000233,0.578027204040054032
0.451000000000000234,0.647157473695530117
0.452000000000000235,0.714938458153714818
0.453000000000000236,0.781356978868897878
0.454000000000000237,0.846401028054615701
0.455000000000000238,0.910059752362426644
0.456000000000000238,0.972323435676595738
0.457000000000000239,1.033183481085995892
0.458000000000000240,1.092632392092648841
0.459000000000000241,1.150663753115185539
0.460000000000000242,1.207272209343458247
0.461000000000000243,1.262453445999332402
0.462000000000000244,1.316204167056687746
0.463000000000000245,1.368522073472355105
0.464000000000000246,1.419405840977732813
0.465000000000000246,1.468855097479377037
0.466000000000000247,1.516870400115151840
0.467000000000000248,1.563453212010843085
0.468000000000000249,1.608605878780451137
0.469000000000000250,1.652331604811858146
0.470000000000000251,1.694634429377788631
0.471000000000000252,1.735519202610524392
0.472000000000000253,1.774991561377070370
0.473000000000000254,1.813057905090052602
0.474000000000000254,1.849725371487983994
0.475000000000000255,1.885001812417014033
0.476000000000000256,1.918895769644841209
0.477000000000000257,1.951416450735872887
0.478000000000000258,1.982573705015409526
0.479000000000000259,2.012377999649114901
0.480000000000000260,2.040840395862665080
0.481000000000000261,2.067972525325191491
0.482000000000000262,2.093786566718649933
0.483000000000000262,2.118295222514158915
0.484000000000000263,2.141511695974914531
0.485000000000000264,2.163449668404219928
0.486000000000000265,2.184123276655827173
0.487000000000000266,2.203547090922767460
0.488000000000000267,2.221736092819689645
0.489000000000000268,2.238705653772542270
0.490000000000000269,2.254471513728593113
0.491000000000000270,2.269049760198508014
0.492000000000000270,2.282456807641485064
0.493000000000000271,2.294709377203263845
0.494000000000000272,2.305824476816106028
0.495000000000000273,2.315819381668824839
0.496000000000000274,2.324711615054145142
0.497000000000000275,2.332518929599928015
0.498000000000000276,2.339259288889830923
0.499000000000000277,2.344950849478462551
0.500000000000000222,2.349611943305139228
0.501000000000000334,2.353261060509840963
0.502000000000000224,2.355916832654164406
0.503000000000000336,2.357598016349573555
0.504000000000000226,2.358323477294509640
0.505000000000000338,2.358112174721481491
0.506000000000000227,2.356983146254559180
0.507000000000000339,2.354955493177359749
0.508000000000000229,2.352048366110952138
0.509000000000000341,2.348280951100712777
0.510000000000000231,2.343672456110736491
0.511000000000000343,2.338242097923949103
0.512000000000000233,2.332009089445719052
0.513000000000000345,2.324992627408302148
0.514000000000000234,2.317211880473210694
0.515000000000000346,2.308685977728205607
0.516000000000000236,2.299433997575322852
0.517000000000000348,2.289474957005989797
0.518000000000000238,2.278827801259196484
0.519000000000000350,2.267511393858151258
0.520000000000000240,2.255544507020940337
0.521000000000000352,2.242945812440191311
0.522000000000000242,2.229733872426828523
0.523000000000000353,2.215927131412504636
0.524000000000000243,2.201543907805494804
0.525000000000000355,2.186602386194329561
0.526000000000000245,2.171120609893589570
0.527000000000000357,2.155116473825939849
0.528000000000000247,2.138607717734560598
0.529000000000000359,2.121611919719880834
0.530000000000000249,2.104146490094536581
0.531000000000000361,2.086228665550316386
0.532000000000000250,2.067875503630911549
0.533000000000000362,2.049103877504053095
0.534000000000000252,2.029930471026853755
0.535000000000000364,2.010371774097723829
0.536000000000000254,1.990444078288748475
0.537000000000000366,1.970163472751812694
0.538000000000000256,1.949545840392288287
0.539000000000000368,1.928606854303656748
0.540000000000000258,1.907361974456811993
0.541000000000000369,1.885826444637458632
0.542000000000000259,1.864015289625435390
0.543000000000000371,1.841943312609384931
0.544000000000000261,1.819625092830606805
0.545000000000000373,1.797074983449725938
0.546000000000000263,1.774307109630014478
0.547000000000000375,1.751335366831024087
0.548000000000000265,1.728173419306632042
0.549000000000000377,1.704834698801146686
0.550000000000000266,1.681332403437732381
0.551000000000000378,1.657679496792950236
0.552000000000000268,1.633888707151749831
0.553000000000000380,1.609972526936938708
0.554000000000000270,1.585943212307537653
0.555000000000000382,1.561812782920220410
0.556000000000000272,1.537593021848428831
0.557000000000000384,1.513295475653524846
0.558000000000000274,1.488931454602672844
0.559000000000000385,1.464512033028078086
0.560000000000000275,1.440048049822399090
0.561000000000000387,1.415550109065112583
0.562000000000000277,1.391028580774914314
0.563000000000000389,1.366493601783022482
0.564000000000000279,1.341955076722695539
0.565000000000000391,1.317422679130024532
0.566000000000000281,1.292905852651495824
0.567000000000000393,1.268413812353559766
0.568000000000000282,1.243955546129881906
0.569000000000000394,1.219539816201724580
0.570000000000000284,1.195175160707356188
0.571000000000000396,1.170869895376036585
0.572000000000000286,1.146632115282717912
0.573000000000000398,1.122469696679255335
0.574000000000000288,1.098390298898358264
0.575000000000000400,1.074401366326291241
0.576000000000000290,1.050510130440807766
0.577000000000000401,1.026723611910437706
0.578000000000000291,1.003048622751790075
0.579000000000000403,0.979491768541278063
0.580000000000000293,0.956059450678009903
0.581000000000000405,0.932757868694416681
0.582000000000000295,0.909593022611670521
0.583000000000000407,0.886570715336511439
0.584000000000000297,0.863696555096756469
0.585000000000000409,0.840975957912303507
0.586000000000000298,0.818414150099053606
0.587000000000000410,0.796016170802727574
0.588000000000000300,0.773786874560174587
0.589000000000000412,0.751730933885333519
0.590000000000000302,0.729852841877563496
0.591000000000000414,0.708156914849701669
0.592000000000000304,0.686647294973700695
0.593000000000000416,0.665327952941389356
0.594000000000000306,0.644202690638298714
0.595000000000000417,0.623275143828303291
0.596000000000000307,0.602548784847171670
0.597000000000000419,0.582026925302880360
0.598000000000000309,0.561712718780893128
0.599000000000000421,0.541609163552547512
0.600000000000000311,0.521719105284731310
0.601000000000000423,0.502045239749142391
0.602000000000000313,0.482590115529581865
0.603000000000000425,0.463356136725524226
0.604000000000000314,0.444345565650647756
0.605000000000000426,0.425560525524668332
0.606000000000000316,0.407003003157258014
0.607000000000000428,0.388674851622562767
0.608000000000000318,0.370577792923131477
0.609000000000000430,0.352713420641944719
0.610000000000000320,0.335083202581485273
0.611000000000000432,0.317688483388556819
0.612000000000000322,0.300530487163981008
0.613000000000000433,0.283610320055966814
0.614000000000000323,0.266928972836308731
0.615000000000000435,0.250487323458403466
0.616000000000000325,0.234286139596304954
0.617000000000000437,0.218326081163847385
0.618000000000000327,0.202607702813196955
0.619000000000000439,0.187131456411964020
0.620000000000000329,0.171897693498250570
0.621000000000000441,0.156906667712923997
0.622000000000000330,0.142158537208523977
0.623000000000000442,0.127653367034162940
0.624000000000000332,0.113391131495977418
0.625000000000000444,0.099371716492456824
0.626000000000000334,0.085594921824349995
0.627000000000000446,0.072060463478544029
0.628000000000000336,0.058767975885624046
0.629000000000000448,0.045717014150647536
0.630000000000000338,0.032907056256872881
0.631000000000000449,0.020337505241998337
0.632000000000000339,0.008007691346763468
0.633000000000000451,-0.004083125864470049
0.634000000000000341,-0.015935755411293422
0.635000000000000453,-0.027551072833321706
0.636000000000000343,-0.038930018154755851
0.637000000000000455,-0.050073593877826582
0.638000000000000345,-0.060982863005020913
0.639000000000000457,-0.071658947090418285
0.640000000000000346,-0.082103024320053036
0.641000000000000458,-0.092316327621522559
0.642000000000000348,-0.102300142802753902
0.643000000000000460,-0.112055806720095810
0.644000000000000350,-0.121584705475623611
0.645000000000000462,-0.130888272643768067
0.646000000000000352,-0.139967987527126414
0.647000000000000464,-0.148825373441553166
0.648000000000000353,-0.157461996030326595
0.649000000000000465,-0.165879461607470885
0.650000000000000355,-0.174079415530010662
0.651000000000000467,-0.182063540599172624
0.652000000000000357,-0.189833555490355493
0.653000000000000469,-0.197391213211759148
0.654000000000000359,-0.204738299591554040
0.655000000000000471,-0.211876631793423476
0.656000000000000361,-0.218808056860312572
0.657000000000000473,-0.225534450286256627
0.658000000000000362,-0.232057714616046573
0.659000000000000474,-0.238379778072601300
0.660000000000000364,-0.244502593211793962
0.661000000000000476,-0.250428135604594704
0.662000000000000366,-0.256158402546229791
0.663000000000000478,-0.261695411792210952
0.664000000000000368,-0.267041200320948469
0.665000000000000480,-0.272197823122765581
0.666000000000000369,-0.277167352015007695
0.667000000000000481,-0.281951874483065634
