# tri-graphene_CS-6334-AC
# h[nm],U(h)[kJ/mol]
0.200000000000000011,45.000854218930058437
0.201000000000000012,43.879457968622247677
0.202000000000000013,42.536942129671231783
0.203000000000000014,41.133113042358544931
0.204000000000000015,39.745986525334942030
0.205000000000000016,38.405902885973809191
0.206000000000000016,37.117497028140412851
0.207000000000000017,35.873344523539955730
0.208000000000000018,34.662013035325294652
0.209000000000000019,33.472446194365751637
0.210000000000000020,32.296021662411419584
0.211000000000000021,31.127201665772815886
0.212000000000000022,29.963391019989124686
0.213000000000000023,28.804403053465183149
0.214000000000000024,27.651784141162806918
0.215000000000000024,26.508144998612579002
0.216000000000000025,25.376578214090123709
0.217000000000000026,24.260196901520799884
0.218000000000000027,23.161801622776646781
0.219000000000000028,22.083666591490239028
0.220000000000000029,21.027427827600163823
0.221000000000000030,19.994052665211444975
0.222000000000000031,18.983869911573346911
0.223000000000000032,17.996641686537088844
0.224000000000000032,17.031660642342679068
0.225000000000000033,16.087859283469743588
0.226000000000000034,15.163921104605634582
0.227000000000000035,14.258386023242309193
0.228000000000000036,13.369744988159965260
0.229000000000000037,12.496520651754245534
0.230000000000000038,11.637332602965949846
0.231000000000000039,10.790946895464182731
0.232000000000000040,9.956310514310041881
0.233000000000000040,9.132572051518986100
0.234000000000000041,8.319090255612243467
0.235000000000000042,7.515432328842825527
0.236000000000000043,6.721363910383834295
0.237000000000000044,5.936832641170429525
0.238000000000000045,5.161947087500116993
0.239000000000000046,4.396952631698914260
0.240000000000000047,3.642205739877151238
0.241000000000000048,2.898147805256563903
0.242000000000000048,2.165279553047735561
0.243000000000000049,1.444136788375931957
0.244000000000000050,0.735268078527308688
0.245000000000000051,0.039214788804314636
0.246000000000000052,-0.643506260223705384
0.247000000000000053,-1.312417376460278895
0.248000000000000054,-1.967091792399219496
0.249000000000000055,-2.607162733749559091
0.250000000000000056,-3.232329890599056288
0.251000000000000056,-3.842363473947246089
0.252000000000000057,-4.437106078053696834
0.253000000000000058,-5.016472593453111806
0.254000000000000059,-5.580448428644398717
0.255000000000000060,-6.129086302235450034
0.256000000000000061,-6.662501863469325158
0.257000000000000062,-7.180868389165068422
0.258000000000000063,-7.684410790608818154
0.259000000000000064,-8.173399146086536504
0.260000000000000064,-8.648141954647970309
0.261000000000000065,-9.108979285257170488
0.262000000000000066,-9.556275973493580267
0.263000000000000067,-9.990414996047476848
0.264000000000000068,-10.411791131912115915
0.265000000000000069,-10.820804998802191932
0.266000000000000070,-11.217857534214797255
0.267000000000000071,-11.603344972903196108
0.268000000000000071,-11.977654356485137654
0.269000000000000072,-12.341159596529683640
0.270000000000000073,-12.694218099778947106
0.271000000000000074,-13.037167953143958599
0.272000000000000075,-13.370325656715660756
0.273000000000000076,-13.693984385174053031
0.274000000000000077,-14.008412751567874466
0.275000000000000078,-14.313854042364905439
0.276000000000000079,-14.610525888823767460
0.277000000000000079,-14.898620336994337521
0.278000000000000080,-15.178304276892438551
0.279000000000000081,-15.449720190501128769
0.280000000000000082,-15.712987178107795216
0.281000000000000083,-15.968202222987409655
0.282000000000000084,-16.215441655482610628
0.283000000000000085,-16.454762779018288654
0.284000000000000086,-16.686205622432673579
0.285000000000000087,-16.909794785129570016
0.286000000000000087,-17.125541343886645507
0.287000000000000088,-17.333444792627709319
0.288000000000000089,-17.533494989027850863
0.289000000000000090,-17.725674084419257071
0.290000000000000091,-17.909958416061357411
0.291000000000000092,-18.086320343396216970
0.292000000000000093,-18.254730012398226791
0.293000000000000094,-18.415157034522980695
0.294000000000000095,-18.567572069043755789
0.295000000000000095,-18.711948299720980060
0.296000000000000096,-18.848262798768409709
0.297000000000000097,-18.976497772953152321
0.298000000000000098,-19.096641688389798475
0.299000000000000099,-19.208690272160254153
0.300000000000000100,-19.312647390310399231
0.301000000000000101,-19.408525803045442615
0.302000000000000102,-19.496347799070310458
0.303000000000000103,-19.576145712006237432
0.304000000000000103,-19.647962322664522361
0.305000000000000104,-19.711851151681024419
0.306000000000000105,-19.767876647617949715
0.307000000000000106,-19.816114276129365379
0.308000000000000107,-19.856650516173733223
0.309000000000000108,-19.889582769547168084
0.310000000000000109,-19.915019190214167111
0.311000000000000110,-19.933078440035735923
0.312000000000000111,-19.943889377546899055
0.313000000000000111,-19.947590686423435358
0.314000000000000112,-19.944330450208571648
0.315000000000000113,-19.934265679752314782
0.316000000000000114,-19.917561799654855292
0.317000000000000115,-19.894392099807028274
0.318000000000000116,-19.864937157892367026
0.319000000000000117,-19.829384238460598056
0.320000000000000118,-19.787926673907630715
0.321000000000000119,-19.740763232406440153
0.322000000000000119,-19.688097477530615009
0.323000000000000120,-19.630137124002068560
0.324000000000000121,-19.567093393679364510
0.325000000000000122,-19.499180375586952607
0.326000000000000123,-19.426614393470146069
0.327000000000000124,-19.349613384049124676
0.328000000000000125,-19.268396288839653607
0.329000000000000126,-19.183182462109186872
0.330000000000000127,-19.094191097247751543
0.331000000000000127,-19.001640673553598759
0.332000000000000128,-18.905748425165420201
0.333000000000000129,-18.806729833616891767
0.334000000000000130,-18.704798145245696617
0.335000000000000131,-18.600163914459439951
0.336000000000000132,-18.493034573643633678
0.337000000000000133,-18.383614030294083364
0.338000000000000134,-18.272102291766628923
0.339000000000000135,-18.158695117861402224
0.340000000000000135,-18.043583701296505239
0.341000000000000136,-17.926954375977146583
0.342000000000000137,-17.808988352830048996
0.343000000000000138,-17.689861482849863705
0.344000000000000139,-17.569744046892534328
0.345000000000000140,-17.448800571651787550
0.346000000000000141,-17.327189671165886153
0.347000000000000142,-17.205063913124742925
0.348000000000000143,-17.082569709180038586
0.349000000000000143,-16.959847228403042152
0.350000000000000144,-16.837030332986678616
0.351000000000000145,-16.714246535247866632
0.352000000000000146,-16.591616974954519037
0.353000000000000147,-16.469256415976712304
0.354000000000000148,-16.347273261244101406
0.355000000000000149,-16.225769584980135107
0.356000000000000150,-16.104841181178500165
0.357000000000000151,-15.984577627286999046
0.358000000000000151,-15.865062362069195956
0.359000000000000152,-15.746372776623166700
0.360000000000000153,-15.628580317550540002
0.361000000000000154,-15.511750601285552165
0.362000000000000155,-15.395943538614199397
0.363000000000000156,-15.281213468436453340
0.364000000000000157,-15.167609299849820204
0.365000000000000158,-15.055174661660368329
0.366000000000000159,-14.943948058456181016
0.367000000000000159,-14.833963032409346994
0.368000000000000160,-14.725248330004660602
0.369000000000000161,-14.617828072925977523
0.370000000000000162,-14.511721932365039933
0.371000000000000163,-14.406945306052119093
0.372000000000000164,-14.303509497341783785
0.373000000000000165,-14.201421895722603495
0.374000000000000166,-14.100686158153544980
0.375000000000000167,-14.001302390664841724
0.376000000000000167,-13.903267329695058407
0.377000000000000168,-13.806574522669844640
0.378000000000000169,-13.711214507361001225
0.379000000000000170,-13.617174989597199186
0.380000000000000171,-13.524441018929213243
0.381000000000000172,-13.432995161883829027
0.382000000000000173,-13.342817672470346224
0.383000000000000174,-13.253886659633181466
0.384000000000000175,-13.166178251372031127
0.385000000000000175,-13.079666755278314128
0.386000000000000176,-12.994324815263007977
0.387000000000000177,-12.910123564275741259
0.388000000000000178,-12.827032772839624286
0.389000000000000179,-12.745020993248648011
0.390000000000000180,-12.664055699297000146
0.391000000000000181,-12.584103421429997383
0.392000000000000182,-12.505129877226483615
0.393000000000000183,-12.427100097140856505
0.394000000000000183,-12.349978545450920109
0.395000000000000184,-12.273729236374020246
0.396000000000000185,-12.198315845329789298
0.397000000000000186,-12.123701815342245780
0.398000000000000187,-12.049850458587750168
0.399000000000000188,-11.976725053107948327
0.400000000000000189,-11.904288934718621817
0.401000000000000190,-11.832505584156272960
0.402000000000000191,-11.761338709514367551
0.403000000000000191,-11.690752324030158960
0.404000000000000192,-11.620710819291740989
0.405000000000000193,-11.551179033942325702
0.406000000000000194,-11.482122317965842484
0.407000000000000195,-11.413506592644187876
0.408000000000000196,-11.345298406281795423
0.409000000000000197,-11.277464985798355102
0.410000000000000198,-11.209974284294673907
0.411000000000000199,-11.142795024700424378
0.412000000000000199,-11.075896739615661346
0.413000000000000200,-11.009249807460804504
0.414000000000000201,-10.942825485051832501
0.415000000000000202,-10.876595936719104074
0.416000000000000203,-10.810534260089745828
0.417000000000000204,-10.744614508654215967
0.418000000000000205,-10.678811711238269666
0.419000000000000206,-10.613101888501722314
0.420000000000000207,-10.547462066585186591
0.421000000000000207,-10.481870288025621818
0.422000000000000208,-10.416305620060564152
0.423000000000000209,-10.350748160440227608
0.424000000000000210,-10.285179040865155997
0.425000000000000211,-10.219580428165725650
0.426000000000000212,-10.153935523338306623
0.427000000000000213,-10.088228558550770941
0.428000000000000214,-10.022444792228409227
0.429000000000000214,-9.956570502328812466
0.430000000000000215,-9.890592977912319839
0.431000000000000216,-9.824500509112080948
0.432000000000000217,-9.758282375605414671
0.433000000000000218,-9.691928833685453881
0.434000000000000219,-9.625431102029619268
0.435000000000000220,-9.558781346258646394
0.436000000000000221,-9.491972662377145653
0.437000000000000222,-9.424999059183921446
0.438000000000000222,-9.357855439737573278
0.439000000000000223,-9.290537581959847913
0.440000000000000224,-9.223042118456550753
0.441000000000000225,-9.155366515632902491
0.442000000000000226,-9.087509052177448865
0.443000000000000227,-9.019468796985627534
0.444000000000000228,-8.951245586591587866
0.445000000000000229,-8.882840002173695737
0.446000000000000230,-8.814253346196672112
0.447000000000000230,-8.745487618750491521
0.448000000000000231,-8.676545493643439855
0.449000000000000232,-8.607430294304004192
0.450000000000000233,-8.538145969543968761
0.451000000000000234,-8.468697069232041130
0.452000000000000235,-8.399088719925304147
0.453000000000000236,-8.329326600502930944
0.454000000000000237,-8.259416917844539796
0.455000000000000238,-8.189366382592869087
0.456000000000000238,-8.119182185038486210
0.457000000000000239,-8.048871971161771555
0.458000000000000240,-7.978443818865440740
0.459000000000000241,-7.907906214428487957
0.460000000000000242,-7.837268029210821219
0.461000000000000243,-7.766538496635332578
0.462000000000000244,-7.695727189472819418
0.463000000000000245,-7.624843997452667388
0.464000000000000246,-7.553899105221101529
0.465000000000000246,-7.482902970666491349
0.466000000000000247,-7.411866303629897068
0.467000000000000248,-7.340800045017229714
0.468000000000000249,-7.269715346328088579
0.469000000000000250,-7.198623549614521444
0.470000000000000251,-7.127536167881913798
0.471000000000000252,-7.056464865942436049
0.472000000000000253,-6.985421441730656156
0.473000000000000254,-6.914417808089187822
0.474000000000000254,-6.843465975031406856
0.475000000000000255,-6.772578032486974209
0.476000000000000256,-6.701766133534839298
0.477000000000000257,-6.631042478127438855
0.478000000000000258,-6.560419297308686559
0.479000000000000259,-6.489908837927620411
0.480000000000000260,-6.419523347848492101
0.481000000000000261,-6.349275061657369434
0.482000000000000262,-6.279176186864565246
0.483000000000000262,-6.209238890601359806
0.484000000000000263,-6.139475286808867338
0.485000000000000264,-6.069897423916213341
0.486000000000000265,-6.000517273004608576
0.487000000000000266,-5.931346716453274936
0.488000000000000267,-5.862397537062694397
0.489000000000000268,-5.793681407650160153
0.490000000000000269,-5.725209881112069077
0.491000000000000270,-5.656994380947114820
0.492000000000000270,-5.589046192233912080
0.493000000000000271,-5.521376453056532796
0.494000000000000272,-5.453996146370798215
0.495000000000000273,-5.386916092304033121
0.496000000000000274,-5.320146940880751352
0.497000000000000275,-5.253699165166310081
0.498000000000000276,-5.187583054820535722
0.499000000000000277,-5.121808710053067593
0.500000000000000222,-5.056386035971867088
0.501000000000000334,-4.991324737316423565
0.502000000000000224,-4.926634313566901291
0.503000000000000336,-4.862324054420238184
0.504000000000000226,-4.798403035624593471
0.505000000000000338,-4.734880115162694025
0.506000000000000227,-4.671763929775551105
0.507000000000000339,-4.609062891816902763
0.508000000000000229,-4.546785186429772807
0.509000000000000341,-4.484938769035548667
0.510000000000000231,-4.423531363126951277
0.511000000000000343,-4.362570458355278902
0.512000000000000233,-4.302063308903317562
0.513000000000000345,-4.242016932134481166
0.514000000000000234,-4.182438107509652170
0.515000000000000346,-4.123333375762273434
0.516000000000000236,-4.064709038323419676
0.517000000000000348,-4.006571156987567939
0.518000000000000238,-3.948925553810874955
0.519000000000000350,-3.891777811232935758
0.520000000000000240,-3.835133272413961514
0.521000000000000352,-3.778997041778724419
0.522000000000000242,-3.723373985759237392
0.523000000000000353,-3.668268733727866326
0.524000000000000243,-3.613685679113083804
0.525000000000000355,-3.559628980689796940
0.526000000000000245,-3.506102564036767344
0.527000000000000357,-3.453110123153236177
0.528000000000000247,-3.400655122227681293
0.529000000000000359,-3.348740797551025050
0.530000000000000249,-3.297370159567491577
0.531000000000000361,-3.246545995055806877
0.532000000000000250,-3.196270869434211015
0.533000000000000362,-3.146547129182235558
0.534000000000000252,-3.097376904373052131
0.535000000000000364,-3.048762111309706313
0.536000000000000254,-3.000704455259279424
0.537000000000000366,-2.953205433278583758
0.538000000000000256,-2.906266337125867238
0.539000000000000368,-2.859888256252315575
0.540000000000000258,-2.814072080868206704
0.541000000000000369,-2.768818505077789816
0.542000000000000259,-2.724128030078052820
0.543000000000000371,-2.680000967415821389
0.544000000000000261,-2.636437442298498190
0.545000000000000373,-2.593437396953381935
0.546000000000000263,-2.551000594031084923
0.547000000000000375,-2.509126620048185874
0.548000000000000265,-2.467814888865157208
0.549000000000000377,-2.427064645194815462
0.550000000000000266,-2.386874968137627118
0.551000000000000378,-2.347244774739543960
0.552000000000000268,-2.308172823568809928
0.553000000000000380,-2.269657718307800387
0.554000000000000270,-2.231697911356567143
0.555000000000000382,-2.194291707444412598
0.556000000000000272,-2.157437267246459900
0.557000000000000384,-2.121132611001752988
0.558000000000000274,-2.085375622130155371
0.559000000000000385,-2.050164050844800023
0.560000000000000275,-2.015495517757601274
0.561000000000000387,-1.981367517474880824
0.562000000000000277,-1.947777422180723805
0.563000000000000389,-1.914722485205483382
0.564000000000000279,-1.882199844577210346
0.565000000000000391,-1.850206526553645814
0.566000000000000281,-1.818739449132761976
0.567000000000000393,-1.787795425539709937
0.568000000000000282,-1.757371167688416502
0.569000000000000394,-1.727463289615761344
0.570000000000000284,-1.698068310886879262
0.571000000000000396,-1.669182659969695282
0.572000000000000286,-1.640802677577383850
0.573000000000000398,-1.612924619977044172
0.574000000000000288,-1.585544662263460802
0.575000000000000400,-1.558658901596483126
0.576000000000000290,-1.532263360400930363
0.577000000000000401,-1.506353989527800197
0.578000000000000291,-1.480926671375840220
0.579000000000000403,-1.455977222972372198
0.580000000000000293,-1.431501399012611753
0.581000000000000405,-1.407494894856491374
0.582000000000000295,-1.383953349482385686
0.583000000000000407,-1.360872348396866993
0.584000000000000297,-1.338247426500005055
0.585000000000000409,-1.316074070905500104
0.586000000000000298,-1.294347723715266962
0.587000000000000410,-1.273063784747846316
0.588000000000000300,-1.252217614220414443
0.589000000000000412,-1.231804535383862254
0.590000000000000302,-1.211819837110780451
0.591000000000000414,-1.192258776436020629
0.592000000000000304,-1.173116581049648222
0.593000000000000416,-1.154388451742099919
0.594000000000000306,-1.136069564801495124
0.595000000000000417,-1.118155074362941148
0.596000000000000307,-1.100640114709844797
0.597000000000000419,-1.083519802527222797
0.598000000000000309,-1.066789239107080345
0.599000000000000421,-1.050443512505842669
0.600000000000000311,-1.034477699654079652
0.601000000000000423,-1.018886868418528158
0.602000000000000313,-1.003666079616732043
0.603000000000000425,-0.988810388984307620
0.604000000000000314,-0.974314849095308078
0.605000000000000426,-0.960174511235685535
0.606000000000000316,-0.946384427230368530
0.607000000000000428,-0.932939651224046096
0.608000000000000318,-0.919835241416181892
0.609000000000000430,-0.907066261750446912
0.610000000000000320,-0.894627783559056033
0.611000000000000432,-0.882514887162315964
0.612000000000000322,-0.870722663423861398
0.613000000000000433,-0.859246215261933122
0.614000000000000323,-0.848080659117212088
0.615000000000000435,-0.837221126377596603
0.616000000000000325,-0.826662764760446533
0.617000000000000437,-0.816400739652738183
0.618000000000000327,-0.806430235409649976
0.619000000000000439,-0.796746456612063225
0.620000000000000329,-0.787344629283521114
0.621000000000000441,-0.778220002067139816
0.622000000000000330,-0.769367847363041868
0.623000000000000442,-0.760783462426811052
0.624000000000000332,-0.752462170429561206
0.625000000000000444,-0.744399321480153087
0.626000000000000334,-0.736590293610113300
0.627000000000000446,-0.729030493721851358
0.628000000000000336,-0.721715358500715443
0.629000000000000448,-0.714640355291473073
0.630000000000000338,-0.707800982939824630
0.631000000000000449,-0.701192772599462444
0.632000000000000339,-0.694811288505346569
0.633000000000000451,-0.688652128713701517
0.634000000000000341,-0.682710925809381530
0.635000000000000453,-0.676983347581160189
0.636000000000000343,-0.671465097665519095
0.637000000000000455,-0.666151916159584800
0.638000000000000345,-0.661039580203716559
0.639000000000000457,-0.656123904534392399
0.640000000000000346,-0.651400742007955724
0.641000000000000458,-0.646865984095802871
0.642000000000000348,-0.642515561351594156
0.643000000000000460,-0.638345443851063954
0.644000000000000350,-0.634351641605019778
0.645000000000000462,-0.630530204946073369
0.646000000000000352,-0.626877224889698326
0.647000000000000464,-0.623388833470157278
0.648000000000000353,-0.620061204051886916
0.649000000000000465,-0.616890551616857352
0.650000000000000355,-0.613873133028507545
0.651000000000000467,-0.611005247272748298
0.652000000000000357,-0.608283235676630563
0.653000000000000469,-0.605703482105165114
0.654000000000000359,-0.603262413136881892
0.655000000000000471,-0.600956498218585766
0.656000000000000361,-0.598782249799904465
0.657000000000000473,-0.596736223448088521
0.658000000000000362,-0.594815017943602808
0.659000000000000474,-0.593015275356991611
