# tri-graphene_CS-5894-AC
# h[nm],U(h)[kJ/mol]
0.149999999999999994,93.364071590358008734
0.150999999999999995,90.122538632647703594
0.151999999999999996,87.741827471925077475
0.152999999999999997,85.577623379991280217
0.153999999999999998,83.387240170216642809
0.154999999999999999,81.121295192845167321
0.156000000000000000,78.808849390003402391
0.157000000000000001,76.498578303941712875
0.158000000000000002,74.232261486342324019
0.159000000000000002,72.035905391346233273
0.160000000000000003,69.919670220146727502
0.161000000000000004,67.881502838836269120
0.162000000000000005,65.911703651128220827
0.163000000000000006,63.997062940701638922
0.164000000000000007,62.124020225874076573
0.165000000000000008,60.280747546140347026
0.166000000000000009,58.458278413959931186
0.167000000000000010,56.650891764203016976
0.168000000000000010,54.855973908143006668
0.169000000000000011,53.073557943337711151
0.170000000000000012,51.305701201311023851
0.171000000000000013,49.555819554389863413
0.172000000000000014,47.828059216266744613
0.173000000000000015,46.126754899884268468
0.174000000000000016,44.455998577871064015
0.175000000000000017,42.819325222891180260
0.176000000000000018,41.219509845576375540
0.177000000000000018,39.658462770676287334
0.178000000000000019,38.137206289840023032
0.179000000000000020,36.655914614215731717
0.180000000000000021,35.213999596193424679
0.181000000000000022,33.810226340632461017
0.182000000000000023,32.442845082441039040
0.183000000000000024,31.109728206079392265
0.184000000000000025,29.808503772206961457
0.185000000000000026,28.536679234723390408
0.186000000000000026,27.291751082900919556
0.187000000000000027,26.071297882853979644
0.188000000000000028,24.873055609864412219
0.189000000000000029,23.694975271029683483
0.190000000000000030,22.535263643694442237
0.191000000000000031,21.392408534341022630
0.192000000000000032,20.265190333303099379
0.193000000000000033,19.152681840895926513
0.194000000000000034,18.054238406113693571
0.195000000000000034,16.969480382171855837
0.196000000000000035,15.898269791963233644
0.197000000000000036,14.840682934698824269
0.198000000000000037,13.796980472142298169
0.199000000000000038,12.767576324523066233
0.200000000000000039,11.753006494514213642
0.201000000000000040,10.753898731616766682
0.202000000000000041,9.770943755340573134
0.203000000000000042,8.804868578008283819
0.204000000000000042,7.856412309392053928
0.205000000000000043,6.926304686924055432
0.206000000000000044,6.015247457050390878
0.207000000000000045,5.123898634812553254
0.208000000000000046,4.252859588776338740
0.209000000000000047,3.402664835469293880
0.210000000000000048,2.573774379803494661
0.211000000000000049,1.766568403729642966
0.212000000000000050,0.981344082755189362
0.213000000000000050,0.218314297195950330
0.214000000000000051,-0.522391999561806708
0.215000000000000052,-1.240727991468913327
0.216000000000000053,-1.936726017286416690
0.217000000000000054,-2.610493612229493277
0.218000000000000055,-3.262208776667864019
0.219000000000000056,-3.892114658543896155
0.220000000000000057,-4.500513818725787374
0.221000000000000058,-5.087762230489614623
0.222000000000000058,-5.654263146258139194
0.223000000000000059,-6.200460947023541891
0.224000000000000060,-6.726835072877148214
0.225000000000000061,-7.233894116997833912
0.226000000000000062,-7.722170150483154138
0.227000000000000063,-8.192213331653928066
0.228000000000000064,-8.644586840983430776
0.229000000000000065,-9.079862171619350164
0.230000000000000066,-9.498614795564867208
0.231000000000000066,-9.901420216931688500
0.232000000000000067,-10.288850416212781624
0.233000000000000068,-10.661470683179294028
0.234000000000000069,-11.019836830703013675
0.235000000000000070,-11.364492777459506812
0.236000000000000071,-11.695968483988348652
0.237000000000000072,-12.014778223889960529
0.238000000000000073,-12.321419169934353377
0.239000000000000073,-12.616370273462994334
0.240000000000000074,-12.900091414603824802
0.241000000000000075,-13.173022800412519828
0.242000000000000076,-13.435584588034481968
0.243000000000000077,-13.688176710287729421
0.244000000000000078,-13.931178881637643840
0.245000000000000079,-14.164950763320186766
0.246000000000000080,-14.389832267322768544
0.247000000000000081,-14.606143980012404882
0.248000000000000081,-14.814187687370566238
0.249000000000000082,-15.014246985024376713
0.250000000000000111,-15.206587957526750188
0.251000000000000112,-15.391459912610590877
0.252000000000000113,-15.569096157407392056
0.253000000000000114,-15.739714804858731867
0.254000000000000115,-15.903519599753341396
0.255000000000000115,-16.060700754976814153
0.256000000000000116,-16.211435789662417051
0.257000000000000117,-16.355890361971781033
0.258000000000000118,-16.494219090210076928
0.259000000000000119,-16.626566356890169374
0.260000000000000120,-16.753067091202421324
0.261000000000000121,-16.873847526120567153
0.262000000000000122,-16.989025927082408884
0.263000000000000123,-17.098713289826214634
0.264000000000000123,-17.203014005543710851
0.265000000000000124,-17.302026492029874305
0.266000000000000125,-17.395843789972303739
0.267000000000000126,-17.484554123930969638
0.268000000000000127,-17.568241427917048014
0.269000000000000128,-17.646985835790061969
0.270000000000000129,-17.720864136959260549
0.271000000000000130,-17.789950198102101098
0.272000000000000131,-17.854315351802434009
0.273000000000000131,-17.914028753167308139
0.274000000000000132,-17.969157705607482711
0.275000000000000133,-18.019767957065255359
0.276000000000000134,-18.065923968047929549
0.277000000000000135,-18.107689152877192384
0.278000000000000136,-18.145126095598804739
0.279000000000000137,-18.178296742013152709
0.280000000000000138,-18.207262569289294873
0.281000000000000139,-18.232084734614694810
0.282000000000000139,-18.252824204311274059
0.283000000000000140,-18.269541864818158672
0.284000000000000141,-18.282298616903343458
0.285000000000000142,-18.291155454422650450
0.286000000000000143,-18.296173528895188554
0.287000000000000144,-18.297414201111529053
0.288000000000000145,-18.294939080935783693
0.289000000000000146,-18.288810056404404492
0.290000000000000147,-18.279089313166501540
0.291000000000000147,-18.265839345250689973
0.292000000000000148,-18.249122958084676327
0.293000000000000149,-18.229003264634801695
0.294000000000000150,-18.205543675475340137
0.295000000000000151,-18.178807883540891055
0.296000000000000152,-18.148859844260265106
0.297000000000000153,-18.115763751717828711
0.298000000000000154,-18.079584011436633517
0.299000000000000155,-18.040385210329617394
0.300000000000000155,-17.998232084318232182
0.301000000000000156,-17.953189484073725168
0.302000000000000157,-17.905322339294691858
0.303000000000000158,-17.854695621894808966
0.304000000000000159,-17.801374308437889482
0.305000000000000160,-17.745423342122300880
0.306000000000000161,-17.686907594584688752
0.307000000000000162,-17.625891827762494302
0.308000000000000163,-17.562440656026875985
0.309000000000000163,-17.496618508771511813
0.310000000000000164,-17.428489593619087117
0.311000000000000165,-17.358117860384890463
0.312000000000000166,-17.285566965917166016
0.313000000000000167,-17.210900239915066123
0.314000000000000168,-17.134180651808403439
0.315000000000000169,-17.055470778768192730
0.316000000000000170,-16.974832774903035215
0.317000000000000171,-16.892328341684070381
0.318000000000000171,-16.808018699629997172
0.319000000000000172,-16.721964561273697569
0.320000000000000173,-16.634226105423216779
0.321000000000000174,-16.544862952721778981
0.322000000000000175,-16.453934142504827776
0.323000000000000176,-16.361498110945895235
0.324000000000000177,-16.267612670477959114
0.325000000000000178,-16.172334990472169380
0.326000000000000179,-16.075721579152396856
0.327000000000000179,-15.977828266720290884
0.328000000000000180,-15.878710189663118868
0.329000000000000181,-15.778421776214551997
0.330000000000000182,-15.677016732936172261
0.331000000000000183,-15.574548032387065533
0.332000000000000184,-15.471067901846746295
0.333000000000000185,-15.366627813056828344
0.334000000000000186,-15.261278472945935647
0.335000000000000187,-15.155069815302235625
0.336000000000000187,-15.048050993358208061
0.337000000000000188,-14.940270373252044322
0.338000000000000189,-14.831775528330956249
0.339000000000000190,-14.722613234261824999
0.340000000000000191,-14.612829464915131794
0.341000000000000192,-14.502469388989428722
0.342000000000000193,-14.391577367343506566
0.343000000000000194,-14.280196951005246220
0.344000000000000195,-14.168370879826046149
0.345000000000000195,-14.056141081751615474
0.346000000000000196,-13.943548672680122991
0.347000000000000197,-13.830633956880083346
0.348000000000000198,-13.717436427941331445
0.349000000000000199,-13.603994770233157396
0.350000000000000200,-13.490346860845045640
0.351000000000000201,-13.376529771986067630
0.352000000000000202,-13.262579773820164064
0.353000000000000203,-13.148532337715423068
0.354000000000000203,-13.034422139886377323
0.355000000000000204,-12.920283065409117640
0.356000000000000205,-12.806148212590088065
0.357000000000000206,-12.692049897670161229
0.358000000000000207,-12.578019659846196632
0.359000000000000208,-12.464088266593439158
0.360000000000000209,-12.350285719272525498
0.361000000000000210,-12.236641259005690330
0.362000000000000210,-12.123183372807421421
0.363000000000000211,-12.009939799955468231
0.364000000000000212,-11.896937538588733929
0.365000000000000213,-11.784202852519033655
0.366000000000000214,-11.671761278244456861
0.367000000000000215,-11.559637632152355735
0.368000000000000216,-11.447856017900715386
0.369000000000000217,-11.336439833966919011
0.370000000000000218,-11.225411781353507479
0.371000000000000218,-11.114793871440822315
0.372000000000000219,-11.004607433976957509
0.373000000000000220,-10.894873125195669417
0.374000000000000221,-10.785610936053432241
0.375000000000000222,-10.676840200576851458
0.376000000000000223,-10.568579604312372311
0.377000000000000224,-10.460847192870101452
0.378000000000000225,-10.353660380554197573
0.379000000000000226,-10.247035959072206879
0.380000000000000226,-10.140990106316404962
0.381000000000000227,-10.035538395209858464
0.382000000000000228,-9.930695802610772560
0.383000000000000229,-9.826476718268521537
0.384000000000000230,-9.722894953824866349
0.385000000000000231,-9.619963751854594847
0.386000000000000232,-9.517695794939324827
0.387000000000000233,-9.416103214768961394
0.388000000000000234,-9.315197601264992855
0.389000000000000234,-9.214990011720542995
0.390000000000000235,-9.115490979951525574
0.391000000000000236,-9.016710525454168845
0.392000000000000237,-8.918658162563676939
0.393000000000000238,-8.821342909609438010
0.394000000000000239,-8.724773298061910154
0.395000000000000240,-8.628957381666804594
0.396000000000000241,-8.533902745562148340
0.397000000000000242,-8.439616515373804972
0.398000000000000242,-8.346105366285561544
0.399000000000000243,-8.253375532079562760
0.400000000000000244,-8.161432814143230630
0.401000000000000245,-8.070282590439015635
0.402000000000000246,-7.979929824433199315
0.403000000000000247,-7.890379073980217761
0.404000000000000248,-7.801634500159165597
0.405000000000000249,-7.713699876059100013
0.406000000000000250,-7.626578595509992731
0.407000000000000250,-7.540273681756214152
0.408000000000000251,-7.454787796069576977
0.409000000000000252,-7.370123246299142394
0.410000000000000253,-7.286281995354926266
0.411000000000000254,-7.203265669622966882
0.412000000000000255,-7.121075567309122611
0.413000000000000256,-7.039712666709265321
0.414000000000000257,-6.959177634403400425
0.415000000000000258,-6.879470833371651217
0.416000000000000258,-6.800592331029852389
0.417000000000000259,-6.722541907182787213
0.418000000000000260,-6.645319061893159684
0.419000000000000261,-6.568923023264413352
0.420000000000000262,-6.493352755135729737
0.421000000000000263,-6.418606964687620930
0.422000000000000264,-6.344684109956429729
0.423000000000000265,-6.271582407256422798
0.424000000000000266,-6.199299838508157912
0.425000000000000266,-6.127834158471736181
0.426000000000000267,-6.057182901883898296
0.427000000000000268,-5.987343390497834150
0.428000000000000269,-5.918312740024705754
0.429000000000000270,-5.850087866976056539
0.430000000000000271,-5.782665495406182465
0.431000000000000272,-5.716042163553805899
0.432000000000000273,-5.650214230382386127
0.433000000000000274,-5.585177882018472317
0.434000000000000274,-5.520929138087613985
0.435000000000000275,-5.457463857947391084
0.436000000000000276,-5.394777746817292829
0.437000000000000277,-5.332866361805033151
0.438000000000000278,-5.271725117829226370
0.439000000000000279,-5.211349293438258812
0.440000000000000280,-5.151734036525230209
0.441000000000000281,-5.092874369939027090
0.442000000000000282,-5.034765196991605407
0.443000000000000282,-4.977401306861509944
0.444000000000000283,-4.920777379893929826
0.445000000000000284,-4.864887992797492622
0.446000000000000285,-4.809727623737988900
0.447000000000000286,-4.755290657329625859
0.448000000000000287,-4.701571389523912181
0.449000000000000288,-4.648564032396907741
0.450000000000000289,-4.596262718835140149
0.451000000000000290,-4.544661507120844490
0.452000000000000290,-4.493754385417109809
0.453000000000000291,-4.443535276153525615
0.454000000000000292,-4.393998040313094933
0.455000000000000293,-4.345136481621021396
0.456000000000000294,-4.296944350636257681
0.457000000000000295,-4.249415348746487631
0.458000000000000296,-4.202543132067479092
0.459000000000000297,-4.156321315247592629
0.460000000000000298,-4.110743475178388451
0.461000000000000298,-4.065803154612218862
0.462000000000000299,-4.021493865687807201
0.463000000000000300,-3.977809093364721438
0.464000000000000301,-3.934742298767808677
0.465000000000000302,-3.892286922442607988
0.466000000000000303,-3.850436387522753190
0.467000000000000304,-3.809184102810433181
0.468000000000000305,-3.768523465771078662
0.469000000000000306,-3.728447865443258902
0.470000000000000306,-3.688950685265027118
0.471000000000000307,-3.650025305817730104
0.472000000000000308,-3.611665107488557513
0.473000000000000309,-3.573863473052879325
0.474000000000000310,-3.536613790177612682
0.475000000000000311,-3.499909453846757224
0.476000000000000312,-3.463743868710363216
0.477000000000000313,-3.428110451358006738
0.478000000000000314,-3.393002632518072659
0.479000000000000314,-3.358413859184059103
0.480000000000000315,-3.324337596669006523
0.481000000000000316,-3.290767330589432049
0.482000000000000317,-3.257696568779822055
0.483000000000000318,-3.225118843139030300
0.484000000000000319,-3.193027711409698988
0.485000000000000320,-3.161416758892033219
0.486000000000000321,-3.130279600093031078
0.487000000000000322,-3.099609880312473642
0.488000000000000322,-3.069401277166810438
0.489000000000000323,-3.039647502052239325
0.490000000000000324,-3.010342301548100785
0.491000000000000325,-2.981479458761841173
0.492000000000000326,-2.953052794616691568
0.493000000000000327,-2.925056169083309676
0.494000000000000328,-2.897483482356487450
0.495000000000000329,-2.870328675978183419
0.496000000000000330,-2.843585733907961988
0.497000000000000330,-2.817248683542057819
0.498000000000000331,-2.791311596682161777
0.499000000000000332,-2.765768590455110587
0.500000000000000333,-2.740613828184575329
0.501000000000000334,-2.715841520215879878
0.502000000000000335,-2.691445924695029301
0.503000000000000336,-2.667421348303101514
0.504000000000000337,-2.643762146947007174
0.505000000000000338,-2.620462726407748910
0.506000000000000338,-2.597517542947219038
0.507000000000000339,-2.574921103874563855
0.508000000000000340,-2.552667968073170535
0.509000000000000341,-2.530752746489311811
0.510000000000000342,-2.509170102583401452
0.511000000000000343,-2.487914752744918800
0.512000000000000344,-2.466981466671921641
0.513000000000000345,-2.446365067716176789
0.514000000000000346,-2.426060433194820121
0.515000000000000346,-2.406062494669483964
0.516000000000000347,-2.386366238193827538
0.517000000000000348,-2.366966704530429233
0.518000000000000349,-2.347858989337820113
0.519000000000000350,-2.329038243328658275
0.520000000000000351,-2.310499672399870086
0.521000000000000352,-2.292238537735581172
0.522000000000000353,-2.274250155883729807
0.523000000000000353,-2.256529898807133172
0.524000000000000354,-2.239073193909893345
0.525000000000000355,-2.221875524039841121
0.526000000000000356,-2.204932427467874767
0.527000000000000357,-2.188239497844953529
0.528000000000000358,-2.171792384137445353
0.529000000000000359,-2.155586790541631714
0.530000000000000360,-2.139618476378061906
0.531000000000000361,-2.123883255966470429
0.532000000000000361,-2.108376998481946707
0.533000000000000362,-2.093095627793069458
0.534000000000000363,-2.078035122282639868
0.535000000000000364,-2.063191514651676606
0.536000000000000365,-2.048560891707332132
0.537000000000000366,-2.034139394135338286
0.538000000000000367,-2.019923216257585530
0.539000000000000368,-2.005908605775488684
0.540000000000000369,-1.992091863499635407
0.541000000000000369,-1.978469343066398212
0.542000000000000370,-1.965037450641979433
0.543000000000000371,-1.951792644614482430
0.544000000000000372,-1.938731435274552384
0.545000000000000373,-1.925850384485077171
0.546000000000000374,-1.913146105340475689
0.547000000000000375,-1.900615261816068324
0.548000000000000376,-1.888254568408035183
0.549000000000000377,-1.876060789764408820
0.550000000000000377,-1.864030740307547784
0.551000000000000378,-1.852161283848609674
0.552000000000000379,-1.840449333194382309
0.553000000000000380,-1.828891849746963505
0.554000000000000381,-1.817485843096651177
0.555000000000000382,-1.806228370608518485
0.556000000000000383,-1.795116537002970913
0.557000000000000384,-1.784147493930780204
0.558000000000000385,-1.773318439542871827
0.559000000000000385,-1.762626618055302519
0.560000000000000386,-1.752069319309712769
0.561000000000000387,-1.741643878329668826
0.562000000000000388,-1.731347674873164433
0.563000000000000389,-1.721178132981646680
0.564000000000000390,-1.711132720525851081
0.565000000000000391,-1.701208948748778038
0.566000000000000392,-1.691404371806082052
0.567000000000000393,-1.681716586304175864
0.568000000000000393,-1.672143230836312000
0.569000000000000394,-1.662681985516931915
0.570000000000000395,-1.653330571514520786
0.571000000000000396,-1.644086750583223733
0.572000000000000397,-1.634948324593498370
0.573000000000000398,-1.625913135061981096
0.574000000000000399,-1.616979062680860890
0.575000000000000400,-1.608144026846918262
0.576000000000000401,-1.599405985190491597
0.577000000000000401,-1.590762933104555632
0.578000000000000402,-1.582212903274112126
0.579000000000000403,-1.573753965206067917
0.580000000000000404,-1.565384224759825083
0.581000000000000405,-1.557101823678723074
0.582000000000000406,-1.548904939122515811
0.583000000000000407,-1.540791783201060472
0.584000000000000408,-1.532760602509356529
0.585000000000000409,-1.524809677664095142
0.586000000000000409,-1.516937322841877434
0.587000000000000410,-1.509141885319222443
0.588000000000000411,-1.501421745014509757
0.589000000000000412,-1.493775314031992263
0.590000000000000413,-1.486201036207978943
0.591000000000000414,-1.478697386659333812
0.592000000000000415,-1.471262871334394928
0.593000000000000416,-1.463896026566405828
0.594000000000000417,-1.456595418629583971
0.595000000000000417,-1.449359643297923217
0.596000000000000418,-1.442187325406794951
0.597000000000000419,-1.435077118417486641
0.598000000000000420,-1.428027703984714014
0.599000000000000421,-1.421037791527214100
0.600000000000000422,-1.414106117801494644
0.601000000000000423,-1.407231446478799386
0.602000000000000424,-1.400412567725367152
0.603000000000000425,-1.393648297786051149
0.604000000000000425,-1.386937478571346194
0.605000000000000426,-1.380278977247888283
0.606000000000000427,-1.373671685832505318
0.607000000000000428,-1.367114520789789456
0.608000000000000429,-1.360606422633366064
0.609000000000000430,-1.354146355530747137
