# tri-graphene_CS-61591-AC
# h[nm],U(h)[kJ/mol]
0.200000000000000011,104.528912896438058056
0.201000000000000012,101.228083294134577841
0.202000000000000013,98.934083919067603574
0.203000000000000014,97.153991255403312266
0.204000000000000015,95.591717746658204646
0.205000000000000016,94.081813035460641004
0.206000000000000016,92.542744547423012591
0.207000000000000017,90.944490577857465041
0.208000000000000018,89.286543668423348663
0.209000000000000019,87.583395756238104468
0.210000000000000020,85.855323172155564748
0.211000000000000021,84.122859378217270887
0.212000000000000022,82.403775960351921981
0.213000000000000023,80.711718919765502278
0.214000000000000024,79.055892089674614454
0.215000000000000024,77.441361574232459475
0.216000000000000025,75.869689293637136984
0.217000000000000026,74.339701544169216163
0.218000000000000027,72.848268863448168986
0.219000000000000028,71.391023308304070838
0.220000000000000029,69.962973787689520577
0.221000000000000030,68.559003382799545534
0.222000000000000031,67.174247698920240168
0.223000000000000032,65.804362545290061348
0.224000000000000032,64.445694367160740512
0.225000000000000033,63.095369148980658736
0.226000000000000034,61.751315918534238847
0.227000000000000035,60.412240198556254711
0.228000000000000036,59.077561267966743230
0.229000000000000037,57.747325255203165284
0.230000000000000038,56.422104127238185356
0.231000000000000039,55.102888715111191686
0.232000000000000040,53.790982126833412735
0.233000000000000040,52.487898296055860214
0.234000000000000041,51.195269025225528026
0.235000000000000042,49.914761710390493477
0.236000000000000043,48.648008973529726973
0.237000000000000044,47.396550661387507830
0.238000000000000045,46.161788076929632041
0.239000000000000046,44.944949868423833550
0.240000000000000047,43.747068689281157106
0.241000000000000048,42.568967537624878616
0.242000000000000048,41.411254568132832787
0.243000000000000049,40.274325122103256547
0.244000000000000050,39.158369729175490193
0.245000000000000051,38.063386882116347465
0.246000000000000052,36.989199463106139376
0.247000000000000053,35.935473796491613996
0.248000000000000054,34.901740411265862463
0.249000000000000055,33.887415710391216805
0.250000000000000056,32.891823858663940428
0.251000000000000056,31.914218312462946159
0.252000000000000057,30.953802520741113824
0.253000000000000058,30.009749425140018531
0.254000000000000059,29.081219476932950840
0.255000000000000060,28.167376968966358675
0.256000000000000061,27.267404551631035048
0.257000000000000062,26.380515863240599828
0.258000000000000063,25.505966257352092441
0.259000000000000064,24.643061653039943337
0.260000000000000064,23.791165569553395898
0.261000000000000065,22.949704434851231127
0.262000000000000066,22.118171278949915859
0.263000000000000067,21.296127938595578399
0.264000000000000068,20.483205910207551881
0.265000000000000069,19.679105994051550255
0.266000000000000070,18.883596874853200376
0.267000000000000071,18.096512783175796812
0.268000000000000071,17.317750378432002378
0.269000000000000072,16.547264988889750725
0.270000000000000073,15.785066336929379105
0.271000000000000074,15.031213869517685566
0.272000000000000075,14.285811804739021014
0.273000000000000076,13.549003995570467751
0.274000000000000077,12.820968702166373632
0.275000000000000078,12.101913353945954910
0.276000000000000079,11.392069372936786564
0.277000000000000079,10.691687120259903310
0.278000000000000080,10.001031018469371148
0.279000000000000081,9.320374893761856683
0.280000000000000082,8.649997573921442751
0.281000000000000083,7.990178770300660815
0.282000000000000084,7.341195265191584163
0.283000000000000085,6.703317419620705486
0.284000000000000086,6.076806010908582856
0.285000000000000087,5.461909404262362600
0.286000000000000087,4.858861058195053317
0.287000000000000088,4.267877359668075243
0.288000000000000089,3.689155781503558273
0.289000000000000090,3.122873351776419781
0.290000000000000091,2.569185422541276242
0.291000000000000092,2.028224723335202206
0.292000000000000093,1.500100683391793144
0.293000000000000094,0.984899005364726188
0.294000000000000095,0.482681472555514024
0.295000000000000095,-0.006514028866760313
0.296000000000000096,-0.482673291407309413
0.297000000000000097,-0.945805390314312766
0.298000000000000098,-1.395942128749183553
0.299000000000000099,-1.833137342271346615
0.300000000000000100,-2.257466080342002801
0.301000000000000101,-2.669023681923103020
0.302000000000000102,-3.067924761518759702
0.303000000000000103,-3.454302121201998865
0.304000000000000103,-3.828305603302508242
0.305000000000000104,-4.190100897523298507
0.306000000000000105,-4.539868315316603287
0.307000000000000106,-4.877801543396818928
0.308000000000000107,-5.204106387312114279
0.309000000000000108,-5.518999515045598159
0.310000000000000109,-5.822707209681735385
0.311000000000000110,-6.115464139258451226
0.312000000000000111,-6.397512151040468886
0.313000000000000111,-6.669099096594403697
0.314000000000000112,-6.930477693230011837
0.315000000000000113,-7.181904426594297952
0.316000000000000114,-7.423638498470273461
0.317000000000000115,-7.655940823140181983
0.318000000000000116,-7.879073075026343353
0.319000000000000117,-8.093296789720362483
0.320000000000000118,-8.298872519954596072
0.321000000000000119,-8.496059047557171340
0.322000000000000119,-8.685112651962798580
0.323000000000000120,-8.866286435425189794
0.324000000000000121,-9.039829704692255774
0.325000000000000122,-9.205987408559483498
0.326000000000000123,-9.364999630409718279
0.327000000000000124,-9.517101134576538612
0.328000000000000125,-9.662520965131868422
0.329000000000000126,-9.801482095493742719
0.330000000000000127,-9.934201127076736526
0.331000000000000127,-10.060888035061761769
0.332000000000000128,-10.181745959243155397
0.333000000000000129,-10.296971037816453176
0.334000000000000130,-10.406752281898118184
0.335000000000000131,-10.511271488517833106
0.336000000000000132,-10.610703189790891443
0.337000000000000133,-10.705214635963686831
0.338000000000000134,-10.794965810025560771
0.339000000000000135,-10.880109471593980786
0.340000000000000135,-10.960791227807339610
0.341000000000000136,-11.037149628996695938
0.342000000000000137,-11.109316286955044362
0.343000000000000138,-11.177416013678103113
0.344000000000000139,-11.241566978513318986
0.345000000000000140,-11.301880881722279781
0.346000000000000141,-11.358463142535338619
0.347000000000000142,-11.411413099855028719
0.348000000000000143,-11.460824223845760272
0.349000000000000143,-11.506784336730500939
0.350000000000000144,-11.549375841200326676
0.351000000000000145,-11.588675954928438827
0.352000000000000146,-11.624756949767135694
0.353000000000000147,-11.657686394292083421
0.354000000000000148,-11.687527398444499838
0.355000000000000149,-11.714338859106216972
0.356000000000000150,-11.738175705526268544
0.357000000000000151,-11.759089143599208427
0.358000000000000151,-11.777126898075202632
0.359000000000000152,-11.792333451859169813
0.360000000000000153,-11.804750281631845255
0.361000000000000154,-11.814416089097441898
0.362000000000000155,-11.821367027232948743
0.363000000000000156,-11.825636920980688416
0.364000000000000157,-11.827257481889732915
0.365000000000000158,-11.826258516273188803
0.366000000000000159,-11.822668126505780251
0.367000000000000159,-11.816512905141813405
0.368000000000000160,-11.807818121585059501
0.369000000000000161,-11.796607901091467951
0.370000000000000162,-11.782905395931370762
0.371000000000000163,-11.766732948581184459
0.372000000000000164,-11.748112246854644170
0.373000000000000165,-11.727064470921190420
0.374000000000000166,-11.703610432193894297
0.375000000000000167,-11.677770704101078536
0.376000000000000167,-11.649565744785801868
0.377000000000000168,-11.619016011803942945
0.378000000000000169,-11.586142068916505110
0.379000000000000170,-11.550964685094280426
0.380000000000000171,-11.513504925872862117
0.381000000000000172,-11.473784237214486481
0.382000000000000173,-11.431824522048993131
0.383000000000000174,-11.387648209680737210
0.384000000000000175,-11.341278318260512137
0.385000000000000175,-11.292738510532412732
0.386000000000000176,-11.242053143074837607
0.387000000000000177,-11.189247309262215779
0.388000000000000178,-11.134346876180845953
0.389000000000000179,-11.077378515736524989
0.390000000000000180,-11.018369730196059919
0.391000000000000181,-10.957348872406821982
0.392000000000000182,-10.894345160940464012
0.393000000000000183,-10.829388690407142803
0.394000000000000183,-10.762510437186502799
0.395000000000000184,-10.693742260820474854
0.396000000000000185,-10.623116901310879712
0.397000000000000186,-10.550667972562482788
0.398000000000000187,-10.476429952208663465
0.399000000000000188,-10.400438168053323551
0.400000000000000189,-10.322728781358113892
0.401000000000000190,-10.243338767199524852
0.402000000000000191,-10.162305892115268691
0.403000000000000191,-10.079668689253606928
0.404000000000000192,-9.995466431233896998
0.405000000000000193,-9.909739100920274879
0.406000000000000194,-9.822527360304274424
0.407000000000000195,-9.733872517685824732
0.408000000000000196,-9.643816493335188866
0.409000000000000197,-9.552401783812090486
0.410000000000000198,-9.459671425111325860
0.411000000000000199,-9.365668954797182977
0.412000000000000199,-9.270438373282475553
0.413000000000000200,-9.174024104400910318
0.414000000000000201,-9.076470955414819741
0.415000000000000202,-8.977824076593272196
0.416000000000000203,-8.878128920489315234
0.417000000000000204,-8.777431201037860120
0.418000000000000205,-8.675776852589693888
0.419000000000000206,-8.573211988990397714
0.420000000000000207,-8.469782862806511048
0.421000000000000207,-8.365535824795557573
0.422000000000000208,-8.260517283709702951
0.423000000000000209,-8.154773666517817432
0.424000000000000210,-8.048351379124207838
0.425000000000000211,-7.941296767656963240
0.426000000000000212,-7.833656080393626375
0.427000000000000213,-7.725475430386113729
0.428000000000000214,-7.616800758842312113
0.429000000000000214,-7.507677799316335943
0.430000000000000215,-7.398152042754922775
0.431000000000000216,-7.288268703443035790
0.432000000000000217,-7.178072685886822235
0.433000000000000218,-7.067608552668447786
0.434000000000000219,-6.956920493302854780
0.435000000000000220,-6.846052294122908499
0.436000000000000221,-6.735047309215447697
0.437000000000000222,-6.623948432427374300
0.438000000000000222,-6.512798070457620270
0.439000000000000223,-6.401638117047461662
0.440000000000000224,-6.290509928278757101
0.441000000000000225,-6.179454298986699179
0.442000000000000226,-6.068511440291208814
0.443000000000000227,-5.957720958248137855
0.444000000000000228,-5.847121833619443265
0.445000000000000229,-5.736752402758978242
0.446000000000000230,-5.626650339608445961
0.447000000000000230,-5.516852638796266639
0.448000000000000231,-5.407395599829996513
0.449000000000000232,-5.298314812371291538
0.450000000000000233,-5.189645142581059467
0.451000000000000234,-5.081420720520451795
0.452000000000000235,-4.973674928592578759
0.453000000000000236,-4.866440391008000965
0.454000000000000237,-4.759748964256435677
0.455000000000000238,-4.653631728565605030
0.456000000000000238,-4.548118980327590322
0.457000000000000239,-4.443240225471886795
0.458000000000000240,-4.339024173763943892
0.459000000000000241,-4.235498734006798216
0.460000000000000242,-4.132691010123513919
0.461000000000000243,-4.030627298096808531
0.462000000000000244,-3.929333083742689858
0.463000000000000245,-3.828833041293607131
0.464000000000000246,-3.729151032767254570
0.465000000000000246,-3.630310108096258315
0.466000000000000247,-3.532332505994062011
0.467000000000000248,-3.435239655532178915
0.468000000000000249,-3.339052178404009030
0.469000000000000250,-3.243789891850129781
0.470000000000000251,-3.149471812220354217
0.471000000000000252,-3.056116159147560296
0.472000000000000253,-2.963740360308809940
0.473000000000000254,-2.872361056749029196
0.474000000000000254,-2.781994108743020888
0.475000000000000255,-2.692654602171636213
0.476000000000000256,-2.604356855388241243
0.477000000000000257,-2.517114426551977591
0.478000000000000258,-2.430940121404375986
0.479000000000000259,-2.345846001466594277
0.480000000000000260,-2.261843392634566019
0.481000000000000261,-2.178942894149842324
0.482000000000000262,-2.097154387924456298
0.483000000000000262,-2.016487048198298382
0.484000000000000263,-1.936949351508044925
0.485000000000000264,-1.858549086947177020
0.486000000000000265,-1.781293366696949265
0.487000000000000266,-1.705188636808700364
0.488000000000000267,-1.630240688218363321
0.489000000000000268,-1.556454667974539241
0.490000000000000269,-1.483835090661811851
0.491000000000000270,-1.412385850001804055
0.492000000000000270,-1.342110230614513178
0.493000000000000271,-1.273010919923409201
0.494000000000000272,-1.205090020187955968
0.495000000000000273,-1.138349060647766642
0.496000000000000274,-1.072789009763324586
0.497000000000000275,-1.008410287538296313
0.498000000000000276,-0.945212777909330670
0.499000000000000277,-0.883195841189514219
0.500000000000000222,-0.822358326552129482
0.501000000000000334,-0.762698584541996683
0.502000000000000224,-0.704214479602042975
0.503000000000000336,-0.646903402603081878
0.504000000000000226,-0.590762283365695140
0.505000000000000338,-0.535787603162855675
0.506000000000000227,-0.481975407193290351
0.507000000000000339,-0.429321317015007309
0.508000000000000229,-0.377820542929835412
0.509000000000000341,-0.327467896309399709
0.510000000000000231,-0.278257801854173537
0.511000000000000343,-0.230184309776811480
0.512000000000000233,-0.183241107902235745
0.513000000000000345,-0.137421533676572644
0.514000000000000234,-0.092718586078176443
0.515000000000000346,-0.049124937423483804
0.516000000000000236,-0.006632945061779028
0.517000000000000348,0.034765337047544462
0.518000000000000238,0.075078146880660335
0.519000000000000350,0.114314003023470029
0.520000000000000240,0.152481693479070174
0.521000000000000352,0.189590264613345688
0.522000000000000242,0.225649010242961079
0.523000000000000353,0.260667460869888568
0.524000000000000243,0.294655373066131154
0.525000000000000355,0.327622719012213570
0.526000000000000245,0.359579676192482711
0.527000000000000357,0.390536617250326568
0.528000000000000247,0.420504100005707315
0.529000000000000359,0.449492857637668553
0.530000000000000249,0.477513789033716829
0.531000000000000361,0.504577949308173346
0.532000000000000250,0.530696540491015556
0.533000000000000362,0.555880902388817377
0.534000000000000252,0.580142503618890304
0.535000000000000364,0.603492932817750516
0.536000000000000254,0.625943890024682981
0.537000000000000366,0.647507178241155223
0.538000000000000256,0.668194695166379748
0.539000000000000368,0.688018425109515941
0.540000000000000258,0.706990431078421411
0.541000000000000369,0.725122847045134966
0.542000000000000259,0.742427870387688205
0.543000000000000371,0.758917754508086739
0.544000000000000261,0.774604801625851325
0.545000000000000373,0.789501355746594080
0.546000000000000263,0.803619795804836778
0.547000000000000375,0.816972528980269841
0.548000000000000265,0.829571984186386002
0.549000000000000377,0.841430605730519865
0.550000000000000266,0.852560847144026246
0.551000000000000378,0.862975165181329218
0.552000000000000268,0.872686013986500142
0.553000000000000380,0.881705839425872773
0.554000000000000270,0.890047073585136794
0.555000000000000382,0.897722129429354254
0.556000000000000272,0.904743395624107216
0.557000000000000384,0.911123231516146048
0.558000000000000274,0.916873962271560927
0.559000000000000385,0.922007874169760600
0.560000000000000275,0.926537210051177729
0.561000000000000387,0.930474164916810897
0.562000000000000277,0.933830881677559788
0.563000000000000389,0.936619447051229015
0.564000000000000279,0.938851887605150814
0.565000000000000391,0.940540165942230777
0.566000000000000281,0.941696177028305215
0.567000000000000393,0.942331744658525650
0.568000000000000282,0.942458618060578956
0.569000000000000394,0.942088468632503839
0.570000000000000284,0.941232886812827352
0.571000000000000396,0.939903379080688217
0.572000000000000286,0.938111365083688531
0.573000000000000398,0.935868174891179905
0.574000000000000288,0.933185046370631377
0.575000000000000400,0.930073122684693110
0.576000000000000290,0.926543449906797156
0.577000000000000401,0.922606974752757325
0.578000000000000291,0.918274542426182450
0.579000000000000403,0.913556894575319411
0.580000000000000293,0.908464667359006994
0.581000000000000405,0.903008389619387786
0.582000000000000295,0.897198481159158234
0.583000000000000407,0.891045251120933690
0.584000000000000297,0.884558896466564271
0.585000000000000409,0.877749500553978046
0.586000000000000298,0.870627031809472762
0.587000000000000410,0.863201342492983081
0.588000000000000300,0.855482167554312389
0.589000000000000412,0.847479123577937976
0.590000000000000302,0.839201707814330233
0.591000000000000414,0.830659297295445520
0.592000000000000304,0.821861148032449806
0.593000000000000416,0.812816394293333522
0.594000000000000306,0.803534047958427755
0.595000000000000417,0.794022997951672194
0.596000000000000307,0.784292009745651275
0.597000000000000419,0.774349724938222406
0.598000000000000309,0.764204660898819443
0.599000000000000421,0.753865210482465131
0.600000000000000311,0.743339641809410590
0.601000000000000423,0.732636098108560452
0.602000000000000313,0.721762597622755631
0.603000000000000425,0.710727033574006462
0.604000000000000314,0.699537174186828481
0.605000000000000426,0.688200662767859961
0.606000000000000316,0.676725017839974852
0.607000000000000428,0.665117633329081359
0.608000000000000318,0.653385778801915840
0.609000000000000430,0.641536599753046444
0.610000000000000320,0.629577117939517872
0.611000000000000432,0.617514231761323029
0.612000000000000322,0.605354716686265171
0.613000000000000433,0.593105225717427742
0.614000000000000323,0.580772289901833827
0.615000000000000435,0.568362318878644079
0.616000000000000325,0.555881601465502473
0.617000000000000437,0.543336306281418269
0.618000000000000327,0.530732482404848493
0.619000000000000439,0.518076060065493893
0.620000000000000329,0.505372851368449338
0.621000000000000441,0.492628551049307972
0.622000000000000330,0.479848737258947888
0.623000000000000442,0.467038872376599912
0.624000000000000332,0.454204303850059776
0.625000000000000444,0.441350265061602187
0.626000000000000334,0.428481876218596125
0.627000000000000446,0.415604145267415515
0.628000000000000336,0.402721968829653054
0.629000000000000448,0.389840133159360058
0.630000000000000338,0.376963315120326325
0.631000000000000449,0.364096083182163577
0.632000000000000339,0.351242898434309392
0.633000000000000451,0.338408115616740168
0.634000000000000341,0.325595984166551555
0.635000000000000453,0.312810649279232744
0.636000000000000343,0.300056152983928848
0.637000000000000455,0.287336435231454856
0.638000000000000345,0.274655334994451494
0.639000000000000457,0.262016591378555319
0.640000000000000346,0.249423844743898282
0.641000000000000458,0.236880637835961277
0.642000000000000348,0.224390416925102254
0.643000000000000460,0.211956532953818833
0.644000000000000350,0.199582242691138723
0.645000000000000462,0.187270709893211373
0.646000000000000352,0.175025006469575473
0.647000000000000464,0.162848113654188220
0.648000000000000353,0.150742923180732291
0.649000000000000465,0.138712238461353998
0.650000000000000355,0.126758775768366805
0.651000000000000467,0.114885165418138424
0.652000000000000357,0.103093952956677601
0.653000000000000469,0.091387600346264725
0.654000000000000359,0.079768487152598461
0.655000000000000471,0.068238911731901372
0.656000000000000361,0.056801092417458766
0.657000000000000473,0.045457168705059545
0.658000000000000362,0.034209202436888964
0.659000000000000474,0.023059178983359969
0.660000000000000364,0.012009008422449074
0.661000000000000476,0.001060526716052462
0.662000000000000366,-0.009784503116977972
0.663000000000000478,-0.020524389831655450
0.664000000000000368,-0.031157512791778280
0.665000000000000480,-0.041682320809501308
