# tri-graphene_CS-55104-AC
# h[nm],U(h)[kJ/mol]
0.149999999999999994,121.401056230819264670
0.150999999999999995,116.825537243314485636
0.151999999999999996,114.564027874165077492
0.152999999999999997,112.826763173864350165
0.153999999999999998,110.950879809379699736
0.154999999999999999,108.805564650890048028
0.156000000000000000,106.470155162502194912
0.157000000000000001,104.073095969894296786
0.158000000000000002,101.721821915377319101
0.159000000000000002,99.481006776972449757
0.160000000000000003,97.374104227428887270
0.161000000000000004,95.394065133317127447
0.162000000000000005,93.515811631684798044
0.163000000000000006,91.707006294686209458
0.164000000000000007,89.935885970372126508
0.165000000000000008,88.176098968069965167
0.166000000000000009,86.409021063686367370
0.167000000000000010,84.624203511768186559
0.168000000000000010,82.818594428535121210
0.169000000000000011,80.995075547803992322
0.170000000000000012,79.160728127106693819
0.171000000000000013,77.325116198646099974
0.172000000000000014,75.498767364013389169
0.173000000000000015,73.691946178674697876
0.174000000000000016,71.913752788971834207
0.175000000000000017,70.171537164514276697
0.176000000000000018,68.470593281061155722
0.177000000000000018,66.814084106231774740
0.178000000000000019,65.203143730507932219
0.179000000000000020,63.637104535528933980
0.180000000000000021,62.113802574381978161
0.181000000000000022,60.629921599692657708
0.182000000000000023,59.181344155907630977
0.183000000000000024,57.763485999761485346
0.184000000000000025,56.371597293448090227
0.185000000000000026,55.001020233583652441
0.186000000000000026,53.647397912967051070
0.187000000000000027,52.306833256669236221
0.188000000000000028,50.975999900049963287
0.189000000000000029,49.652208998700373854
0.190000000000000030,48.333437314640796956
0.191000000000000031,47.018322649725071471
0.192000000000000032,45.706132930693726735
0.193000000000000033,44.396715113042155565
0.194000000000000034,43.090429669611737040
0.195000000000000034,41.788075854495403405
0.196000000000000035,40.490812256763263122
0.197000000000000036,39.200076439396539740
0.198000000000000037,37.917506740503498008
0.199000000000000038,36.644868628189307458
0.200000000000000039,35.383987369079861196
0.201000000000000040,34.136688206940341672
0.202000000000000041,32.904744759045051694
0.203000000000000042,31.689835925893749646
0.204000000000000042,30.493511272769545428
0.205000000000000043,29.317164575124202486
0.206000000000000044,28.162015017754992385
0.207000000000000045,27.029095393107137824
0.208000000000000046,25.919246549236639510
0.209000000000000047,24.833117285413621289
0.210000000000000048,23.771168875715066093
0.211000000000000049,22.733683411411153230
0.212000000000000050,21.720775185257529927
0.213000000000000050,20.732404389433561676
0.214000000000000051,19.768392458976968840
0.215000000000000052,18.828438460046164948
0.216000000000000053,17.912135993745902596
0.217000000000000054,17.018990158771025278
0.218000000000000055,16.148434187516919280
0.219000000000000056,15.299845438852063495
0.220000000000000057,14.472560495160994520
0.221000000000000058,13.665889170662797625
0.222000000000000058,12.879127291806389266
0.223000000000000059,12.111568158452254096
0.224000000000000060,11.362512636476973071
0.225000000000000061,10.631277868476106008
0.226000000000000062,9.917204619613240624
0.227000000000000063,9.219663300686988805
0.228000000000000064,8.538058730553389708
0.229000000000000065,7.871833715578378410
0.230000000000000066,7.220471535263735419
0.231000000000000066,6.583497431049235793
0.232000000000000067,5.960479200006236766
0.233000000000000068,5.351026997142546371
0.234000000000000069,4.754792449757583306
0.235000000000000070,4.171467185110541820
0.236000000000000071,3.600780868954589486
0.237000000000000072,3.042498847570979326
0.238000000000000073,2.496419480104600019
0.239000000000000073,1.962371241514288656
0.240000000000000074,1.440209669530974512
0.241000000000000075,0.929814221864022961
0.242000000000000076,0.431085102671830256
0.243000000000000077,-0.056059889843669809
0.244000000000000078,-0.531688449833703891
0.245000000000000079,-0.995856746010011618
0.246000000000000080,-1.448612267843888635
0.247000000000000081,-1.889996509907607702
0.248000000000000081,-2.320047474045865421
0.249000000000000082,-2.738801974148922458
0.250000000000000111,-3.146297732917499701
0.251000000000000112,-3.542575264158894122
0.252000000000000113,-3.927679537843140167
0.253000000000000114,-4.301661428384606189
0.254000000000000115,-4.664578949422452325
0.255000000000000115,-5.016498280767847540
0.256000000000000116,-5.357494595196047094
0.257000000000000117,-5.687652694411704069
0.258000000000000118,-6.007067464833495407
0.259000000000000119,-6.315844164859661269
0.260000000000000120,-6.614098556016548613
0.261000000000000121,-6.901956890885065476
0.262000000000000122,-7.179555770975001749
0.263000000000000123,-7.447041887797638537
0.264000000000000123,-7.704571660300875813
0.265000000000000124,-7.952310781599567058
0.266000000000000125,-8.190433687580785715
0.267000000000000126,-8.419122959508246851
0.268000000000000127,-8.638568672212718624
0.269000000000000128,-8.848967698850927377
0.270000000000000129,-9.050522982562057450
0.271000000000000130,-9.243442784660990341
0.272000000000000131,-9.427939918293592569
0.273000000000000131,-9.604230975753292654
0.274000000000000132,-9.772535556928705347
0.275000000000000133,-9.933075505628149671
0.276000000000000134,-10.086074159815410667
0.277000000000000135,-10.231755621097523345
0.278000000000000136,-10.370344048136320936
0.279000000000000137,-10.502062978012796535
0.280000000000000138,-10.627134678961919434
0.281000000000000139,-10.745779537317559971
0.282000000000000139,-10.858215480963377075
0.283000000000000140,-10.964657441078704991
0.284000000000000141,-11.065316853497593641
0.285000000000000142,-11.160401200565955193
0.286000000000000143,-11.250113593984838900
0.287000000000000144,-11.334652398766856152
0.288000000000000145,-11.414210898108157366
0.289000000000000146,-11.488976998686272424
0.290000000000000147,-11.559132975636813967
0.291000000000000147,-11.624855256234571499
0.292000000000000148,-11.686314241108444634
0.293000000000000149,-11.743674161650639931
0.294000000000000150,-11.797092972139081368
0.295000000000000151,-11.846722274974855083
0.296000000000000152,-11.892707277342680072
0.297000000000000153,-11.935186777529933622
0.298000000000000154,-11.974293179086959782
0.299000000000000155,-12.010152530976551333
0.300000000000000155,-12.042884591841978903
0.301000000000000156,-12.072602916519240779
0.302000000000000157,-12.099414962928699779
0.303000000000000158,-12.123422217502477949
0.304000000000000159,-12.144720337335902727
0.305000000000000160,-12.163399307291637541
0.306000000000000161,-12.179543610334254922
0.307000000000000162,-12.193232409428162555
0.308000000000000163,-12.204539739392679110
0.309000000000000163,-12.213534707173998584
0.310000000000000164,-12.220281699063148650
0.311000000000000165,-12.224840593461049565
0.312000000000000166,-12.227266977866760200
0.313000000000000167,-12.227612368840372170
0.314000000000000168,-12.225924433768939892
0.315000000000000169,-12.222247213340494909
0.316000000000000170,-12.216621343708123248
0.317000000000000171,-12.209084277401426988
0.318000000000000171,-12.199670502117749393
0.319000000000000172,-12.188411756598547697
0.320000000000000173,-12.175337242867769305
0.321000000000000174,-12.160473834178324282
0.322000000000000175,-12.143846278079820422
0.323000000000000176,-12.125477394085452332
0.324000000000000177,-12.105388265477770915
0.325000000000000178,-12.083598424852333153
0.326000000000000179,-12.060126033055013295
0.327000000000000179,-12.034988051221981564
0.328000000000000180,-12.008200405682329048
0.329000000000000181,-11.979778145531309264
0.330000000000000182,-11.949735592726565159
0.331000000000000183,-11.918086484602509856
0.332000000000000184,-11.884844108736544399
0.333000000000000185,-11.850021430137658740
0.334000000000000186,-11.813631210761533552
0.335000000000000187,-11.775686121387137106
0.336000000000000187,-11.736198845918584865
0.337000000000000188,-11.695182178201491752
0.338000000000000189,-11.652649111467066945
0.339000000000000190,-11.608612920538181612
0.340000000000000191,-11.563087236950428505
0.341000000000000192,-11.516086117158632618
0.342000000000000193,-11.467624104013506070
0.343000000000000194,-11.417716281706706383
0.344000000000000195,-11.366378324393016541
0.345000000000000195,-11.313626538708678737
0.346000000000000196,-11.259477900411837936
0.347000000000000197,-11.203950085378112433
0.348000000000000198,-11.147061495188875568
0.349000000000000199,-11.088831277553476085
0.350000000000000200,-11.029279341809239412
0.351000000000000201,-10.968426369744136650
0.352000000000000202,-10.906293821987329551
0.353000000000000203,-10.842903940212204716
0.354000000000000203,-10.778279745394831579
0.355000000000000204,-10.712445032368288267
0.356000000000000205,-10.645424360910459072
0.357000000000000206,-10.577243043599130701
0.358000000000000207,-10.507927130663478721
0.359000000000000208,-10.437503392056916240
0.360000000000000209,-10.365999296970352717
0.361000000000000210,-10.293442990999551512
0.362000000000000210,-10.219863271174167707
0.363000000000000211,-10.145289559049651018
0.364000000000000212,-10.069751872056803776
0.365000000000000213,-9.993280793296790421
0.366000000000000214,-9.915907439962637682
0.367000000000000215,-9.837663430561073952
0.368000000000000216,-9.758580851101616105
0.369000000000000217,-9.678692220412340674
0.370000000000000218,-9.598030454734836070
0.371000000000000218,-9.516628831743398464
0.372000000000000219,-9.434520954126542236
0.373000000000000220,-9.351740712861584370
0.374000000000000221,-9.268322250306265886
0.375000000000000222,-9.184299923224031659
0.376000000000000223,-9.099708265853163169
0.377000000000000224,-9.014581953122975833
0.378000000000000225,-8.928955764113714721
0.379000000000000226,-8.842864545850446234
0.380000000000000226,-8.756343177515022447
0.381000000000000227,-8.669426535153771596
0.382000000000000228,-8.582149456953084510
0.383000000000000229,-8.494546709149037866
0.384000000000000230,-8.406652952631523235
0.385000000000000231,-8.318502710298513847
0.386000000000000232,-8.230130335210215975
0.387000000000000233,-8.141569979588492600
0.388000000000000234,-8.052855564701735247
0.389000000000000234,-7.964020751671145426
0.390000000000000235,-7.875098913229588327
0.391000000000000236,-7.786123106460488330
0.392000000000000237,-7.697126046539743527
0.393000000000000238,-7.608140081500278207
0.394000000000000239,-7.519197168034890133
0.395000000000000240,-7.430328848349913251
0.396000000000000241,-7.341566228078809431
0.397000000000000242,-7.252939955261751948
0.398000000000000242,-7.164480200394566900
0.399000000000000243,-7.076216637547420696
0.400000000000000244,-6.988178426551276523
0.401000000000000245,-6.900394196247847667
0.402000000000000246,-6.812892028796329491
0.403000000000000247,-6.725699445028240575
0.404000000000000248,-6.638843390839911152
0.405000000000000249,-6.552350224610199447
0.406000000000000250,-6.466245705629465768
0.407000000000000250,-6.380554983524361568
0.408000000000000251,-6.295302588661553678
0.409000000000000252,-6.210512423512357216
0.410000000000000253,-6.126207754958990392
0.411000000000000254,-6.042411207522269123
0.412000000000000255,-5.959144757489575284
0.413000000000000256,-5.876429727921195223
0.414000000000000257,-5.794286784512269861
0.415000000000000258,-5.712735932287250407
0.416000000000000258,-5.631796513102905521
0.417000000000000259,-5.551487203935755232
0.418000000000000260,-5.471826015929305065
0.419000000000000261,-5.392830294176153672
0.420000000000000262,-5.314516718209937096
0.421000000000000263,-5.236901303181856981
0.422000000000000264,-5.159999401696405030
0.423000000000000265,-5.083825706280930667
0.424000000000000266,-5.008394252463823193
0.425000000000000266,-4.933718422435881656
0.426000000000000267,-4.859810949269883551
0.427000000000000268,-4.786683921673314579
0.428000000000000269,-4.714348789249532601
0.429000000000000270,-4.642816368242924874
0.430000000000000271,-4.572096847743731374
0.431000000000000272,-4.502199796328775427
0.432000000000000273,-4.433134169114444134
0.433000000000000274,-4.364908315198864130
0.434000000000000274,-4.297529985470371017
0.435000000000000275,-4.231006340760034234
0.436000000000000276,-4.165343960316306493
0.437000000000000277,-4.100548850580270077
0.438000000000000278,-4.036626454240603401
0.439000000000000279,-3.973581659547757106
0.440000000000000280,-3.911418809867268642
0.441000000000000281,-3.850141713452836623
0.442000000000000282,-3.789753653420163459
0.443000000000000282,-3.730257397903037564
0.444000000000000283,-3.671655210373893308
0.445000000000000284,-3.613948860111359629
0.446000000000000285,-3.557139632797908124
0.447000000000000286,-3.501228341231500618
0.448000000000000287,-3.446215336135172613
0.449000000000000288,-3.392100517049593034
0.450000000000000289,-3.338883343293681527
0.451000000000000290,-3.286562844979231013
0.452000000000000290,-3.235137634065860190
0.453000000000000291,-3.184605915443137203
0.454000000000000292,-3.134965498027340480
0.455000000000000293,-3.086213805860658521
0.456000000000000294,-3.038347889201348462
0.457000000000000295,-2.991364435593685478
0.458000000000000296,-2.945259780907113711
0.459000000000000297,-2.900029920334525890
0.460000000000000298,-2.855670519339940761
0.461000000000000298,-2.812176924546491374
0.462000000000000299,-2.769544174555944149
0.463000000000000300,-2.727767010691453997
0.464000000000000301,-2.686839887655781300
0.465000000000000302,-2.646756984097518917
0.466000000000000303,-2.607512213078316154
0.467000000000000304,-2.569099232434528535
0.468000000000000305,-2.531511455027138702
0.469000000000000306,-2.494742058874057200
0.470000000000000306,-2.458783997159486923
0.471000000000000307,-2.423630008115158496
0.472000000000000308,-2.389272624768855380
0.473000000000000309,-2.355704184555757141
0.474000000000000310,-2.322916838788648963
0.475000000000000311,-2.290902561983207519
0.476000000000000312,-2.259653161035118263
0.477000000000000313,-2.229160284245710777
0.478000000000000314,-2.199415430193511600
0.479000000000000314,-2.170409956449121935
0.480000000000000315,-2.142135088131123855
0.481000000000000316,-2.114581926301147607
0.482000000000000317,-2.087741456196256173
0.483000000000000318,-2.061604555297251729
0.484000000000000319,-2.036162001231557106
0.485000000000000320,-2.011404479509764531
0.486000000000000321,-1.987322591094919932
0.487000000000000322,-1.963906859804001481
0.488000000000000322,-1.941147739541144279
0.489000000000000323,-1.919035621362443322
0.490000000000000324,-1.897560840372229496
0.491000000000000325,-1.876713682450990905
0.492000000000000326,-1.856484390815186458
0.493000000000000327,-1.836863172409473055
0.494000000000000328,-1.817840204131866866
0.495000000000000329,-1.799405638892623838
0.496000000000000330,-1.781549611507691866
0.497000000000000330,-1.764262244427737159
0.498000000000000331,-1.747533653303842582
0.499000000000000332,-1.731353952391148976
0.500000000000000333,-1.715713259791731726
0.501000000000000334,-1.700601702538151017
0.502000000000000335,-1.686009421519230500
0.503000000000000336,-1.671926576249663343
0.504000000000000337,-1.658343349485128071
0.505000000000000338,-1.645249951684713441
0.506000000000000338,-1.632636625322483992
0.507000000000000339,-1.620493649050094520
0.508000000000000340,-1.608811341712410137
0.509000000000000341,-1.597580066218212691
0.510000000000000342,-1.586790233267994399
0.511000000000000343,-1.576432304941018048
0.512000000000000344,-1.566496798143784730
0.513000000000000345,-1.556974287922117783
0.514000000000000346,-1.547855410639128015
0.515000000000000346,-1.539130867021264892
0.516000000000000347,-1.530791425074805812
0.517000000000000348,-1.522827922875108708
0.518000000000000349,-1.515231271230896182
0.519000000000000350,-1.507992456225986988
0.520000000000000351,-1.501102541640839227
0.521000000000000352,-1.494552671256247134
0.522000000000000353,-1.488334071041604867
0.523000000000000353,-1.482438051230105414
0.524000000000000354,-1.476856008283300659
0.525000000000000355,-1.471579426747379182
0.526000000000000356,-1.466599881003544992
0.527000000000000357,-1.461909036914941229
0.528000000000000358,-1.457498653372411024
0.529000000000000359,-1.453360583741526213
0.530000000000000360,-1.449486777213216060
0.531000000000000361,-1.445869280060341655
0.532000000000000361,-1.442500236802541247
0.533000000000000362,-1.439371891281685745
0.534000000000000363,-1.436476587650198811
0.535000000000000364,-1.433806771274559466
0.536000000000000365,-1.431354989556217205
0.537000000000000366,-1.429113892672174702
0.538000000000000367,-1.427076234237423691
0.539000000000000368,-1.425234871891481570
0.540000000000000369,-1.423582767811111927
0.541000000000000369,-1.422112989151448348
0.542000000000000370,-1.420818708417585841
0.543000000000000371,-1.419693203768733092
0.544000000000000372,-1.418729859257016335
0.545000000000000373,-1.417922165002921675
0.546000000000000374,-1.417263717309404480
0.547000000000000375,-1.416748218716624264
0.548000000000000376,-1.416369477999271043
0.549000000000000377,-1.416121410108359902
0.550000000000000377,-1.415998036059388010
0.551000000000000378,-1.415993482768728384
0.552000000000000379,-1.416101982840024309
0.553000000000000380,-1.416317874302437385
0.554000000000000381,-1.416635600302430076
0.555000000000000382,-1.417049708750888648
0.556000000000000383,-1.417554851927178339
0.557000000000000384,-1.418145786041888234
0.558000000000000385,-1.418817370759811736
0.559000000000000385,-1.419564568684815287
0.560000000000000386,-1.420382444808097055
0.561000000000000387,-1.421266165921429625
0.562000000000000388,-1.422210999996824654
0.563000000000000389,-1.423212315534132077
0.564000000000000390,-1.424265580877957849
0.565000000000000391,-1.425366363505360834
0.566000000000000392,-1.426510329285629819
0.567000000000000393,-1.427693241713547501
0.568000000000000393,-1.428910961117386247
0.569000000000000394,-1.430159443842965006
0.570000000000000395,-1.431434741414971956
0.571000000000000396,-1.432732999676785246
0.572000000000000397,-1.434050457910001075
0.573000000000000398,-1.435383447934754475
0.574000000000000399,-1.436728393192055808
0.575000000000000400,-1.438081807809147072
0.576000000000000401,-1.439440295648999335
0.577000000000000401,-1.440800549344996018
0.578000000000000402,-1.442159349321776585
0.579000000000000403,-1.443513562803238282
0.580000000000000404,-1.444860142808684245
0.581000000000000405,-1.446196127137997944
0.582000000000000406,-1.447518637346782544
0.583000000000000407,-1.448824877712323156
0.584000000000000408,-1.450112134191241520
0.585000000000000409,-1.451377773369631807
0.586000000000000409,-1.452619241406537975
0.587000000000000410,-1.453834062971492092
0.588000000000000411,-1.455019840176887680
0.589000000000000412,-1.456174251505938155
0.590000000000000413,-1.457295050736878483
0.591000000000000414,-1.458380065864132602
0.592000000000000415,-1.459427198017097416
0.593000000000000416,-1.460434420377160203
0.594000000000000417,-1.461399777093594032
0.595000000000000417,-1.462321382198920272
0.596000000000000418,-1.463197418524280424
0.597000000000000419,-1.464026136615426577
0.598000000000000420,-1.464805853649813416
0.599000000000000421,-1.465534952355338039
0.600000000000000422,-1.466211879931213602
0.601000000000000423,-1.466835146971438464
0.602000000000000424,-1.467403326391345963
0.603000000000000425,-1.467915052357667172
0.604000000000000425,-1.468369019222504290
0.605000000000000426,-1.468763980461649243
0.606000000000000427,-1.469098747617654244
0.607000000000000428,-1.469372189247930782
0.608000000000000429,-1.469583229878408392
0.609000000000000430,-1.469730848962867098
0.610000000000000431,-1.469814079848506427
0.611000000000000432,-1.469832008747873564
