# tri-graphene_BGALNA-JS
# h[nm],U(h)[kJ/mol]
0.200000000000000011,106.487784374133667598
0.201000000000000012,105.477351646153422848
0.202000000000000013,103.412006222013246770
0.203000000000000014,100.911528078003726705
0.204000000000000015,98.317343836676542423
0.205000000000000016,95.796735742891343079
0.206000000000000016,93.413130840019164225
0.207000000000000017,91.172373125190532051
0.208000000000000018,89.052225187580745569
0.209000000000000019,87.020356686592847950
0.210000000000000020,85.044595767568949896
0.211000000000000021,83.098123456834940725
0.212000000000000022,81.161485949095364845
0.213000000000000023,79.222713259186633650
0.214000000000000024,77.276409779049842541
0.215000000000000024,75.322380861995199552
0.216000000000000025,73.364147810292777763
0.217000000000000026,71.407557537149301652
0.218000000000000027,69.459594662385967467
0.219000000000000028,67.527439405913185055
0.220000000000000029,65.617774366769978656
0.221000000000000030,63.736319757599517288
0.222000000000000031,61.887564534216309653
0.223000000000000032,60.074656240000891216
0.224000000000000032,58.299412511914532331
0.225000000000000033,56.562420130980569866
0.226000000000000034,54.863191913600431349
0.227000000000000035,53.200356740863284699
0.228000000000000036,51.571863038271956725
0.229000000000000037,49.975180700292305858
0.230000000000000038,48.407490611723382301
0.231000000000000039,46.865854466445981075
0.232000000000000040,45.347360509027467401
0.233000000000000040,43.849243155235697600
0.234000000000000041,42.368976238488485819
0.235000000000000042,40.904340948084140450
0.236000000000000043,39.453470443267093515
0.237000000000000044,38.014873714879954036
0.238000000000000045,36.587441588765116762
0.239000000000000046,35.170437880714665368
0.240000000000000047,33.763478672553631554
0.241000000000000048,32.366502526135263906
0.242000000000000048,30.979734222497548046
0.243000000000000049,29.603644336269457682
0.244000000000000050,28.238906653673474523
0.245000000000000051,26.886355133898348413
0.246000000000000052,25.546941811509103815
0.247000000000000053,24.221696751423593241
0.248000000000000054,22.911690904271420521
0.249000000000000055,21.618002472624642252
0.250000000000000056,20.341687189672487790
0.251000000000000056,19.083752731923336654
0.252000000000000057,17.845137335863260120
0.253000000000000058,16.626692563781610090
0.254000000000000059,15.429170064242990534
0.255000000000000060,14.253212095658877701
0.256000000000000061,13.099345524622702186
0.257000000000000062,11.967978971602414973
0.258000000000000063,10.859402752752037813
0.259000000000000064,9.773791255635313036
0.260000000000000064,8.711207386328194247
0.261000000000000065,7.671608733647299339
0.262000000000000066,6.654855111293355385
0.263000000000000067,5.660717158878103561
0.264000000000000068,4.688885706684263965
0.265000000000000069,3.738981635363211264
0.266000000000000070,2.810565989561637057
0.267000000000000071,1.903150132810608186
0.268000000000000071,1.016205759199962255
0.269000000000000072,0.149174604822169432
0.270000000000000073,-0.698522271740693146
0.271000000000000074,-1.527475745830709997
0.272000000000000075,-2.338280502938735239
0.273000000000000076,-3.131527596520176537
0.274000000000000077,-3.907797730049542562
0.275000000000000078,-4.667655288856414231
0.276000000000000079,-5.411643132194945416
0.277000000000000079,-6.140278142875325251
0.278000000000000080,-6.854047520543815608
0.279000000000000081,-7.553405795244690246
0.280000000000000082,-8.238772530109082837
0.281000000000000083,-8.910530675771699549
0.282000000000000084,-9.569025534279223422
0.283000000000000085,-10.214564286692118245
0.284000000000000086,-10.847416036160522523
0.285000000000000087,-11.467812316839271602
0.286000000000000087,-12.075948018476633905
0.287000000000000088,-12.671982676740508822
0.288000000000000089,-13.256042080223370050
0.289000000000000090,-13.828220146489115905
0.290000000000000091,-14.388581021390169923
0.291000000000000092,-14.937161358108426157
0.292000000000000093,-15.473972734873493451
0.293000000000000094,-15.999004173017365105
0.294000000000000095,-16.512224719871262835
0.295000000000000095,-17.013586063942039317
0.296000000000000096,-17.503025152772316630
0.297000000000000097,-17.980466786849227390
0.298000000000000098,-18.445826165845367939
0.299000000000000099,-18.899011366321570193
0.300000000000000100,-19.339925732770034017
0.301000000000000101,-19.768470166509377606
0.302000000000000102,-20.184545299441683852
0.303000000000000103,-20.588053542038995403
0.304000000000000103,-20.978900997128260286
0.305000000000000104,-21.356999233090512291
0.306000000000000105,-21.722266911974752901
0.307000000000000106,-22.074631269751556317
0.308000000000000107,-22.414029447497068048
0.309000000000000108,-22.740409673706562188
0.310000000000000109,-23.053732299195495159
0.311000000000000110,-23.353970687155701569
0.312000000000000111,-23.641111961908297445
0.313000000000000111,-23.915157620731914534
0.314000000000000112,-24.176124013860295747
0.315000000000000113,-24.424042698339029300
0.316000000000000114,-24.658960671919206931
0.317000000000000115,-24.880940493551626957
0.318000000000000116,-25.090060297338471429
0.319000000000000117,-25.286413707007479701
0.320000000000000118,-25.470109658104071571
0.321000000000000119,-25.641272135158608592
0.322000000000000119,-25.800039831083545039
0.323000000000000120,-25.946565735998706970
0.324000000000000121,-26.081016662576949727
0.325000000000000122,-26.203572714853702763
0.326000000000000123,-26.314426707258252947
0.327000000000000124,-26.413783540407838046
0.328000000000000125,-26.501859539962804746
0.329000000000000126,-26.578881764575761792
0.330000000000000127,-26.645087288686408300
0.331000000000000127,-26.700722465618060397
0.332000000000000128,-26.746042176127314605
0.333000000000000129,-26.781309067247114797
0.334000000000000130,-26.806792785948367452
0.335000000000000131,-26.822769211830689073
0.336000000000000132,-26.829519692737626713
0.337000000000000133,-26.827330286882137500
0.338000000000000134,-26.816491014762895873
0.339000000000000135,-26.797295123853125176
0.340000000000000135,-26.770038368754502045
0.341000000000000136,-26.735018309227125854
0.342000000000000137,-26.692533628236787990
0.343000000000000138,-26.642883471900653092
0.344000000000000139,-26.586366812964875805
0.345000000000000140,-26.523281839211865218
0.346000000000000141,-26.453925367970860805
0.347000000000000142,-26.378592287694640817
0.348000000000000143,-26.297575027366740130
0.349000000000000143,-26.211163054317403009
0.350000000000000144,-26.119642400852995934
0.351000000000000145,-26.023295219942696122
0.352000000000000146,-25.922399370056883328
0.353000000000000147,-25.817228029114680510
0.354000000000000148,-25.708049337372102627
0.355000000000000149,-25.595126068967744004
0.356000000000000150,-25.478715331738889915
0.357000000000000151,-25.359068294827523005
0.358000000000000151,-25.236429943511549112
0.359000000000000152,-25.111038860622489466
0.360000000000000153,-24.983127033845505593
0.361000000000000154,-24.852919688140531207
0.362000000000000155,-24.720635142474165491
0.363000000000000156,-24.586484690011243259
0.364000000000000157,-24.450672500879740312
0.365000000000000158,-24.313395546595859997
0.366000000000000159,-24.174843545213967388
0.367000000000000159,-24.035198926250405549
0.368000000000000160,-23.894636814419889959
0.369000000000000161,-23.753325031217173091
0.370000000000000162,-23.611424113375662159
0.371000000000000163,-23.469087347237913121
0.372000000000000164,-23.326460818078761150
0.373000000000000165,-23.183683473432989075
0.374000000000000166,-23.040887199491500326
0.375000000000000167,-22.898196909646369335
0.376000000000000167,-22.755730644283225672
0.377000000000000168,-22.613599680939596936
0.378000000000000169,-22.471908653970324110
0.379000000000000170,-22.330755682884792179
0.380000000000000171,-22.190232508546010592
0.381000000000000172,-22.050424636447996107
0.382000000000000173,-21.911411486314797514
0.383000000000000174,-21.773266547293413709
0.384000000000000175,-21.636057538040475379
0.385000000000000175,-21.499846571032303899
0.386000000000000176,-21.364690320457114581
0.387000000000000177,-21.230640193077171318
0.388000000000000178,-21.097742501478943922
0.389000000000000179,-20.966038639157559942
0.390000000000000180,-20.835565256911980470
0.391000000000000181,-20.706354440055243060
0.392000000000000182,-20.578433885973144157
0.393000000000000183,-20.451827081592078628
0.394000000000000183,-20.326553480344536240
0.395000000000000184,-20.202628678247343430
0.396000000000000185,-20.080064588733666398
0.397000000000000186,-19.958869615905594941
0.398000000000000187,-19.839048825898522921
0.399000000000000188,-19.720604116072401268
0.400000000000000189,-19.603534381768525918
0.401000000000000190,-19.487835680392176840
0.402000000000000191,-19.373501392603703408
0.403000000000000191,-19.260522380420589172
0.404000000000000192,-19.148887142053560240
0.405000000000000193,-19.038581963318236490
0.406000000000000194,-18.929591065482394896
0.407000000000000195,-18.821896749426159090
0.408000000000000196,-18.715479536008711392
0.409000000000000197,-18.610318302551171143
0.410000000000000198,-18.506390415360009172
0.411000000000000199,-18.403671858229319724
0.412000000000000199,-18.302137356873782181
0.413000000000000200,-18.201760499256732118
0.414000000000000201,-18.102513851789421295
0.415000000000000202,-18.004369071388531154
0.416000000000000203,-17.907297013389825935
0.417000000000000204,-17.811267835325008235
0.418000000000000205,-17.716251096578215396
0.419000000000000206,-17.622215853946876507
0.420000000000000207,-17.529130753139281040
0.421000000000000207,-17.436964116248823586
0.422000000000000208,-17.345684025250818650
0.423000000000000209,-17.255258401574515403
0.424000000000000210,-17.165655081808086635
0.425000000000000211,-17.076841889599243984
0.426000000000000212,-16.988786703819297230
0.427000000000000213,-16.901457523061679922
0.428000000000000214,-16.814822526550450732
0.429000000000000214,-16.728850131536809442
0.430000000000000215,-16.643509047264970491
0.431000000000000216,-16.558768325590921933
0.432000000000000217,-16.474597408339743509
0.433000000000000218,-16.390966171488994263
0.434000000000000219,-16.307844966266980435
0.435000000000000220,-16.225204657256007579
0.436000000000000221,-16.143016657591470420
0.437000000000000222,-16.061252961348166934
0.438000000000000222,-15.979886173205875011
0.439000000000000223,-15.898889535485926316
0.440000000000000224,-15.818236952650831739
0.441000000000000225,-15.737903013358309323
0.442000000000000226,-15.657863010161131356
0.443000000000000227,-15.578092956942773739
0.444000000000000228,-15.498569604179081693
0.445000000000000229,-15.419270452114185233
0.446000000000000230,-15.340173761938478592
0.447000000000000230,-15.261258565055120684
0.448000000000000231,-15.182504670520202694
0.449000000000000232,-15.103892670740027171
0.450000000000000233,-15.025403945508164938
0.451000000000000234,-14.947020664462522532
0.452000000000000235,-14.868725788041714964
0.453000000000000236,-14.790503067017818140
0.454000000000000237,-14.712337040681333633
0.455000000000000238,-14.634213033751738209
0.456000000000000238,-14.556117152085903399
0.457000000000000239,-14.478036277254101805
0.458000000000000240,-14.399958060051989861
0.459000000000000241,-14.321870913014498328
0.460000000000000242,-14.243764001996263246
0.461000000000000243,-14.165627236880567352
0.462000000000000244,-14.087451261477607289
0.463000000000000245,-14.009227442670018959
0.464000000000000246,-13.930947858862769095
0.465000000000000246,-13.852605287791556421
0.466000000000000247,-13.774193193742576113
0.467000000000000248,-13.695705714234410522
0.468000000000000249,-13.617137646210931479
0.469000000000000250,-13.538484431792221940
0.470000000000000251,-13.459742143628739441
0.471000000000000252,-13.380907469901938356
0.472000000000000253,-13.301977699013324496
0.473000000000000254,-13.222950704001259936
0.474000000000000254,-13.143824926724125390
0.475000000000000255,-13.064599361845873560
0.476000000000000256,-12.985273540659008518
0.477000000000000257,-12.905847514778040264
0.478000000000000258,-12.826321839734893260
0.479000000000000259,-12.746697558506493664
0.480000000000000260,-12.666976185002855715
0.481000000000000261,-12.587159687542763820
0.482000000000000262,-12.507250472342690273
0.483000000000000262,-12.427251367043178121
0.484000000000000263,-12.347165604295414099
0.485000000000000264,-12.266996805429723594
0.486000000000000265,-12.186748964226136849
0.487000000000000266,-12.106426430806077832
0.488000000000000267,-12.026033895663022832
0.489000000000000268,-11.945576373848883378
0.490000000000000269,-11.865059189331491396
0.491000000000000270,-11.784487959537937485
0.492000000000000270,-11.703868580096898455
0.493000000000000271,-11.623207209792649763
0.494000000000000272,-11.542510255742097769
0.495000000000000273,-11.461784358805328310
0.496000000000000274,-11.381036379239471756
0.497000000000000275,-11.300273382604483885
0.498000000000000276,-11.219502625928893025
0.499000000000000277,-11.138731544142711272
0.500000000000000222,-11.057967736783734125
0.501000000000000334,-10.977218954983142041
0.502000000000000224,-10.896493088735230259
0.503000000000000336,-10.815798154455531943
0.504000000000000226,-10.735142282831297678
0.505000000000000338,-10.654533706966960338
0.506000000000000227,-10.573980750827644215
0.507000000000000339,-10.493491817982105729
0.508000000000000229,-10.413075380647061507
0.509000000000000341,-10.332739969033363892
0.510000000000000231,-10.252494160995093253
0.511000000000000343,-10.172346571980877883
0.512000000000000233,-10.092305845287796728
0.513000000000000345,-10.012380642616431459
0.514000000000000234,-9.932579634926593570
0.515000000000000346,-9.852911493591484771
0.516000000000000236,-9.773384881849191075
0.517000000000000348,-9.694008446548778579
0.518000000000000238,-9.614790810189100867
0.519000000000000350,-9.535740563247079749
0.520000000000000240,-9.456866256793041714
0.521000000000000352,-9.378176395389552056
0.522000000000000242,-9.299679430270632707
0.523000000000000353,-9.221383752797487787
0.524000000000000243,-9.143297688187310257
0.525000000000000355,-9.065429489510854921
0.526000000000000245,-8.987787331955111370
0.527000000000000357,-8.910379307346305566
0.528000000000000247,-8.833213418929476646
0.529000000000000359,-8.756297576399598270
0.530000000000000249,-8.679639591180066560
0.531000000000000361,-8.603247171943595006
0.532000000000000250,-8.527127920371066594
0.533000000000000362,-8.451289327143184593
0.534000000000000252,-8.375738768160358561
0.535000000000000364,-8.300483500985622598
0.536000000000000254,-8.225530661505972674
0.537000000000000366,-8.150887260806570112
0.538000000000000256,-8.076560182253555098
0.539000000000000368,-8.002556178779547835
0.540000000000000258,-7.928881870367722406
0.541000000000000369,-7.855543741728465257
0.542000000000000259,-7.782548140164467831
0.543000000000000371,-7.709901273618489093
0.544000000000000261,-7.637609208899267976
0.545000000000000373,-7.565677870080316225
0.546000000000000263,-7.494113037066891359
0.547000000000000375,-7.422920344325729225
0.548000000000000265,-7.352105279773451407
0.549000000000000377,-7.281673183817827244
0.550000000000000266,-7.211629248547988702
0.551000000000000378,-7.141978517068139354
0.552000000000000268,-7.072725882970544831
0.553000000000000380,-7.003876089942806971
0.554000000000000270,-6.935433731505156629
0.555000000000000382,-6.867403250872842868
0.556000000000000272,-6.799788940939649251
0.557000000000000384,-6.732594944377561674
0.558000000000000274,-6.665825253848860044
0.559000000000000385,-6.599483712325783458
0.560000000000000275,-6.533574013514138024
0.561000000000000387,-6.468099702376219007
0.562000000000000277,-6.403064175749406672
0.563000000000000389,-6.338470683056177890
0.564000000000000279,-6.274322327101869767
0.565000000000000391,-6.210622064956156763
0.566000000000000281,-6.147372708914709882
0.567000000000000393,-6.084576927537153068
0.568000000000000282,-6.022237246758042062
0.569000000000000394,-5.960356051066914240
0.570000000000000284,-5.898935584754513961
0.571000000000000396,-5.837977953221313854
0.572000000000000286,-5.777485124345570711
0.573000000000000398,-5.717458929907204279
0.574000000000000288,-5.657901067064876166
0.575000000000000400,-5.598813099882852029
0.576000000000000290,-5.540196460904963871
0.577000000000000401,-5.482052452772558482
0.578000000000000291,-5.424382249883835883
0.579000000000000403,-5.367186900091668988
0.580000000000000293,-5.310467326437454005
0.581000000000000405,-5.254224328918103204
0.582000000000000295,-5.198458586284120386
0.583000000000000407,-5.143170657865814732
0.584000000000000297,-5.088360985425760319
0.585000000000000409,-5.034029895034842994
0.586000000000000298,-4.980177598970001895
0.587000000000000410,-4.926804197631168947
0.588000000000000300,-4.873909681475722344
0.589000000000000412,-4.821493932967999108
0.590000000000000302,-4.769556728542361235
0.591000000000000414,-4.718097740577586130
0.592000000000000304,-4.667116539381008344
0.593000000000000416,-4.616612595180432876
0.594000000000000306,-4.566585280122398949
0.595000000000000417,-4.517033870274882901
0.596000000000000307,-4.467957547633107040
0.597000000000000419,-4.419355402126753596
0.598000000000000309,-4.371226433627307451
0.599000000000000421,-4.323569553953928057
0.600000000000000311,-4.276383588876744746
0.601000000000000423,-4.229667280116002459
0.602000000000000313,-4.183419287336181291
0.603000000000000425,-4.137638190133442251
0.604000000000000314,-4.092322490015826375
0.605000000000000426,-4.047470612374509003
0.606000000000000316,-4.003080908445677544
0.607000000000000428,-3.959151657261484214
0.608000000000000318,-3.915681067589647402
0.609000000000000430,-3.872667279860306788
0.610000000000000320,-3.830108368079760517
0.611000000000000432,-3.788002341729806766
0.612000000000000322,-3.746347147652346443
0.613000000000000433,-3.705140671918149220
0.614000000000000323,-3.664380741679384101
0.615000000000000435,-3.624065127005036580
0.616000000000000325,-3.584191542698770938
0.617000000000000437,-3.544757650098506296
0.618000000000000327,-3.505761058857317813
0.619000000000000439,-3.467199328704964501
0.620000000000000329,-3.429069971189767863
0.621000000000000441,-3.391370451400232522
0.622000000000000330,-3.354098189666105068
0.623000000000000442,-3.317250563238361760
0.624000000000000332,-3.280824907947954561
0.625000000000000444,-3.244818519842771032
0.626000000000000334,-3.209228656802711299
0.627000000000000446,-3.174052540132424660
0.628000000000000336,-3.139287356131632567
0.629000000000000448,-3.104930257642631197
0.630000000000000338,-3.070978365575002922
0.631000000000000449,-3.037428770407070822
0.632000000000000339,-3.004278533664244133
0.633000000000000451,-2.971524689373869599
0.634000000000000341,-2.939164245496664662
0.635000000000000453,-2.907194185334501135
0.636000000000000343,-2.875611468914563762
0.637000000000000455,-2.844413034349758895
0.638000000000000345,-2.813595799175437229
0.639000000000000457,-2.783156661662219200
0.640000000000000346,-2.753092502105199291
0.641000000000000458,-2.723400184089231679
0.642000000000000348,-2.694076555730622324
0.643000000000000460,-2.665118450894994773
0.644000000000000350,-2.636522690391642776
0.645000000000000462,-2.608286083144194301
0.646000000000000352,-2.580405427337908897
0.647000000000000464,-2.552877511543437894
0.648000000000000353,-2.525699115817487961
0.649000000000000465,-2.498867012780086494
0.650000000000000355,-2.472377968669031034
0.651000000000000467,-2.446228744371236719
0.652000000000000357,-2.420416096431476038
0.653000000000000469,-2.394936778038391445
0.654000000000000359,-2.369787539988188918
0.655000000000000471,-2.344965131625926791
0.656000000000000361,-2.320466301764864792
0.657000000000000473,-2.296287799583765388
