# tri-graphene_WaterUCD
# h[nm],U(h)[kJ/mol]
0.149999999999999994,71.213945843527213242
0.150999999999999995,69.915659299659125736
0.151999999999999996,68.543548573666356560
0.152999999999999997,67.130141760952739105
0.153999999999999998,65.717016658968560705
0.154999999999999999,64.334320246353939865
0.156000000000000000,62.996660692685360061
0.157000000000000001,61.705916716647593034
0.158000000000000002,60.456035462181525020
0.159000000000000002,59.237509381977830003
0.160000000000000003,58.040666930842846227
0.161000000000000004,56.857651251539415682
0.162000000000000005,55.683292437552402987
0.163000000000000006,54.515186148517010167
0.164000000000000007,53.353285052152592982
0.165000000000000008,52.199254087609880060
0.166000000000000009,51.055771317387225849
0.167000000000000010,49.925891066669137786
0.168000000000000010,48.812532796102388488
0.169000000000000011,47.718119678632277214
0.170000000000000012,46.644364209453293313
0.171000000000000013,45.592182170027683696
0.172000000000000014,44.561708363471872474
0.173000000000000015,43.552385364367367515
0.174000000000000016,42.563098076057862329
0.175000000000000017,41.592330590615418373
0.176000000000000018,40.638326543458248352
0.177000000000000018,39.699239046816991561
0.178000000000000019,38.773260863310909485
0.179000000000000020,37.858729452383130365
0.180000000000000021,36.954204757207762100
0.181000000000000022,36.058520075884381129
0.182000000000000023,35.170808125677872624
0.183000000000000024,34.290505549788434791
0.184000000000000025,33.417339737932096000
0.185000000000000026,32.551302043753238991
0.186000000000000026,31.692611386861546663
0.187000000000000027,30.841671916908644846
0.188000000000000028,29.999027969526292026
0.189000000000000029,29.165319022471731358
0.190000000000000030,28.341236814273759848
0.191000000000000031,27.527486253637711400
0.192000000000000032,26.724751251433065846
0.193000000000000033,25.933666164664600728
0.194000000000000034,25.154793162463761291
0.195000000000000034,24.388605511165920348
0.196000000000000035,23.635476528071915681
0.197000000000000036,22.895673767651651076
0.198000000000000037,22.169357873913032364
0.199000000000000038,21.456585451488741967
0.200000000000000039,20.757315268262253483
0.201000000000000040,20.071417096634863952
0.202000000000000041,19.398682521733903172
0.203000000000000042,18.738837086451088254
0.204000000000000042,18.091553199347927716
0.205000000000000043,17.456463297116393107
0.206000000000000044,16.833172824159156278
0.207000000000000045,16.221272664445745448
0.208000000000000046,15.620350732307901609
0.209000000000000047,15.030002497110729109
0.210000000000000048,14.449840280200444198
0.211000000000000049,13.879501220107746562
0.212000000000000050,13.318653853018137312
0.213000000000000050,12.767003299699968721
0.214000000000000051,12.224295087371046975
0.215000000000000052,11.690317665574282202
0.216000000000000053,11.164903699369952861
0.217000000000000054,10.647930241501830650
0.218000000000000055,10.139317898200943091
0.219000000000000056,9.639029111540974526
0.220000000000000057,9.147065685356229991
0.221000000000000058,8.663465682282529556
0.222000000000000058,8.188299817057972163
0.223000000000000059,7.721667466381086697
0.224000000000000060,7.263692408871726514
0.225000000000000061,6.814518400482367788
0.226000000000000062,6.374304681477299894
0.227000000000000063,5.943221501200399715
0.228000000000000064,5.521445736605212318
0.229000000000000065,5.109156670190911242
0.230000000000000066,4.706531982801402947
0.231000000000000066,4.313744006881453430
0.232000000000000067,3.930956276390925375
0.233000000000000068,3.558320400763866242
0.234000000000000069,3.195973282145553096
0.235000000000000070,2.844034687699673825
0.236000000000000071,2.502605182081929058
0.237000000000000072,2.171764419235190591
0.238000000000000073,1.851569787471827100
0.239000000000000073,1.542055397352785961
0.240000000000000074,1.243231398119939879
0.241000000000000075,0.955083605355100951
0.242000000000000076,0.677573420080005429
0.243000000000000077,0.410638017631281216
0.244000000000000078,0.154190783293236933
0.245000000000000079,-0.091878029202029948
0.246000000000000080,-0.327700440643237889
0.247000000000000081,-0.553429715182705673
0.248000000000000081,-0.769239179198981327
0.249000000000000082,-0.975320913783846444
0.250000000000000111,-1.171884343679658214
0.251000000000000112,-1.359154744517561797
0.252000000000000113,-1.537371689074384040
0.253000000000000114,-1.706787452008818651
0.254000000000000115,-1.867665391190672208
0.255000000000000115,-2.020278322325921749
0.256000000000000116,-2.164906902133139521
0.257000000000000117,-2.301838033864417987
0.258000000000000118,-2.431363307506066995
0.259000000000000119,-2.553777485558475391
0.260000000000000120,-2.669377043894258339
0.261000000000000121,-2.778458775840823680
0.262000000000000122,-2.881318466338330442
0.263000000000000123,-2.978249641793201619
0.264000000000000123,-3.069542400087884815
0.265000000000000124,-3.155482324122535154
0.266000000000000125,-3.236349481257698280
0.267000000000000126,-3.312417510099220586
0.268000000000000127,-3.383952795219200116
0.269000000000000128,-3.451213729638001215
0.270000000000000129,-3.514450064202022439
0.271000000000000130,-3.573902342377238917
0.272000000000000131,-3.629801418437283100
0.273000000000000131,-3.682368056553850355
0.274000000000000132,-3.731812607893259859
0.275000000000000133,-3.778334762482270293
0.276000000000000134,-3.822123372324940593
0.277000000000000135,-3.863356342026484036
0.278000000000000136,-3.902200583005754453
0.279000000000000137,-3.938812027250939707
0.280000000000000138,-3.973335696489442626
0.281000000000000139,-4.005905822598807120
0.282000000000000139,-4.036646015076959415
0.283000000000000140,-4.065669471413408509
0.284000000000000141,-4.093079226254724645
0.285000000000000142,-4.118968435334291911
0.286000000000000143,-4.143420690234718151
0.287000000000000144,-4.166510360168169669
0.288000000000000145,-4.188302957093207546
0.289000000000000146,-4.208855520632294400
0.290000000000000147,-4.228217019411496302
0.291000000000000147,-4.246428765608800227
0.292000000000000148,-4.263524839669563526
0.293000000000000149,-4.279532522323523658
0.294000000000000150,-4.294472731216968597
0.295000000000000151,-4.308360459653855834
0.296000000000000152,-4.321205215119706011
0.297000000000000153,-4.333011455440868076
0.298000000000000154,-4.343779020607844821
0.299000000000000155,-4.353503558464336010
0.300000000000000155,-4.362176942632077115
0.301000000000000156,-4.369787681205272278
0.302000000000000157,-4.376321314906545190
0.303000000000000158,-4.381760803548369054
0.304000000000000159,-4.386086899789829907
0.305000000000000160,-4.389278509317373178
0.306000000000000161,-4.391313036710508655
0.307000000000000162,-4.392166716378428148
0.308000000000000163,-4.391814928071267055
0.309000000000000163,-4.390232496580582122
0.310000000000000164,-4.387393975347069208
0.311000000000000165,-4.383273913789842879
0.312000000000000166,-4.377847108261199160
0.313000000000000167,-4.371088836613127526
0.314000000000000168,-4.362975076437709987
0.315000000000000169,-4.353482707112871886
0.316000000000000170,-4.342589695847951070
0.317000000000000171,-4.330275267980463028
0.318000000000000171,-4.316520061826492061
0.319000000000000172,-4.301306268432830926
0.320000000000000173,-4.284617756619033102
0.321000000000000174,-4.266440183732756353
0.322000000000000175,-4.246761092572235441
0.323000000000000176,-4.225569994955544750
0.324000000000000177,-4.202858442437906739
0.325000000000000178,-4.178620084696017756
0.326000000000000179,-4.152850716112373775
0.327000000000000179,-4.125548311102922305
0.328000000000000180,-4.096713048738726215
0.329000000000000181,-4.066347327216822016
0.330000000000000182,-4.034455768736664893
0.331000000000000183,-4.001045215338157490
0.332000000000000184,-3.966124716253664140
0.333000000000000185,-3.929705507321458846
0.334000000000000186,-3.891800983000825997
0.335000000000000187,-3.852426661520309104
0.336000000000000187,-3.811600143680359487
0.337000000000000188,-3.769341065819947545
0.338000000000000189,-3.725671047444149675
0.339000000000000190,-3.680613633995812872
0.340000000000000191,-3.634194235239815107
0.341000000000000192,-3.586440059713285500
0.342000000000000193,-3.537380045678931939
0.343000000000000194,-3.487044789002516243
0.344000000000000195,-3.435466468358449710
0.345000000000000195,-3.382678768150699788
0.346000000000000196,-3.328716799518719682
0.347000000000000197,-3.273617019780897586
0.348000000000000198,-3.217417150650718760
0.349000000000000199,-3.160156095543329879
0.350000000000000200,-3.101873856273316576
0.351000000000000201,-3.042611449427143899
0.352000000000000202,-2.982410822677218132
0.353000000000000203,-2.921314771287884859
0.354000000000000203,-2.859366855047471567
0.355000000000000204,-2.796611315844664603
0.356000000000000205,-2.733092996092096882
0.357000000000000206,-2.668857258184913039
0.358000000000000207,-2.603949905167406431
0.359000000000000208,-2.538417102766833189
0.360000000000000209,-2.472305302939618254
0.361000000000000210,-2.405661169062082827
0.362000000000000210,-2.338531502885012436
0.363000000000000211,-2.270963173359234144
0.364000000000000212,-2.203003047427604333
0.365000000000000213,-2.134697922867569986
0.366000000000000214,-2.066094463257815317
0.367000000000000215,-1.997239135132217402
0.368000000000000216,-1.928178147374695062
0.369000000000000217,-1.858957392899255101
0.370000000000000218,-1.789622392650861205
0.371000000000000218,-1.720218241954418747
0.372000000000000219,-1.650789559231501169
0.373000000000000220,-1.581380437096989500
0.374000000000000221,-1.512034395841078460
0.375000000000000222,-1.442794339295474515
0.376000000000000223,-1.373702513076799026
0.377000000000000224,-1.304800465194481118
0.378000000000000225,-1.236129009005277446
0.379000000000000226,-1.167728188491753194
0.380000000000000226,-1.099637245837639110
0.381000000000000227,-1.031894591268819550
0.382000000000000228,-0.964537775125118180
0.383000000000000229,-0.897603462124559215
0.384000000000000230,-0.831127407778652794
0.385000000000000231,-0.765144436914682258
0.386000000000000232,-0.699688424258246289
0.387000000000000233,-0.634792277027276697
0.388000000000000234,-0.570487919486713846
0.389000000000000234,-0.506806279411427196
0.390000000000000235,-0.443777276403377108
0.391000000000000236,-0.381429812007972879
0.392000000000000237,-0.319791761573341993
0.393000000000000238,-0.258889967795652320
0.394000000000000239,-0.198750235892785621
0.395000000000000240,-0.139397330348369819
0.396000000000000241,-0.080854973167826305
0.397000000000000242,-0.023145843587934499
0.398000000000000242,0.033708420818467588
0.399000000000000243,0.089687221700945008
0.400000000000000244,0.144770996211204650
0.401000000000000245,0.198941212061514439
0.402000000000000246,0.252180361419094612
0.403000000000000247,0.304471953692926844
0.404000000000000248,0.355800507268756228
0.405000000000000249,0.406151540247370879
0.406000000000000250,0.455511560240335456
0.407000000000000250,0.503868053276424144
0.408000000000000251,0.551209471871096479
0.409000000000000252,0.597525222310183679
0.410000000000000253,0.642805651198057215
0.411000000000000254,0.687042031319229141
0.412000000000000255,0.730226546861331371
0.413000000000000256,0.772352278046104290
0.414000000000000257,0.813413185213917367
0.415000000000000258,0.853404092405952830
0.416000000000000258,0.892320670487083634
0.417000000000000259,0.930159419851052327
0.418000000000000260,0.966917652748357170
0.419000000000000261,1.002593475275949331
0.420000000000000262,1.037185769066473862
0.421000000000000263,1.070694172713590353
0.422000000000000264,1.103119062968512143
0.423000000000000265,1.134461535741739358
0.424000000000000266,1.164723386942461580
0.425000000000000266,1.193907093187110302
0.426000000000000267,1.222015792407026513
0.427000000000000268,1.249053264384126116
0.428000000000000269,1.275023911242125774
0.429000000000000270,1.299932737919700099
0.430000000000000271,1.323785332650772695
0.431000000000000272,1.346587847475916533
0.432000000000000273,1.368346978807715386
0.433000000000000274,1.389069948071798510
0.434000000000000274,1.408764482444148314
0.435000000000000275,1.427438795704196517
0.436000000000000276,1.445101569222149385
0.437000000000000277,1.461761933097979416
0.438000000000000278,1.477429447468470380
0.439000000000000279,1.492114083997738261
0.440000000000000280,1.505826207565695407
0.441000000000000281,1.518576558168007296
0.442000000000000282,1.530376233040107170
0.443000000000000282,1.541236669017118643
0.444000000000000283,1.551169625140472075
0.445000000000000284,1.560187165521364383
0.446000000000000285,1.568301642470354418
0.447000000000000286,1.575525679901514042
0.448000000000000287,1.581872157019005520
0.449000000000000288,1.587354192293059851
0.450000000000000289,1.591985127731749605
0.451000000000000290,1.595778513454243264
0.452000000000000290,1.598748092570591917
0.453000000000000291,1.600907786372494090
0.454000000000000292,1.602271679838877194
0.455000000000000293,1.602854007459598051
0.456000000000000294,1.602669139379987229
0.457000000000000295,1.601731567868488693
0.458000000000000296,1.600055894109087662
0.459000000000000297,1.597656815319834722
0.460000000000000298,1.594549112198217378
0.461000000000000298,1.590747636693822020
0.462000000000000299,1.586267300108187950
0.463000000000000300,1.581123061521505058
0.464000000000000301,1.575329916545318287
0.465000000000000302,1.568902886400133978
0.466000000000000303,1.561857007316454826
0.467000000000000304,1.554207320257497305
0.468000000000000305,1.545968860961471236
0.469000000000000306,1.537156650301140903
0.470000000000000306,1.527785684958024248
0.471000000000000307,1.517870928408411535
0.472000000000000308,1.507427302218111942
0.473000000000000309,1.496469677642658924
0.474000000000000310,1.485012867529503344
0.475000000000000311,1.473071618518484893
0.476000000000000312,1.460660603536813706
0.477000000000000313,1.447794414584513856
0.478000000000000314,1.434487555806235992
0.479000000000000314,1.420754436845136581
0.480000000000000315,1.406609366474478762
0.481000000000000316,1.392066546502414903
0.482000000000000317,1.377140065945401171
0.483000000000000318,1.361843895465531418
0.484000000000000319,1.346191882067057533
0.485000000000000320,1.330197744047244779
0.486000000000000321,1.313875066196699581
0.487000000000000322,1.297237295244225042
0.488000000000000322,1.280297735541223059
0.489000000000000323,1.263069544980644165
0.490000000000000324,1.245565731145428234
0.491000000000000325,1.227799147681396308
0.492000000000000326,1.209782490889512729
0.493000000000000327,1.191528296532451847
0.494000000000000328,1.173048936850366708
0.495000000000000329,1.154356617780835537
0.496000000000000330,1.135463376377873201
0.497000000000000330,1.116381078425009665
0.498000000000000331,1.097121416237375469
0.499000000000000332,1.077695906647850421
0.500000000000000333,1.058115889172246193
0.501000000000000334,1.038392524348643375
0.502000000000000335,1.018536792245966494
0.503000000000000336,0.998559491136961741
0.504000000000000337,0.978471236330752170
0.505000000000000338,0.958282459160239242
0.506000000000000338,0.938003406119620520
0.507000000000000339,0.917644138147391430
0.508000000000000340,0.897214530050219339
0.509000000000000341,0.876724270063181543
0.510000000000000342,0.856182859541851249
0.511000000000000343,0.835599612781858125
0.512000000000000344,0.814983656961545067
0.513000000000000345,0.794343932203471215
0.514000000000000346,0.773689191750497329
0.515000000000000346,0.753028002252369544
0.516000000000000347,0.732368744158676477
0.517000000000000348,0.711719612214192443
0.518000000000000349,0.691088616052669247
0.519000000000000350,0.670483580885240293
0.520000000000000351,0.649912148279587432
0.521000000000000352,0.629381777026232880
0.522000000000000353,0.608899744088258976
0.523000000000000353,0.588473145630902139
0.524000000000000354,0.568108898127556605
0.525000000000000355,0.547813739538714373
0.526000000000000356,0.527594230560565647
0.527000000000000357,0.507456755939936111
0.528000000000000358,0.487407525852371848
0.529000000000000359,0.467452577340301989
0.530000000000000360,0.447597775808158460
0.531000000000000361,0.427848816571534507
0.532000000000000361,0.408211226457447562
0.533000000000000362,0.388690365452896813
0.534000000000000363,0.369291428398950961
0.535000000000000364,0.350019446727673766
0.536000000000000365,0.330879290239284474
0.537000000000000366,0.311875668916998527
0.538000000000000367,0.293013134777075746
0.539000000000000368,0.274296083751663033
0.540000000000000369,0.255728757602097567
0.541000000000000369,0.237315245860394486
0.542000000000000370,0.219059487796706032
0.543000000000000371,0.200965274410621175
0.544000000000000372,0.183036250444207627
0.545000000000000373,0.165275916414808155
0.546000000000000374,0.147687630665605973
0.547000000000000375,0.130274611432097009
0.548000000000000376,0.113039938922610064
0.549000000000000377,0.095986557411132739
0.550000000000000377,0.079117277340695596
0.551000000000000378,0.062434777435680287
0.552000000000000379,0.045941606821454282
0.553000000000000380,0.029640187149758836
0.554000000000000381,0.013532814728391837
0.555000000000000382,-0.002378337346272253
0.556000000000000383,-0.018091217055309576
0.557000000000000384,-0.033603891323147096
0.558000000000000385,-0.048914543884630159
0.559000000000000385,-0.064021473154498437
0.560000000000000386,-0.078923090100430887
0.561000000000000387,-0.093617916120843192
0.562000000000000388,-0.108104580928490318
0.563000000000000389,-0.122381820440969707
0.564000000000000390,-0.136448474679078308
0.565000000000000391,-0.150303485674044168
0.566000000000000392,-0.163945895384512430
0.567000000000000393,-0.177374843624187817
0.568000000000000393,-0.190589566000965271
0.569000000000000394,-0.203589391868373271
0.570000000000000395,-0.216373742290057958
0.571000000000000396,-0.228942128018069846
0.572000000000000397,-0.241294147485637683
0.573000000000000398,-0.253429484815073824
0.574000000000000399,-0.265347907841446129
0.575000000000000400,-0.277049266152613272
0.576000000000000401,-0.288533489146157507
0.577000000000000401,-0.299800584103773249
0.578000000000000402,-0.310850634283588945
0.579000000000000403,-0.321683797030882179
0.580000000000000404,-0.332300301907652140
0.581000000000000405,-0.342700448841434191
0.582000000000000406,-0.352884606293753900
0.583000000000000407,-0.362853209448576408
0.584000000000000408,-0.372606758421078876
0.585000000000000409,-0.382145816487044709
0.586000000000000409,-0.391471008333193260
0.587000000000000410,-0.400583018328666995
0.588000000000000411,-0.409482588817932036
0.589000000000000412,-0.418170518435322436
0.590000000000000413,-0.426647660441385412
0.591000000000000414,-0.434914921081239303
0.592000000000000415,-0.442973257965080081
0.593000000000000416,-0.450823678470973932
0.594000000000000417,-0.458467238170063240
0.595000000000000417,-0.465905039274268851
0.596000000000000418,-0.473138229106593589
0.597000000000000419,-0.480167998594077605
0.598000000000000420,-0.486995580783460391
0.599000000000000421,-0.493622249379589928
0.600000000000000422,-0.500049317306599184
0.601000000000000423,-0.506278135291847065
0.602000000000000424,-0.512310090472628765
0.603000000000000425,-0.518146605025650464
0.604000000000000425,-0.523789134819188429
0.605000000000000426,-0.529239168087941136
0.606000000000000427,-0.534498224130502075
0.607000000000000428,-0.539567852029354422
0.608000000000000429,-0.544449629393386259
0.609000000000000430,-0.549145161122739811
0.610000000000000431,-0.553656078195998602
0.611000000000000432,-0.557984036479532319
0.612000000000000433,-0.562130715558915361
0.613000000000000433,-0.566097817592315922
0.614000000000000434,-0.569887066185677971
0.615000000000000435,-0.573500205289593001
0.616000000000000436,-0.576938998117714430
0.617000000000000437,-0.580205226086551340
