# tri-graphene_HUMICACID-ANION-AC
# h[nm],U(h)[kJ/mol]
0.200000000000000011,109.906092272929683418
0.201000000000000012,107.016535191823578543
0.202000000000000013,104.633000829921385844
0.203000000000000014,102.547788181957542974
0.204000000000000015,100.631220951617294190
0.205000000000000016,98.805758143015438577
0.206000000000000016,97.027804682975528294
0.207000000000000017,95.275129505597931256
0.208000000000000018,93.538327571288803597
0.209000000000000019,91.815164978038708909
0.210000000000000020,90.106951526988666501
0.211000000000000021,88.416315322506619623
0.212000000000000022,86.745926709667770638
0.213000000000000023,85.097847648199334003
0.214000000000000024,83.473277992597743946
0.215000000000000024,81.872540197978665333
0.216000000000000025,80.295194936836779220
0.217000000000000026,78.740216776404011512
0.218000000000000027,77.206185084485099424
0.219000000000000028,75.691463484610508772
0.220000000000000029,74.194353575398849898
0.221000000000000030,72.713216850989653040
0.222000000000000031,71.246563997495741205
0.223000000000000032,69.793113878112436055
0.224000000000000032,68.351826208350871639
0.225000000000000033,66.921912638684915464
0.226000000000000034,65.502831048190842012
0.227000000000000035,64.094267553939545223
0.228000000000000036,62.696110227736028264
0.229000000000000037,61.308417900843110715
0.230000000000000038,59.931386805574604182
0.231000000000000039,58.565317198625599815
0.232000000000000040,57.210581563084893730
0.233000000000000040,55.867595508588429709
0.234000000000000041,54.536792086887203368
0.235000000000000042,53.218599911921081969
0.236000000000000043,51.913425214208572811
0.237000000000000044,50.621637761781514087
0.238000000000000045,49.343560435840565503
0.239000000000000046,48.079462150467961123
0.240000000000000047,46.829553744090880230
0.241000000000000048,45.593986438597340793
0.242000000000000048,44.372852453486544277
0.243000000000000049,43.166187371484653568
0.244000000000000050,41.973973873833791970
0.245000000000000051,40.796146493923195919
0.246000000000000052,39.632597073810444499
0.247000000000000053,38.483180646849959317
0.248000000000000054,37.347721509083257274
0.249000000000000055,36.226019280715064497
0.250000000000000056,35.117854795789511968
0.251000000000000056,34.022995692323171113
0.252000000000000057,32.941201606161023108
0.253000000000000058,31.872228899435800287
0.254000000000000059,30.815834878637293315
0.255000000000000060,29.771781477982806052
0.256000000000000061,28.739838401159182979
0.257000000000000062,27.719785728788082224
0.258000000000000063,26.711416010400608201
0.259000000000000064,25.714535868571431365
0.260000000000000064,24.728967149442631523
0.261000000000000065,23.754547658454459480
0.262000000000000066,22.791131522966193046
0.263000000000000067,21.838589224867639871
0.264000000000000068,20.896807346490462010
0.265000000000000069,19.965688072354883076
0.266000000000000070,19.045148487736476284
0.267000000000000071,18.135119712885760634
0.268000000000000071,17.235545909141546161
0.269000000000000072,16.346383190282161024
0.270000000000000073,15.467598469373081471
0.271000000000000074,14.599168268195166220
0.272000000000000075,13.741077513151674694
0.273000000000000076,12.893318338424682779
0.274000000000000077,12.055888914130008516
0.275000000000000078,11.228792314347114001
0.276000000000000079,10.412035437205494404
0.277000000000000079,9.605627986709805555
0.278000000000000080,8.809581523700822814
0.279000000000000081,8.023908591277256974
0.280000000000000082,7.248621918152901245
0.281000000000000083,6.483733701785409309
0.282000000000000084,5.729254971685472597
0.283000000000000085,4.985195032086188860
0.284000000000000086,4.251560982110286879
0.285000000000000087,3.528357310709850481
0.286000000000000087,2.815585562949011411
0.287000000000000088,2.113244073646706855
0.288000000000000089,1.421327763977060732
0.289000000000000090,0.739827996325279513
0.290000000000000091,0.068732482506346851
0.291000000000000092,-0.591974759645786497
0.292000000000000093,-1.242313406326200909
0.293000000000000094,-1.882306789398793923
0.294000000000000095,-2.511981824469608604
0.295000000000000095,-3.131368910075047918
0.296000000000000096,-3.740501802463938930
0.297000000000000097,-4.339417470220814366
0.298000000000000098,-4.928155932720779120
0.299000000000000099,-5.506760086133184018
0.300000000000000100,-6.075275520405688745
0.301000000000000101,-6.633750330370548731
0.302000000000000102,-7.182234923820624672
0.303000000000000103,-7.720781829114491401
0.304000000000000103,-8.249445504583302835
0.305000000000000104,-8.768282151736766394
0.306000000000000105,-9.277349533999142750
0.307000000000000106,-9.776706802452308054
0.308000000000000107,-10.266414329822861617
0.309000000000000108,-10.746533553724265886
0.310000000000000109,-11.217126829955512690
0.311000000000000110,-11.678257296461492132
0.312000000000000111,-12.129988748383642161
0.313000000000000111,-12.572385524464484874
0.314000000000000112,-13.005512404923450731
0.315000000000000113,-13.429434520788955609
0.316000000000000114,-13.844217274554523556
0.317000000000000115,-14.249926271923266441
0.318000000000000116,-14.646627264316114392
0.319000000000000117,-15.034386101741782582
0.320000000000000118,-15.413268695562157617
0.321000000000000119,-15.783340990633661249
0.322000000000000119,-16.144668946261852227
0.323000000000000120,-16.497318525373358966
0.324000000000000121,-16.841355691285606611
0.325000000000000122,-17.176846411437985296
0.326000000000000123,-17.503856667439443129
0.327000000000000124,-17.822452470785535183
0.328000000000000125,-18.132699883601461011
0.329000000000000126,-18.434665043776419679
0.330000000000000127,-18.728414193868353266
0.331000000000000127,-19.014013713175224041
0.332000000000000128,-19.291530152389885444
0.333000000000000129,-19.561030270279466947
0.334000000000000130,-19.822581071855449153
0.335000000000000131,-20.076249847529641812
0.336000000000000132,-20.322104212779041887
0.337000000000000133,-20.560212147874231903
0.338000000000000134,-20.790642037256805708
0.339000000000000135,-21.013462708181823047
0.340000000000000135,-21.228743468274725359
0.341000000000000136,-21.436554141681924079
0.342000000000000137,-21.636965103526740961
0.343000000000000138,-21.830047312411885230
0.344000000000000139,-22.015872340740763491
0.345000000000000140,-22.194512402657842642
0.346000000000000141,-22.366040379437052366
0.347000000000000142,-22.530529842173876887
0.348000000000000143,-22.688055071662624584
0.349000000000000143,-22.838691075364948802
0.350000000000000144,-22.982513601399023884
0.351000000000000145,-23.119599149500349000
0.352000000000000146,-23.250024978926351338
0.353000000000000147,-23.373869113295501876
0.354000000000000148,-23.491210342369999609
0.355000000000000149,-23.602128220807468750
0.356000000000000150,-23.706703063922144992
0.357000000000000151,-23.805015940509935746
0.358000000000000151,-23.897148662804504227
0.359000000000000152,-23.983183773642494430
0.360000000000000153,-24.063204530926672220
0.361000000000000154,-24.137294889484017801
0.362000000000000155,-24.205539480424334897
0.363000000000000156,-24.268023588111290678
0.364000000000000157,-24.324833124863559419
0.365000000000000158,-24.376054603509096808
0.366000000000000159,-24.421775107918456627
0.367000000000000159,-24.462082261647161374
0.368000000000000160,-24.497064194818591432
0.369000000000000161,-24.526809509380672836
0.370000000000000162,-24.551407242870446623
0.371000000000000163,-24.570946830820510343
0.372000000000000164,-24.585518067940920872
0.373000000000000165,-24.595211068209302141
0.374000000000000166,-24.600116224000295517
0.375000000000000167,-24.600324164383046366
0.376000000000000167,-24.595925712713906819
0.377000000000000168,-24.587011843647950116
0.378000000000000169,-24.573673639690220227
0.379000000000000170,-24.556002247404066452
0.380000000000000171,-24.534088833390558904
0.381000000000000172,-24.508024540148529269
0.382000000000000173,-24.477900441921359942
0.383000000000000174,-24.443807500632164675
0.384000000000000175,-24.405836522004427991
0.385000000000000175,-24.364078111961223527
0.386000000000000176,-24.318622633391232313
0.387000000000000177,-24.269560163365262895
0.388000000000000178,-24.216980450882694242
0.389000000000000179,-24.160972875222153533
0.390000000000000180,-24.101626404966573602
0.391000000000000181,-24.039029557768039069
0.392000000000000182,-23.973270360913222277
0.393000000000000183,-23.904436312745918514
0.394000000000000183,-23.832614344998624745
0.395000000000000184,-23.757890786080913870
0.396000000000000185,-23.680351325367979598
0.397000000000000186,-23.600080978528794162
0.398000000000000187,-23.517164053929008105
0.399000000000000188,-23.431684120140154448
0.400000000000000189,-23.343723974582587743
0.401000000000000190,-23.253365613326167249
0.402000000000000191,-23.160690202069023513
0.403000000000000191,-23.065778048311361914
0.404000000000000192,-22.968708574738052164
0.405000000000000193,-22.869560293820416774
0.406000000000000194,-22.768410783644881690
0.407000000000000195,-22.665336664973203540
0.408000000000000196,-22.560413579535989470
0.409000000000000197,-22.453716169559147176
0.410000000000000198,-22.345318058520039273
0.411000000000000199,-22.235291833127867278
0.412000000000000199,-22.123709026520831600
0.413000000000000200,-22.010640102670244289
0.414000000000000201,-21.896154441980208105
0.415000000000000202,-21.780320328069272762
0.416000000000000203,-21.663204935719207356
0.417000000000000204,-21.544874319974130827
0.418000000000000205,-21.425393406371988192
0.419000000000000206,-21.304825982289184338
0.420000000000000207,-21.183234689377353988
0.421000000000000207,-21.060681017071232191
0.422000000000000208,-20.937225297144216540
0.423000000000000209,-20.812926699288603061
0.424000000000000210,-20.687843227695847048
0.425000000000000211,-20.562031718611695652
0.426000000000000212,-20.435547838840697921
0.427000000000000213,-20.308446085173457618
0.428000000000000214,-20.180779784710303204
0.429000000000000214,-20.052601096053983554
0.430000000000000215,-19.923961011343976679
0.431000000000000216,-19.794909359105027136
0.432000000000000217,-19.665494807881714223
0.433000000000000218,-19.535764870631368240
0.434000000000000219,-19.405765909847264794
0.435000000000000220,-19.275543143384147982
0.436000000000000221,-19.145140650958161643
0.437000000000000222,-19.014601381293296356
0.438000000000000222,-18.883967159886886122
0.439000000000000223,-18.753278697366518202
0.440000000000000224,-18.622575598411273745
0.441000000000000225,-18.491896371210238215
0.442000000000000226,-18.361278437431860056
0.443000000000000227,-18.230758142677604638
0.444000000000000228,-18.100370767394291960
0.445000000000000229,-17.970150538219435532
0.446000000000000230,-17.840130639734397278
0.447000000000000230,-17.710343226601104050
0.448000000000000231,-17.580819436057812055
0.449000000000000232,-17.451589400750268766
0.450000000000000233,-17.322682261875396392
0.451000000000000234,-17.194126182614404286
0.452000000000000235,-17.065948361833612523
0.453000000000000236,-16.938175048030995384
0.454000000000000237,-16.810831553507810554
0.455000000000000238,-16.683942268744424098
0.456000000000000238,-16.557530676960713123
0.457000000000000239,-16.431619368841449358
0.458000000000000240,-16.306230057408104273
0.459000000000000241,-16.181383593018491496
0.460000000000000242,-16.057099978477062052
0.461000000000000243,-15.933398384238254053
0.462000000000000244,-15.810297163686925614
0.463000000000000245,-15.687813868479272728
0.464000000000000246,-15.565965263929522067
0.465000000000000246,-15.444767344427059896
0.466000000000000247,-15.324235348869994056
0.467000000000000248,-15.204383776101256132
0.468000000000000249,-15.085226400334267538
0.469000000000000250,-14.966776286555324660
0.470000000000000251,-14.849045805890691341
0.471000000000000252,-14.732046650926756470
0.472000000000000253,-14.615789850972266350
0.473000000000000254,-14.500285787251916858
0.474000000000000254,-14.385544208021334711
0.475000000000000255,-14.271574243593818210
0.476000000000000256,-14.158384421269639475
0.477000000000000257,-14.045982680159434963
0.478000000000000258,-13.934376385893267880
0.479000000000000259,-13.823572345207784551
0.480000000000000260,-13.713576820404066225
0.481000000000000261,-13.604395543669241420
0.482000000000000262,-13.496033731255455024
0.483000000000000262,-13.388496097510181215
0.484000000000000263,-13.281786868751931152
0.485000000000000264,-13.175909796986370992
0.486000000000000265,-13.070868173457730776
0.487000000000000266,-12.966664842030926508
0.488000000000000267,-12.863302212400228086
0.489000000000000268,-12.760782273120645058
0.490000000000000269,-12.659106604458239431
0.491000000000000270,-12.558276391056441668
0.492000000000000270,-12.458292434415124461
0.493000000000000271,-12.359155165179995350
0.494000000000000272,-12.260864655239897658
0.495000000000000273,-12.163420629629827729
0.496000000000000274,-12.066822478238055538
0.497000000000000275,-11.971069267315566975
0.498000000000000276,-11.876159750786678515
0.499000000000000277,-11.782092381359657196
0.500000000000000222,-11.688865321436434641
0.501000000000000334,-11.596476453820930175
0.502000000000000224,-11.504923392225448353
0.503000000000000336,-11.414203491574806293
0.504000000000000226,-11.324313858108494557
0.505000000000000338,-11.235251359280477246
0.506000000000000227,-11.147012633457581643
0.507000000000000339,-11.059594099416292678
0.508000000000000229,-10.972991965639184997
0.509000000000000341,-10.887202239411198690
0.510000000000000231,-10.802220735717366296
0.511000000000000343,-10.718043085942218440
0.512000000000000233,-10.634664746372893163
0.513000000000000345,-10.552081006506508487
0.514000000000000234,-10.470286997163956499
0.515000000000000346,-10.389277698410818829
0.516000000000000236,-10.309047947287860225
0.517000000000000348,-10.229592445352134078
0.518000000000000238,-10.150905766031067756
0.519000000000000350,-10.072982361790895567
0.520000000000000240,-9.995816571121903138
0.521000000000000352,-9.919402625342154778
0.522000000000000242,-9.843734655222059260
0.523000000000000353,-9.768806697431738684
0.524000000000000243,-9.694612700813646455
0.525000000000000355,-9.621146532482470093
0.526000000000000245,-9.548401983754956746
0.527000000000000357,-9.476372775911633184
0.528000000000000247,-9.405052565793283748
0.529000000000000359,-9.334434951234166888
0.530000000000000249,-9.264513476334878206
0.531000000000000361,-9.195281636577000484
0.532000000000000250,-9.126732883782361583
0.533000000000000362,-9.058860630919188139
0.534000000000000252,-8.991658256757951051
0.535000000000000364,-8.925119110379259979
0.536000000000000254,-8.859236515536681011
0.537000000000000366,-8.794003774876642865
0.538000000000000256,-8.729414174018600647
0.539000000000000368,-8.665460985497441371
0.540000000000000258,-8.602137472571349974
0.541000000000000369,-8.539436892897146691
0.542000000000000259,-8.477352502076248797
0.543000000000000371,-8.415877557073358162
0.544000000000000261,-8.355005319510855344
0.545000000000000373,-8.294729058841181057
0.546000000000000263,-8.235042055400004557
0.547000000000000375,-8.175937603342404714
0.548000000000000265,-8.117409013465088918
0.549000000000000377,-8.059449615916550513
0.550000000000000266,-8.002052762798264496
0.551000000000000378,-7.945211830658879926
0.552000000000000268,-7.888920222884257427
0.553000000000000380,-7.833171371985497622
0.554000000000000270,-7.777958741787625918
0.555000000000000382,-7.723275829520988900
0.556000000000000272,-7.669116167818147645
0.557000000000000384,-7.615473326618102945
0.558000000000000274,-7.562340914980683060
0.559000000000000385,-7.509712582812849924
0.560000000000000275,-7.457582022509631869
0.561000000000000387,-7.405942970511567580
0.562000000000000277,-7.354789208781016718
0.563000000000000389,-7.304114566199446656
0.564000000000000279,-7.253912919887872235
0.565000000000000391,-7.204178196452412308
0.566000000000000281,-7.154904373157227937
0.567000000000000393,-7.106085479026650553
0.568000000000000282,-7.057715595878748971
0.569000000000000394,-7.009788859292004126
0.570000000000000284,-6.962299459507365285
0.571000000000000396,-6.915241642267261568
0.572000000000000286,-6.868609709593752832
0.573000000000000398,-6.822398020507324468
0.574000000000000288,-6.776600991688448872
0.575000000000000400,-6.731213098083460800
0.576000000000000290,-6.686228873456625088
0.577000000000000401,-6.641642910889944851
0.578000000000000291,-6.597449863232614398
0.579000000000000403,-6.553644443501471351
0.580000000000000293,-6.510221425234378856
0.581000000000000405,-6.467175642797729829
0.582000000000000295,-6.424501991650075183
0.583000000000000407,-6.382195428562895678
0.584000000000000297,-6.340250971800417190
0.585000000000000409,-6.298663701259636483
0.586000000000000298,-6.257428758572149086
0.587000000000000410,-6.216541347169009413
0.588000000000000300,-6.175996732310169435
0.589000000000000412,-6.135790241079568830
0.590000000000000302,-6.095917262347444243
0.591000000000000414,-6.056373246700903046
0.592000000000000304,-6.017153706344147146
0.593000000000000416,-5.978254214969372704
0.594000000000000306,-5.939670407599807689
0.595000000000000417,-5.901397980405678645
0.596000000000000307,-5.863432690494551736
0.597000000000000419,-5.825770355676899825
0.598000000000000309,-5.788406854208147934
0.599000000000000421,-5.751338124508025729
0.600000000000000311,-5.714560164858508706
0.601000000000000423,-5.678069033081006189
0.602000000000000313,-5.641860846194115098
0.603000000000000425,-5.605931780052481272
0.604000000000000314,-5.570278068968109508
0.605000000000000426,-5.534896005314548617
0.606000000000000316,-5.499781939115239382
0.607000000000000428,-5.464932277616495249
0.608000000000000318,-5.430343484846256175
0.609000000000000430,-5.396012081159073048
0.610000000000000320,-5.361934642768430237
0.611000000000000432,-5.328107801266825483
0.612000000000000322,-5.294528243134609014
0.613000000000000433,-5.261192709238069476
0.614000000000000323,-5.228097994317601582
0.615000000000000435,-5.195240946466493703
0.616000000000000325,-5.162618466601091249
0.617000000000000437,-5.130227507922827002
0.618000000000000327,-5.098065075372881338
0.619000000000000439,-5.066128225079841840
0.620000000000000329,-5.034414063801154526
0.621000000000000441,-5.002919748358742424
0.622000000000000330,-4.971642485069395434
0.623000000000000442,-4.940579529170409323
0.624000000000000332,-4.909728184241012983
0.625000000000000444,-4.879085801619986285
0.626000000000000334,-4.848649779820015659
0.627000000000000446,-4.818417563939139114
0.628000000000000336,-4.788386645069797609
0.629000000000000448,-4.758554559705828524
0.630000000000000338,-4.728918889147876392
0.631000000000000449,-4.699477258907517552
0.632000000000000339,-4.670227338110550797
0.633000000000000451,-4.641166838899745350
0.634000000000000341,-4.612293515837444957
0.635000000000000453,-4.583605165308304308
0.636000000000000343,-4.555099624922516632
0.637000000000000455,-4.526774772919787360
0.638000000000000345,-4.498628527574449087
0.639000000000000457,-4.470658846601802239
0.640000000000000346,-4.442863726566225857
0.641000000000000458,-4.415241202291009692
0.642000000000000348,-4.387789346270434265
0.643000000000000460,-4.360506268084102466
0.644000000000000350,-4.333390113813941902
0.645000000000000462,-4.306439065463922411
0.646000000000000352,-4.279651340382845781
0.647000000000000464,-4.253025190690228996
0.648000000000000353,-4.226558902705726872
0.649000000000000465,-4.200250796381913787
0.650000000000000355,-4.174099224740990266
0.651000000000000467,-4.148102573315204822
0.652000000000000357,-4.122259259591448455
0.653000000000000469,-4.096567732459916122
0.654000000000000359,-4.071026471667190449
0.655000000000000471,-4.045633987273664189
0.656000000000000361,-4.020388819115636281
0.657000000000000473,-3.995289536271957154
0.658000000000000362,-3.970334736535602538
