# tri-graphene_TANNIC-ARM-NEUTRAL-AC
# h[nm],U(h)[kJ/mol]
0.149999999999999994,108.146765747796479218
0.150999999999999995,105.167386790776120620
0.151999999999999996,101.885107491546520464
0.152999999999999997,98.627687612110293003
0.153999999999999998,95.485429676086511108
0.154999999999999999,92.453080802076485156
0.156000000000000000,89.499107369931422795
0.157000000000000001,86.595129738799784036
0.158000000000000002,83.724926443184898517
0.159000000000000002,80.884072440981938712
0.160000000000000003,78.076189481938428116
0.161000000000000004,75.308778168206515602
0.162000000000000005,72.589893670057307418
0.163000000000000006,69.926014873652519555
0.164000000000000007,67.321016015879536099
0.165000000000000008,64.775976741285916205
0.166000000000000009,62.289535675406128234
0.167000000000000010,59.858529363457023464
0.168000000000000010,57.478720168340110774
0.169000000000000011,55.145480719488908505
0.170000000000000012,52.854357957310014626
0.171000000000000013,50.601482809579167110
0.172000000000000014,48.383821865807703944
0.173000000000000015,46.199286677742570362
0.174000000000000016,44.046726775231952900
0.175000000000000017,41.925836466794294211
0.176000000000000018,39.837005059394982709
0.177000000000000018,37.781136970782903006
0.178000000000000019,35.759463612080587325
0.179000000000000020,33.773363817477751070
0.180000000000000021,31.824204616444415450
0.181000000000000022,29.913209665247428859
0.182000000000000023,28.041358880941082532
0.183000000000000024,26.209319825360562817
0.184000000000000025,24.417409155097658413
0.185000000000000026,22.665580918285918699
0.186000000000000026,20.953437543395306619
0.187000000000000027,19.280258920663143840
0.188000000000000028,17.645044915089233228
0.189000000000000029,16.046566870736601373
0.190000000000000030,14.483424081090580771
0.191000000000000031,12.954101735083821012
0.192000000000000032,11.457027442985179277
0.193000000000000033,9.990624054070504911
0.194000000000000034,8.553357064394532472
0.195000000000000034,7.143775454089151822
0.196000000000000035,5.760545274192833354
0.197000000000000036,4.402475714851095567
0.198000000000000037,3.068537727058811448
0.199000000000000038,1.757875540246077506
0.200000000000000039,0.469811622125044015
0.201000000000000040,-0.796154228605236325
0.202000000000000041,-2.040350874665365133
0.203000000000000042,-3.262946089315724940
0.204000000000000042,-4.463960224788760200
0.205000000000000043,-5.643282483592563459
0.206000000000000044,-6.800689020318363198
0.207000000000000045,-7.935862162591628355
0.208000000000000046,-9.048410112334510202
0.209000000000000047,-10.137886567920309844
0.210000000000000048,-11.203809790232662991
0.211000000000000049,-12.245680717952463823
0.212000000000000050,-13.262999817117570700
0.213000000000000050,-14.255282425257707501
0.214000000000000051,-15.222072419862916703
0.215000000000000052,-16.162954103701192565
0.216000000000000053,-17.077562255050544593
0.217000000000000054,-17.965590339052354807
0.218000000000000055,-18.826796917177752277
0.219000000000000056,-19.661010325468595283
0.220000000000000057,-20.468131719168603411
0.221000000000000058,-21.248136602078982804
0.222000000000000058,-22.001074974035663701
0.223000000000000059,-22.727070239896391968
0.224000000000000060,-23.426317028971805456
0.225000000000000061,-24.099078075539360100
0.226000000000000062,-24.745680309532989583
0.227000000000000063,-25.366510302266036092
0.228000000000000064,-25.962009205636196185
0.229000000000000065,-26.532667315161898358
0.230000000000000066,-27.079018377831154396
0.231000000000000066,-27.601633755497118727
0.232000000000000067,-28.101116543756411659
0.233000000000000068,-28.578095735190327531
0.234000000000000069,-29.033220504776942050
0.235000000000000070,-29.467154684399229581
0.236000000000000071,-29.880571482844192843
0.237000000000000072,-30.274148497646713452
0.238000000000000073,-30.648563055674042488
0.239000000000000073,-31.004487910550505347
0.240000000000000074,-31.342587316936317166
0.241000000000000075,-31.663513494325592035
0.242000000000000076,-31.967903486430145676
0.243000000000000077,-32.256376416365185378
0.244000000000000078,-32.529531132732579124
0.245000000000000079,-32.787944237283070947
0.246000000000000080,-33.032168481098850066
0.247000000000000081,-33.262731513132521854
0.248000000000000081,-33.480134962424763501
0.249000000000000082,-33.684853833357067288
0.250000000000000111,-33.877336191829698464
0.251000000000000112,-34.058003119241121226
0.252000000000000113,-34.227248910538619953
0.253000000000000114,-34.385441492359689164
0.254000000000000115,-34.532923037353832285
0.255000000000000115,-34.670010751112485536
0.256000000000000116,-34.796997808710287359
0.257000000000000117,-34.914154418629472332
0.258000000000000118,-35.021728992769666888
0.259000000000000119,-35.119949402304932562
0.260000000000000120,-35.209024300309934574
0.261000000000000121,-35.289144493310075745
0.262000000000000122,-35.360484345194485911
0.263000000000000123,-35.423203198243882639
0.264000000000000123,-35.477446797349145413
0.265000000000000124,-35.523348704815738586
0.266000000000000125,-35.561031694449681595
0.267000000000000126,-35.590609114889645070
0.268000000000000127,-35.612186213380844890
0.269000000000000128,-35.625861412366589320
0.270000000000000129,-35.631727532400944369
0.271000000000000130,-35.629872955952997415
0.272000000000000131,-35.620382727678126855
0.273000000000000131,-35.603339587669360355
0.274000000000000132,-35.578824935074408131
0.275000000000000133,-35.546919720267780463
0.276000000000000134,-35.507705264503705678
0.277000000000000135,-35.461264006646239011
0.278000000000000136,-35.407680177177716985
0.279000000000000137,-35.347040400228777912
0.280000000000000138,-35.279434224854419710
0.281000000000000139,-35.204954587203161509
0.282000000000000139,-35.123698205594031663
0.283000000000000140,-35.035765910830981795
0.284000000000000141,-34.941262914350254221
0.285000000000000142,-34.840299017015794902
0.286000000000000143,-34.732988761554459245
0.287000000000000144,-34.619451531760240925
0.288000000000000145,-34.499811601697636831
0.289000000000000146,-34.374198138201109032
0.290000000000000147,-34.242745160005668481
0.291000000000000147,-34.105591456852778265
0.292000000000000148,-33.962880471901968349
0.293000000000000149,-33.814760150741378197
0.294000000000000150,-33.661382760235738942
0.295000000000000151,-33.502904680377312729
0.296000000000000152,-33.339486172218663285
0.297000000000000153,-33.171291124867437361
0.298000000000000154,-32.998486784412470740
0.299000000000000155,-32.821243467533889770
0.300000000000000155,-32.639734262423630184
0.301000000000000156,-32.454134719513291429
0.302000000000000157,-32.264622534371440565
0.303000000000000158,-32.071377224996311384
0.304000000000000159,-31.874579805591508830
0.305000000000000160,-31.674412458773293366
0.306000000000000161,-31.471058208021098324
0.307000000000000162,-31.264700592045549854
0.308000000000000163,-31.055523342614264948
0.309000000000000163,-30.843710067244142436
0.310000000000000164,-30.629443938040491702
0.311000000000000165,-30.412907387838735929
0.312000000000000166,-30.194281814684678977
0.313000000000000167,-29.973747295572628957
0.314000000000000168,-29.751482310250793262
0.315000000000000169,-29.527663475796082082
0.316000000000000170,-29.302465292560746946
0.317000000000000171,-29.076059901996455181
0.318000000000000171,-28.848616856771691630
0.319000000000000172,-28.620302903512833126
0.320000000000000173,-28.391281778419642734
0.321000000000000174,-28.161714015930698451
0.322000000000000175,-27.931756770545440816
0.323000000000000176,-27.701563651844463010
0.324000000000000177,-27.471284572690553460
0.325000000000000178,-27.241065610537759767
0.326000000000000179,-27.011048881726345883
0.327000000000000179,-26.781372428595204838
0.328000000000000180,-26.552170119202418874
0.329000000000000181,-26.323571559407763942
0.330000000000000182,-26.095702017036927600
0.331000000000000183,-25.868682357819061224
0.332000000000000184,-25.642628992762478646
0.333000000000000185,-25.417653836611435736
0.334000000000000186,-25.193864277007776309
0.335000000000000187,-24.971363153964848181
0.336000000000000187,-24.750248749248171976
0.337000000000000188,-24.530614785246257270
0.338000000000000189,-24.312550432907297449
0.339000000000000190,-24.096140328311406620
0.340000000000000191,-23.881464597444082898
0.341000000000000192,-23.668598888735719044
0.342000000000000193,-23.457614412930890779
0.343000000000000194,-23.248577989854123160
0.344000000000000195,-23.041552101641048722
0.345000000000000195,-22.836594952009438231
0.346000000000000196,-22.633760531149842876
0.347000000000000197,-22.433098685822912444
0.348000000000000198,-22.234655194258483135
0.349000000000000199,-22.038471845460328780
0.350000000000000200,-21.844586522530285322
0.351000000000000201,-21.653033289635676084
0.352000000000000202,-21.463842482255078181
0.353000000000000203,-21.277040800348810734
0.354000000000000203,-21.092651404112388036
0.355000000000000204,-20.910694011983327556
0.356000000000000205,-20.731185000584282818
0.357000000000000206,-20.554137506297902149
0.358000000000000207,-20.379561528181703522
0.359000000000000208,-20.207464031944006422
0.360000000000000209,-20.037849054714918395
0.361000000000000210,-19.870717810359042943
0.362000000000000210,-19.706068795089471735
0.363000000000000211,-19.543897893155097734
0.364000000000000212,-19.384198482385976092
0.365000000000000213,-19.226961539393595757
0.366000000000000214,-19.072175744235064343
0.367000000000000215,-18.919827584362163719
0.368000000000000216,-18.769901457687740987
0.369000000000000217,-18.622379774613275316
0.370000000000000218,-18.477243058872524273
0.371000000000000218,-18.334470047056878883
0.372000000000000219,-18.194037786698366688
0.373000000000000220,-18.055921732796587520
0.374000000000000221,-17.920095842685384468
0.375000000000000222,-17.786532669144442309
0.376000000000000223,-17.655203451670413273
0.377000000000000224,-17.526078205830341261
0.378000000000000225,-17.399125810629087141
0.379000000000000226,-17.274314093829964634
0.380000000000000226,-17.151609915175924925
0.381000000000000227,-17.030979247465488413
0.382000000000000228,-16.912387255444993883
0.383000000000000229,-16.795798372485130301
0.384000000000000230,-16.681176375015994040
0.385000000000000231,-16.568484454701167152
0.386000000000000232,-16.457685288336570295
0.387000000000000233,-16.348741105465450119
0.388000000000000234,-16.241613753705735235
0.389000000000000234,-16.136264761791000666
0.390000000000000235,-16.032655400330028783
0.391000000000000236,-15.930746740295159469
0.392000000000000237,-15.830499709252313423
0.393000000000000238,-15.731875145350198153
0.394000000000000239,-15.634833849088815683
0.395000000000000240,-15.539336632890927703
0.396000000000000241,-15.445344368502784249
0.397000000000000242,-15.352818032253097158
0.398000000000000242,-15.261718748201641205
0.399000000000000243,-15.172007829211135999
0.400000000000000244,-15.083646815977747480
0.401000000000000245,-14.996597514057919298
0.402000000000000246,-14.910822028930109440
0.403000000000000247,-14.826282799132084023
0.404000000000000248,-14.742942627515262188
0.405000000000000249,-14.660764710658943599
0.406000000000000250,-14.579712666487996131
0.407000000000000250,-14.499750560138604527
0.408000000000000251,-14.420842928117071580
0.409000000000000252,-14.342954800797528492
0.410000000000000253,-14.266051723304414622
0.411000000000000254,-14.190099774826322232
0.412000000000000255,-14.115065586407590459
0.413000000000000256,-14.040916357264464409
0.414000000000000257,-13.967619869672258659
0.415000000000000258,-13.895144502470254011
0.416000000000000258,-13.823459243230587390
0.417000000000000259,-13.752533699137202916
0.418000000000000260,-13.682338106620786533
0.419000000000000261,-13.612843339794796549
0.420000000000000262,-13.544020917737785936
0.421000000000000263,-13.475843010666267219
0.422000000000000264,-13.408282445041919573
0.423000000000000265,-13.341312707656451053
0.424000000000000266,-13.274907948736691665
0.425000000000000266,-13.209042984111741603
0.426000000000000267,-13.143693296483281330
0.427000000000000268,-13.078835035839583512
0.428000000000000269,-13.014445019052718777
0.429000000000000270,-12.950500728697722508
0.430000000000000271,-12.886980311131797095
0.431000000000000272,-12.823862573870593806
0.432000000000000273,-12.761126982297799515
0.433000000000000274,-12.698753655743477253
0.434000000000000274,-12.636723362965579298
0.435000000000000275,-12.575017517068243222
0.436000000000000276,-12.513618169889619836
0.437000000000000277,-12.452508005890862819
0.438000000000000278,-12.391670335577353868
0.439000000000000279,-12.331089088482025673
0.440000000000000280,-12.270748805739842169
0.441000000000000281,-12.210634632281667677
0.442000000000000282,-12.150732308674829341
0.443000000000000282,-12.091028162636614951
0.444000000000000283,-12.031509100246399413
0.445000000000000284,-11.972162596880918883
0.446000000000000285,-11.912976687896469130
0.447000000000000286,-11.853939959081090549
0.448000000000000287,-11.795041536898555279
0.449000000000000288,-11.736271078545735591
0.450000000000000289,-11.677618761843501005
0.451000000000000290,-11.619075274980986023
0.452000000000000290,-11.560631806132002808
0.453000000000000291,-11.502280032961612832
0.454000000000000292,-11.444012112040377716
0.455000000000000293,-11.385820668182599746
0.456000000000000294,-11.327698783724674314
0.457000000000000295,-11.269639987758505839
0.458000000000000296,-11.211638245334523134
0.459000000000000297,-11.153687946648101814
0.460000000000000298,-11.095783896222437548
0.461000000000000298,-11.037921302100350829
0.462000000000000299,-10.980095765056997692
0.463000000000000300,-10.922303267844505115
0.464000000000000301,-10.864540164479372208
0.465000000000000302,-10.806803169582646973
0.466000000000000303,-10.749089347782319948
0.467000000000000304,-10.691396103187020827
0.468000000000000305,-10.633721168939370472
0.469000000000000306,-10.576062596856962372
0.470000000000000306,-10.518418747168469807
0.471000000000000307,-10.460788278351667913
0.472000000000000308,-10.403170137080142155
0.473000000000000309,-10.345563548284477662
0.474000000000000310,-10.287968005333727461
0.475000000000000311,-10.230383260342300389
0.476000000000000312,-10.172809314607166087
0.477000000000000313,-10.115246409179651010
0.478000000000000314,-10.057695015576047837
0.479000000000000314,-10.000155826630663825
0.480000000000000315,-9.942629747494629910
0.481000000000000316,-9.885117886783636010
0.482000000000000317,-9.827621547877139818
0.483000000000000318,-9.770142220371567987
0.484000000000000319,-9.712681571689598670
0.485000000000000320,-9.655241438847394164
0.486000000000000321,-9.597823820381346849
0.487000000000000322,-9.540430868435626266
0.488000000000000322,-9.483064881011639358
0.489000000000000323,-9.425728294380316896
0.490000000000000324,-9.368423675657734151
0.491000000000000325,-9.311153715544623566
0.492000000000000326,-9.253921221229806093
0.493000000000000327,-9.196729109457855600
0.494000000000000328,-9.139580399760516727
0.495000000000000329,-9.082478207851901075
0.496000000000000330,-9.025425739186649920
0.497000000000000330,-8.968426282680720618
0.498000000000000331,-8.911483204593768193
0.499000000000000332,-8.854599942572448867
0.500000000000000333,-8.797779999853400312
0.501000000000000334,-8.741026939624859438
0.502000000000000335,-8.684344379545587245
0.503000000000000336,-8.627735986419782677
0.504000000000000337,-8.571205471026427603
0.505000000000000338,-8.514756583101547704
0.506000000000000338,-8.458393106471737255
0.507000000000000339,-8.402118854337164322
0.508000000000000340,-8.345937664702280046
0.509000000000000341,-8.289853395952423654
0.510000000000000342,-8.233869922574218236
0.511000000000000343,-8.177991131017941839
0.512000000000000344,-8.122220915699688959
0.513000000000000345,-8.066563175141331143
0.514000000000000346,-8.011021808246091780
0.515000000000000346,-7.955600710707537715
0.516000000000000347,-7.900303771549802789
0.517000000000000348,-7.845134869796908106
0.518000000000000349,-7.790097871268666374
0.519000000000000350,-7.735196625501163048
0.520000000000000351,-7.680434962789331799
0.521000000000000352,-7.625816691349389664
0.522000000000000353,-7.571345594598748008
0.523000000000000353,-7.517025428551060706
0.524000000000000354,-7.462859919324214886
0.525000000000000355,-7.408852760758614764
0.526000000000000356,-7.355007612143717566
0.527000000000000357,-7.301328096050324845
0.528000000000000358,-7.247817796266252444
0.529000000000000359,-7.194480255833164861
0.530000000000000360,-7.141318975182144868
0.531000000000000361,-7.088337410365744162
0.532000000000000361,-7.035538971384167617
0.533000000000000362,-6.982927020603336032
0.534000000000000363,-6.930504871262553657
0.535000000000000364,-6.878275786069470321
0.536000000000000365,-6.826242975880203900
0.537000000000000366,-6.774409598462310278
0.538000000000000367,-6.722778757338417677
0.539000000000000368,-6.671353500708464779
0.540000000000000369,-6.620136820448204062
0.541000000000000369,-6.569131651182026133
0.542000000000000370,-6.518340869427913908
0.543000000000000371,-6.467767292812439450
0.544000000000000372,-6.417413679353832556
0.545000000000000373,-6.367282726811070326
0.546000000000000374,-6.317377072096943103
0.547000000000000375,-6.267699290753226293
0.548000000000000376,-6.218251896486006736
0.549000000000000377,-6.169037340759242483
0.550000000000000377,-6.120058012444659745
0.551000000000000378,-6.071316237526231063
0.552000000000000379,-6.022814278857375747
0.553000000000000380,-5.974554335969114227
0.554000000000000381,-5.926538544927401730
0.555000000000000382,-5.878768978238062992
0.556000000000000383,-5.831247644797417529
0.557000000000000384,-5.783976489887192152
0.558000000000000385,-5.736957395211947031
0.559000000000000385,-5.690192178977482307
0.560000000000000386,-5.643682596008681607
0.561000000000000387,-5.597430337905270115
0.562000000000000388,-5.551437033233979967
0.563000000000000389,-5.505704247755700109
0.564000000000000390,-5.460233484686161098
0.565000000000000391,-5.415026184988756874
0.566000000000000392,-5.370083727698195197
0.567000000000000393,-5.325407430273587650
0.568000000000000393,-5.280998548979690455
0.569000000000000394,-5.236858279295046437
0.570000000000000395,-5.192987756345834427
0.571000000000000396,-5.149388055364062744
0.572000000000000397,-5.106060192169145751
0.573000000000000398,-5.063005123671524998
0.574000000000000399,-5.020223748397350860
0.575000000000000400,-4.977716907033011395
0.576000000000000401,-4.935485382988568759
0.577000000000000401,-4.893529902979014246
0.578000000000000402,-4.851851137622276156
0.579000000000000403,-4.810449702053110954
0.580000000000000404,-4.769326156551867868
0.581000000000000405,-4.728481007187189888
0.582000000000000406,-4.687914706471794091
0.583000000000000407,-4.647627654030387134
0.584000000000000408,-4.607620197278982310
0.585000000000000409,-4.567892632114673113
0.586000000000000409,-4.528445203615130588
0.587000000000000410,-4.489278106747056185
0.588000000000000411,-4.450391487082800523
0.589000000000000412,-4.411785441524459728
0.590000000000000413,-4.373460019034707713
0.591000000000000414,-4.335415221373692063
0.592000000000000415,-4.297651003841406414
0.593000000000000416,-4.260167276024748872
0.594000000000000417,-4.222963902548765525
0.595000000000000417,-4.186040703831529264
0.596000000000000418,-4.149397456841858123
0.597000000000000419,-4.113033895859605771
0.598000000000000420,-4.076949713237739914
0.599000000000000421,-4.041144560165841781
0.600000000000000422,-4.005618047434468920
0.601000000000000423,-3.970369746199911454
0.602000000000000424,-3.935399188748871069
0.603000000000000425,-3.900705869262635961
0.604000000000000425,-3.866289244580303652
0.605000000000000426,-3.832148734960638681
0.606000000000000427,-3.798283724842234310
