# tri-graphene_HISTIDINEZWITTER
# h[nm],U(h)[kJ/mol]
0.149999999999999994,127.669726252093056473
0.150999999999999995,121.838870741641969175
0.151999999999999996,118.554396591079353129
0.152999999999999997,115.877326626953731648
0.153999999999999998,113.081959940675844223
0.154999999999999999,110.018772342231187622
0.156000000000000000,106.768206864154464597
0.157000000000000001,103.466501016122791157
0.158000000000000002,100.229162541705790090
0.159000000000000002,97.126656768136712117
0.160000000000000003,94.185428750192087932
0.161000000000000004,91.399055074723520420
0.162000000000000005,88.741481607625260608
0.163000000000000006,86.178555904646628960
0.164000000000000007,83.676474096960518523
0.165000000000000008,81.207035311130937316
0.166000000000000009,78.750189084075856272
0.167000000000000010,76.294564405504701199
0.168000000000000010,73.836664850669677662
0.169000000000000011,71.379312795771113542
0.170000000000000012,68.929790707028161023
0.171000000000000013,66.497993555450207737
0.172000000000000014,64.094790235251096533
0.173000000000000015,61.730699606751770148
0.174000000000000016,59.414918729995562785
0.175000000000000017,57.154694336876517013
0.176000000000000018,54.954999742108341820
0.177000000000000018,52.818464154916640041
0.178000000000000019,50.745495993317362604
0.179000000000000020,48.734543158961855625
0.180000000000000021,46.782438774764173672
0.181000000000000022,44.884788697651380573
0.182000000000000023,43.036365803789124129
0.183000000000000024,41.231484651898611560
0.184000000000000025,39.464338057223116607
0.185000000000000026,37.729284012748863120
0.186000000000000026,36.021077124956832449
0.187000000000000027,34.335043270588869291
0.188000000000000028,32.667199596767687808
0.189000000000000029,31.014324398592968635
0.190000000000000030,29.373982960813997067
0.191000000000000031,27.744516295557751562
0.192000000000000032,26.124999993943777810
0.193000000000000033,24.515180271176287619
0.194000000000000034,22.915393841539149378
0.195000000000000034,21.326477612802559491
0.196000000000000035,19.749673422005372458
0.197000000000000036,18.186532212470545744
0.198000000000000037,16.638821225897139300
0.199000000000000038,15.108436990654604770
0.200000000000000039,13.597326153797752113
0.201000000000000040,12.107415546254843619
0.202000000000000041,10.640552297047310759
0.203000000000000042,9.198454326374564616
0.204000000000000042,7.782671147664122380
0.205000000000000043,6.394554590837963737
0.206000000000000044,5.035238816544625351
0.207000000000000045,3.705628816137218617
0.208000000000000046,2.406396476267926410
0.209000000000000047,1.137983221502798958
0.210000000000000048,-0.099391775065932372
0.211000000000000049,-1.305718812546593499
0.212000000000000050,-2.481181276141847913
0.213000000000000050,-3.626136548237995250
0.214000000000000051,-4.741095048386586797
0.215000000000000052,-5.826698151955071125
0.216000000000000053,-6.883695649897306978
0.217000000000000054,-7.912923322812952520
0.218000000000000055,-8.915281114008633878
0.219000000000000056,-9.891712300819603954
0.220000000000000057,-10.843183982651988018
0.221000000000000058,-11.770669129232746997
0.222000000000000058,-12.675130364213478273
0.223000000000000059,-13.557505598005359815
0.224000000000000060,-14.418695569725050731
0.225000000000000061,-15.259553311365298356
0.226000000000000062,-16.080875507566908311
0.227000000000000063,-16.883395691326359866
0.228000000000000064,-17.667779189194348533
0.229000000000000065,-18.434619708516159164
0.230000000000000066,-19.184437443495106379
0.231000000000000066,-19.917678565783727862
0.232000000000000067,-20.634715958362740196
0.233000000000000068,-21.335851048122130180
0.234000000000000069,-22.021316592287583092
0.235000000000000070,-22.691280276152212991
0.236000000000000071,-23.345848984020065586
0.237000000000000072,-23.985073611429712059
0.238000000000000073,-24.608954294219337555
0.239000000000000073,-25.217445938483248113
0.240000000000000074,-25.810463944654649993
0.241000000000000075,-26.387890028564264355
0.242000000000000076,-26.949578052146978990
0.243000000000000077,-27.495359786306345029
0.244000000000000078,-28.025050538138053469
0.245000000000000079,-28.538454584126718316
0.246000000000000080,-29.035370359961046205
0.247000000000000081,-29.515595366178168035
0.248000000000000081,-29.978930756885926456
0.249000000000000082,-30.425185586280530714
0.250000000000000111,-30.854180694548347219
0.251000000000000112,-31.265752221000276734
0.252000000000000113,-31.659754737935180913
0.253000000000000114,-32.036064003766931307
0.254000000000000115,-32.394579338401413793
0.255000000000000115,-32.735225627727757569
0.256000000000000116,-33.057954967425267512
0.257000000000000117,-33.362747959111089813
0.258000000000000118,-33.649614674194779695
0.259000000000000119,-33.918595302703963057
0.260000000000000120,-34.169760505830495845
0.261000000000000121,-34.403211492057195642
0.262000000000000122,-34.619079837496926189
0.263000000000000123,-34.817527071541675809
0.264000000000000123,-34.998744049114677068
0.265000000000000124,-35.162950130774170532
0.266000000000000125,-35.310392191665059158
0.267000000000000126,-35.441343479882220890
0.268000000000000127,-35.556102344224562728
0.269000000000000128,-35.654990850606061770
0.270000000000000129,-35.738353305572978513
0.271000000000000130,-35.806554704476255324
0.272000000000000131,-35.859979120882883308
0.273000000000000131,-35.899028052799010879
0.274000000000000132,-35.924118740234291636
0.275000000000000133,-35.935682467576867793
0.276000000000000134,-35.934162863182812941
0.277000000000000135,-35.920014207522839911
0.278000000000000136,-35.893699760183949365
0.279000000000000137,-35.855690114999710261
0.280000000000000138,-35.806461591588146121
0.281000000000000139,-35.746494670616371536
0.282000000000000139,-35.676272479189528042
0.283000000000000140,-35.596279331883145858
0.284000000000000141,-35.506999332103688971
0.285000000000000142,-35.408915037676187865
0.286000000000000143,-35.302506193818459224
0.287000000000000144,-35.188248535972718400
0.288000000000000145,-35.066612664324324555
0.289000000000000146,-34.938062991246212619
0.290000000000000147,-34.803056762363226539
0.291000000000000147,-34.662043151434843935
0.292000000000000148,-34.515462428803047601
0.293000000000000149,-34.363745202745867857
0.294000000000000150,-34.207311732712767594
0.295000000000000151,-34.046571313094503353
0.296000000000000152,-33.881921725894969200
0.297000000000000153,-33.713748760424643081
0.298000000000000154,-33.542425797920799369
0.299000000000000155,-33.368313458819088169
0.300000000000000155,-33.191759310249253190
0.301000000000000156,-33.013097631205383209
0.302000000000000157,-32.832649232744024914
0.303000000000000158,-32.650721330490803496
0.304000000000000159,-32.467607466685876716
0.305000000000000160,-32.283587478967554318
0.306000000000000161,-32.098927513081761731
0.307000000000000162,-31.913880076709705946
0.308000000000000163,-31.728684131624703468
0.309000000000000163,-31.543565221422674938
0.310000000000000164,-31.358735632114814962
0.311000000000000165,-31.174394582925636144
0.312000000000000166,-30.990728444703943723
0.313000000000000167,-30.807910983425308871
0.314000000000000168,-30.626103626342995767
0.315000000000000169,-30.445455748428020826
0.316000000000000170,-30.266104976827232775
0.317000000000000171,-30.088177511159887700
0.318000000000000171,-29.911788457567546118
0.319000000000000172,-29.737042174529268124
0.320000000000000173,-29.564032628550677373
0.321000000000000174,-29.392843757934834059
0.322000000000000175,-29.223549842940354182
0.323000000000000176,-29.056215880730668744
0.324000000000000177,-28.890897963614872168
0.325000000000000178,-28.727643659176372637
0.326000000000000179,-28.566492390979323801
0.327000000000000179,-28.407475818634885911
0.328000000000000180,-28.250618216098455804
0.329000000000000181,-28.095936847157126692
0.330000000000000182,-27.943442337149509314
0.331000000000000183,-27.793139040043154608
0.332000000000000184,-27.645025400072182009
0.333000000000000185,-27.499094307213916011
0.334000000000000186,-27.355333445855272601
0.335000000000000187,-27.213725636068925695
0.336000000000000187,-27.074249166985243420
0.337000000000000188,-26.936878121808433661
0.338000000000000189,-26.801582694085006153
0.339000000000000190,-26.668329494888915576
0.340000000000000191,-26.537081850640412028
0.341000000000000192,-26.407800091326400604
0.342000000000000193,-26.280441828936023541
0.343000000000000194,-26.154962225970130874
0.344000000000000195,-26.031314253923348190
0.345000000000000195,-25.909448941676508582
0.346000000000000196,-25.789315613772025415
0.347000000000000197,-25.670862118577939981
0.348000000000000198,-25.554035046376469609
0.349000000000000199,-25.438779937440834544
0.350000000000000200,-25.325041480189408816
0.351000000000000201,-25.212763699529517680
0.352000000000000202,-25.101890135524264736
0.353000000000000203,-24.992364012534736162
0.354000000000000203,-24.884128399007028776
0.355000000000000204,-24.777126358088409575
0.356000000000000205,-24.671301089271004514
0.357000000000000206,-24.566596061272541363
0.358000000000000207,-24.462955136374098686
0.359000000000000208,-24.360322686443819151
0.360000000000000209,-24.258643700882608130
0.361000000000000210,-24.157863886733927927
0.362000000000000210,-24.057929761204938757
0.363000000000000211,-23.958788736849630396
0.364000000000000212,-23.860389199667654481
0.365000000000000213,-23.762680580373963579
0.366000000000000214,-23.665613419095461012
0.367000000000000215,-23.569139423750684159
0.368000000000000216,-23.473211522368096382
0.369000000000000217,-23.377783909596594469
0.370000000000000218,-23.282812087660456513
0.371000000000000218,-23.188252902007629785
0.372000000000000219,-23.094064571897526150
0.373000000000000220,-23.000206716170730203
0.374000000000000221,-22.906640374438943297
0.375000000000000222,-22.813328023928860944
0.376000000000000223,-22.720233592209417850
0.377000000000000224,-22.627322466026207337
0.378000000000000225,-22.534561496461883223
0.379000000000000226,-22.441919000635778048
0.380000000000000226,-22.349364760150365328
0.381000000000000227,-22.256870016485944319
0.382000000000000228,-22.164407463539575360
0.383000000000000229,-22.071951237497664522
0.384000000000000230,-21.979476904225677458
0.385000000000000231,-21.886961444352536432
0.386000000000000232,-21.794383236220475908
0.387000000000000233,-21.701722036865525922
0.388000000000000234,-21.608958961187138215
0.389000000000000234,-21.516076459459807069
0.390000000000000235,-21.423058293332694291
0.391000000000000236,-21.329889510458158952
0.392000000000000237,-21.236556417883214465
0.393000000000000238,-21.143046554332752152
0.394000000000000239,-21.049348661506993352
0.395000000000000240,-20.955452654510466459
0.396000000000000241,-20.861349591523886460
0.397000000000000242,-20.767031642824800741
0.398000000000000242,-20.672492059257894681
0.399000000000000243,-20.577725140250251457
0.400000000000000244,-20.482726201461854743
0.401000000000000245,-20.387491542157015090
0.402000000000000246,-20.292018412377061054
0.403000000000000247,-20.196304979990344464
0.404000000000000248,-20.100350297691015555
0.405000000000000249,-20.004154270013582817
0.406000000000000250,-19.907717620426076621
0.407000000000000250,-19.811041858560464846
0.408000000000000251,-19.714129247635263198
0.409000000000000252,-19.616982772121193790
0.410000000000000253,-19.519606105697153708
0.411000000000000254,-19.422003579540540130
0.412000000000000255,-19.324180150992020799
0.413000000000000256,-19.226141372632294946
0.414000000000000257,-19.127893361804545691
0.415000000000000258,-19.029442770614039659
0.416000000000000258,-18.930796756432954453
0.417000000000000259,-18.831962952935906941
0.418000000000000260,-18.732949441689456194
0.419000000000000261,-18.633764724315746264
0.420000000000000262,-18.534417695248606606
0.421000000000000263,-18.434917615098193266
0.422000000000000264,-18.335274084637539715
0.423000000000000265,-18.235497019423362985
0.424000000000000266,-18.135596625060607323
0.425000000000000266,-18.035583373119145278
0.426000000000000267,-17.935467977708825060
0.427000000000000268,-17.835261372717788220
0.428000000000000269,-17.734974689717454055
0.429000000000000270,-17.634619236535939990
0.430000000000000271,-17.534206476500528993
0.431000000000000272,-17.433748008348644021
0.432000000000000273,-17.333255546805300895
0.433000000000000274,-17.232740903824367962
0.434000000000000274,-17.132215970489500734
0.435000000000000275,-17.031692699570061933
0.436000000000000276,-16.931183088726292851
0.437000000000000277,-16.830699164357099562
0.438000000000000278,-16.730252966083330790
0.439000000000000279,-16.629856531858628443
0.440000000000000280,-16.529521883699164420
0.441000000000000281,-16.429261014023261112
0.442000000000000282,-16.329085872591292627
0.443000000000000282,-16.229008354035624251
0.444000000000000283,-16.129040285970269508
0.445000000000000284,-16.029193417669308275
0.446000000000000285,-15.929479409302723880
0.447000000000000286,-15.829909821718539220
0.448000000000000287,-15.730496106759051855
0.449000000000000288,-15.631249598099605791
0.450000000000000289,-15.532181502597557810
0.451000000000000290,-15.433302892139199258
0.452000000000000290,-15.334624695972342678
0.453000000000000291,-15.236157693511961142
0.454000000000000292,-15.137912507606495538
0.455000000000000293,-15.039899598252080892
0.456000000000000294,-14.942129256742347820
0.457000000000000295,-14.844611600241009342
0.458000000000000296,-14.747356566764853625
0.459000000000000297,-14.650373910564621127
0.460000000000000298,-14.553673197891308533
0.461000000000000298,-14.457263803135669278
0.462000000000000299,-14.361154905328637810
0.463000000000000300,-14.265355484990530854
0.464000000000000301,-14.169874321317132981
0.465000000000000302,-14.074719989690823496
0.466000000000000303,-13.979900859505031363
0.467000000000000304,-13.885425092290413218
0.468000000000000305,-13.791300640131657573
0.469000000000000306,-13.697535244363454154
0.470000000000000306,-13.604136434534876088
0.471000000000000307,-13.511111527631214813
0.472000000000000308,-13.418467627542820964
0.473000000000000309,-13.326211624770456510
0.474000000000000310,-13.234350196357050677
0.475000000000000311,-13.142889806035778832
0.476000000000000312,-13.051836704585003446
0.477000000000000313,-12.961196930380106451
0.478000000000000314,-12.870976310133276144
0.479000000000000314,-12.781180459812023997
0.480000000000000315,-12.691814785727459025
0.481000000000000316,-12.602884485783906854
0.482000000000000317,-12.514394550881199564
0.483000000000000318,-12.426349766461646240
0.484000000000000319,-12.338754714193541417
0.485000000000000320,-12.251613773783621042
0.486000000000000321,-12.164931124910804527
0.487000000000000322,-12.078710749273959379
0.488000000000000322,-11.992956432746547435
0.489000000000000323,-11.907671767631406112
0.490000000000000324,-11.822860155008836358
0.491000000000000325,-11.738524807171662800
0.492000000000000326,-11.654668750140883660
0.493000000000000327,-11.571294826256085742
0.494000000000000328,-11.488405696834520953
0.495000000000000329,-11.406003844893481514
0.496000000000000330,-11.324091577930271768
0.497000000000000330,-11.242671030754767258
0.498000000000000331,-11.161744168369281738
0.499000000000000332,-11.081312788891104049
0.500000000000000333,-11.001378526512802125
0.501000000000000334,-10.921942854495945596
0.502000000000000335,-10.843007088193783005
0.503000000000000336,-10.764572388098894606
0.504000000000000337,-10.686639762911632090
0.505000000000000338,-10.609210072625648635
0.506000000000000338,-10.532284031626820919
0.507000000000000339,-10.455862211802040562
0.508000000000000340,-10.379945045654517699
0.509000000000000341,-10.304532829422480944
0.510000000000000342,-10.229625726198069202
0.511000000000000343,-10.155223769043603355
0.512000000000000344,-10.081326864102434726
0.513000000000000345,-10.007934793701711129
0.514000000000000346,-9.935047219444575362
0.515000000000000346,-9.862663685289401627
0.516000000000000347,-9.790783620613748184
0.517000000000000348,-9.719406343261045578
0.518000000000000349,-9.648531062567750283
0.519000000000000350,-9.578156882369301073
0.520000000000000351,-9.508282803982890385
0.521000000000000352,-9.438907729165467941
0.522000000000000353,-9.370030463045324609
0.523000000000000353,-9.301649717025684438
0.524000000000000354,-9.233764111659175100
0.525000000000000355,-9.166372179491490968
0.526000000000000356,-9.099472367873307377
0.527000000000000357,-9.033063041739284316
0.528000000000000358,-8.967142486352909003
0.529000000000000359,-8.901708910016495224
0.530000000000000360,-8.836760446745220321
0.531000000000000361,-8.772295158904494627
0.532000000000000361,-8.708311039809906617
0.533000000000000362,-8.644806016289006578
0.534000000000000363,-8.581777951204433208
0.535000000000000364,-8.519224645937686802
0.536000000000000365,-8.457143842833215075
0.537000000000000366,-8.395533227602291149
0.538000000000000367,-8.334390431686294676
0.539000000000000368,-8.273713034579227354
0.540000000000000369,-8.213498566108953014
0.541000000000000369,-8.153744508677227998
0.542000000000000370,-8.094448299458125717
0.543000000000000371,-8.035607332554835835
0.544000000000000372,-7.977218961114763474
0.545000000000000373,-7.919280499402878704
0.546000000000000374,-7.861789224833259482
0.547000000000000375,-7.804742379958928389
0.548000000000000376,-7.748137174420105744
0.549000000000000377,-7.691970786850849784
0.550000000000000377,-7.636240366744300623
0.551000000000000378,-7.580943036276711844
0.552000000000000379,-7.526075892090458908
0.553000000000000380,-7.471636007036202898
0.554000000000000381,-7.417620431874482279
0.555000000000000382,-7.364026196937103919
0.556000000000000383,-7.310850313748412432
0.557000000000000384,-7.258089776606998278
0.558000000000000385,-7.205741564128009813
0.559000000000000385,-7.153802640746524943
0.560000000000000386,-7.102269958182269249
0.561000000000000387,-7.051140456866207273
0.562000000000000388,-7.000411067329229908
0.563000000000000389,-6.950078711553537403
0.564000000000000390,-6.900140304287016413
0.565000000000000391,-6.850592754321143119
0.566000000000000392,-6.801432965732824520
0.567000000000000393,-6.752657839090664638
0.568000000000000393,-6.704264272626121013
0.569000000000000394,-6.656249163369990285
0.570000000000000395,-6.608609408254895179
0.571000000000000396,-6.561341905183951440
0.572000000000000397,-6.514443554066490449
0.573000000000000398,-6.467911257821020499
0.574000000000000399,-6.421741923346199421
0.575000000000000400,-6.375932462460120576
0.576000000000000401,-6.330479792808592521
0.577000000000000401,-6.285380838742895548
0.578000000000000402,-6.240632532167471602
0.579000000000000403,-6.196231813358147988
0.580000000000000404,-6.152175631751441109
0.581000000000000405,-6.108460946705376315
0.582000000000000406,-6.065084728232450928
0.583000000000000407,-6.022043957705202288
0.584000000000000408,-5.979335628534939495
0.585000000000000409,-5.936956746824183284
0.586000000000000409,-5.894904331993269686
0.587000000000000410,-5.853175417381725865
0.588000000000000411,-5.811767050824869330
0.589000000000000412,-5.770676295206218498
0.590000000000000413,-5.729900228986120503
0.591000000000000414,-5.689435946707226854
0.592000000000000415,-5.649280559477278807
0.593000000000000416,-5.609431195429640304
0.594000000000000417,-5.569885000162174471
0.595000000000000417,-5.530639137154970797
0.596000000000000418,-5.491690788167217008
0.597000000000000419,-5.453037153614039845
0.598000000000000420,-5.414675452923427557
0.599000000000000421,-5.376602924874004152
0.600000000000000422,-5.338816827913934304
0.601000000000000423,-5.301314440461551314
0.602000000000000424,-5.264093061188072298
0.603000000000000425,-5.227150009282900633
0.604000000000000425,-5.190482624701981074
0.605000000000000426,-5.154088268399577899
0.606000000000000427,-5.117964322544056976
