# tri-graphene_BSAI13
# h[nm],U(h)[kJ/mol]
0.149999999999999994,84.899165860053912525
0.150999999999999995,82.748238461911540753
0.151999999999999996,80.141907092012502289
0.152999999999999997,77.470924288530625290
0.153999999999999998,74.875418701615814143
0.154999999999999999,72.381055402595805504
0.156000000000000000,69.970594898971356201
0.157000000000000001,67.618292985872614054
0.158000000000000002,65.303926312686158440
0.159000000000000002,63.016421121861981192
0.160000000000000003,60.752792784940780280
0.161000000000000004,58.515486317961915574
0.162000000000000005,56.309650876135208364
0.163000000000000006,54.140992118414899892
0.164000000000000007,52.014368580920042007
0.165000000000000008,49.933066148617122337
0.166000000000000009,47.898593346811246363
0.167000000000000010,45.910824392306203379
0.168000000000000010,43.968337586629580471
0.169000000000000011,42.068831102297806979
0.170000000000000012,40.209534264276534543
0.171000000000000013,38.387564111294530278
0.172000000000000014,36.600202059717538816
0.173000000000000015,34.845083633876804186
0.174000000000000016,33.120306225910383091
0.175000000000000017,31.424466864568909585
0.176000000000000018,29.756645230684295456
0.177000000000000018,28.116347772496528279
0.178000000000000019,26.503427677575267296
0.179000000000000020,24.917993377663282928
0.180000000000000021,23.360315736076660897
0.181000000000000022,21.830741468324923460
0.182000000000000023,20.329617917067309918
0.183000000000000024,18.857232182367830831
0.184000000000000025,17.413765862864273970
0.185000000000000026,15.999265306442021384
0.186000000000000026,14.613626279961261289
0.187000000000000027,13.256591306097766036
0.188000000000000028,11.927757530997421753
0.189000000000000029,10.626592825872711146
0.190000000000000030,9.352457837313767897
0.191000000000000031,8.104631838028502955
0.192000000000000032,6.882340451231220513
0.193000000000000033,5.684783594004786167
0.194000000000000034,4.511162280438383299
0.195000000000000034,3.360703223215237845
0.196000000000000035,2.232680457205799218
0.197000000000000036,1.126433469895256501
0.198000000000000037,0.041381554486625324
0.199000000000000038,-1.022965701205386990
0.200000000000000039,-2.067001714437066262
0.201000000000000040,-3.091019791589970644
0.202000000000000041,-4.095213295656130015
0.203000000000000042,-5.079678728353954398
0.204000000000000042,-6.044421315639151082
0.205000000000000043,-6.989362664687646998
0.206000000000000044,-7.914350057816681883
0.207000000000000045,-8.819166960739485361
0.208000000000000046,-9.703544345743857491
0.209000000000000047,-10.567172461882238466
0.210000000000000048,-11.409712721453825424
0.211000000000000049,-12.230809412704589434
0.212000000000000050,-13.030100990889943446
0.213000000000000050,-13.807230742092723830
0.214000000000000051,-14.561856655249817649
0.215000000000000052,-15.293660376772129084
0.216000000000000053,-16.002355158262851376
0.217000000000000054,-16.687692740680844850
0.218000000000000055,-17.349469147577998740
0.219000000000000056,-17.987529385631937373
0.220000000000000057,-18.601771072599621704
0.221000000000000058,-19.192147031118501843
0.222000000000000058,-19.758666901661790405
0.223000000000000059,-20.301397839624296893
0.224000000000000060,-20.820464370247073305
0.225000000000000061,-21.316047481161994881
0.226000000000000062,-21.788383036048429631
0.227000000000000063,-22.237759594540740693
0.228000000000000064,-22.664515723397741453
0.229000000000000065,-23.069036882322812687
0.230000000000000066,-23.451751964966938147
0.231000000000000066,-23.813129571801756157
0.232000000000000067,-24.153674086935673415
0.233000000000000068,-24.473921625763836118
0.234000000000000069,-24.774435914770133849
0.235000000000000070,-25.055804158990355290
0.236000000000000071,-25.318632946735416311
0.237000000000000072,-25.563544235276506100
0.238000000000000073,-25.791171455403816282
0.239000000000000073,-26.002155767165437084
0.240000000000000074,-26.197142493737448632
0.241000000000000075,-26.376777755314144258
0.242000000000000076,-26.541705320176696148
0.243000000000000077,-26.692563685723730060
0.244000000000000078,-26.829983398241598280
0.245000000000000079,-26.954584616562449639
0.246000000000000080,-27.066974921504947105
0.247000000000000081,-27.167747370108617844
0.248000000000000081,-27.257478791147455865
0.249000000000000082,-27.336728316227198121
0.250000000000000111,-27.406036138916487488
0.251000000000000112,-27.465922492814065947
0.252000000000000113,-27.516886838193585163
0.253000000000000114,-27.559407245868765557
0.254000000000000115,-27.593939966166765032
0.255000000000000115,-27.620919170360139105
0.256000000000000116,-27.640756851568198726
0.257000000000000117,-27.653842871974923412
0.258000000000000118,-27.660545143200248930
0.259000000000000119,-27.661209926788671964
0.260000000000000120,-27.656162242020645436
0.261000000000000121,-27.645706368594023417
0.262000000000000122,-27.630126432147285698
0.263000000000000123,-27.609687061087868187
0.264000000000000123,-27.584634103736050292
0.265000000000000124,-27.555195395381929302
0.266000000000000125,-27.521581565472718722
0.267000000000000126,-27.483986875785376469
0.268000000000000127,-27.442590081091434939
0.269000000000000128,-27.397555304474060733
0.270000000000000129,-27.349032920109273448
0.271000000000000130,-27.297160436965395292
0.272000000000000131,-27.242063377502500288
0.273000000000000131,-27.183856146064442783
0.274000000000000132,-27.122642882243372497
0.275000000000000133,-27.058518295061492864
0.276000000000000134,-26.991568474351339546
0.277000000000000135,-26.921871676224970571
0.278000000000000136,-26.849499080002203755
0.279000000000000137,-26.774515514416986406
0.280000000000000138,-26.696980151340095944
0.281000000000000139,-26.616947165644649687
0.282000000000000139,-26.534466360198894819
0.283000000000000140,-26.449583755299368448
0.284000000000000141,-26.362342142156489189
0.285000000000000142,-26.272781600316438499
0.286000000000000143,-26.180939979146906182
0.287000000000000144,-26.086853343732638422
0.288000000000000145,-25.990556385720452681
0.289000000000000146,-25.892082799823025852
0.290000000000000147,-25.791465626839020331
0.291000000000000147,-25.688737564174012107
0.292000000000000148,-25.583931244954538187
0.293000000000000149,-25.477079486917251216
0.294000000000000150,-25.368215512327740413
0.295000000000000151,-25.257373140241469400
0.296000000000000152,-25.144586952462123719
0.297000000000000153,-25.029892434583430827
0.298000000000000154,-24.913326093518652016
0.299000000000000155,-24.794925552930312307
0.300000000000000155,-24.674729627971050405
0.301000000000000156,-24.552778380736253183
0.302000000000000157,-24.429113157811951140
0.303000000000000158,-24.303776611276784791
0.304000000000000159,-24.176812704487481653
0.305000000000000160,-24.048266703941727940
0.306000000000000161,-23.918185158473725949
0.307000000000000162,-23.786615866995006741
0.308000000000000163,-23.653607835947106253
0.309000000000000163,-23.519211227585465451
0.310000000000000164,-23.383477300164003054
0.311000000000000165,-23.246458341038700013
0.312000000000000166,-23.108207593657347445
0.313000000000000167,-22.968779179349745334
0.314000000000000168,-22.828228014780847843
0.315000000000000169,-22.686609725876916599
0.316000000000000170,-22.543980558983403029
0.317000000000000171,-22.400397289962267422
0.318000000000000171,-22.255917131886583604
0.319000000000000172,-22.110597641941680536
0.320000000000000173,-21.964496628094515529
0.321000000000000174,-21.817672056046916396
0.322000000000000175,-21.670181956944166046
0.323000000000000176,-21.522084336267319316
0.324000000000000177,-21.373437084296835309
0.325000000000000178,-21.224297888495375020
0.326000000000000179,-21.074724148120736800
0.327000000000000179,-20.924772891343561554
0.328000000000000180,-20.774500695110884152
0.329000000000000181,-20.623963607964842737
0.330000000000000182,-20.473217075994895708
0.331000000000000183,-20.322315872074547372
0.332000000000000184,-20.171314028505776150
0.333000000000000185,-20.020264773170609374
0.334000000000000186,-19.869220469265144402
0.335000000000000187,-19.718232558670372612
0.336000000000000187,-19.567351508994036635
0.337000000000000188,-19.416626764299088848
0.338000000000000189,-19.266106699517948186
0.339000000000000190,-19.115838578535878867
0.340000000000000191,-18.965868515912504222
0.341000000000000192,-18.816241442198613498
0.342000000000000193,-18.667001072792565708
0.343000000000000194,-18.518189880271435754
0.344000000000000195,-18.369849070122086232
0.345000000000000195,-18.222018559789482595
0.346000000000000196,-18.074736960952435538
0.347000000000000197,-17.928041564930644824
0.348000000000000198,-17.781968331121767335
0.349000000000000199,-17.636551878362570989
0.350000000000000200,-17.491825479104885943
0.351000000000000201,-17.347821056293607711
0.352000000000000202,-17.204569182832248231
0.353000000000000203,-17.062099083519548515
0.354000000000000203,-16.920438639339728581
0.355000000000000204,-16.779614393988246945
0.356000000000000205,-16.639651562515162198
0.357000000000000206,-16.500574041968391725
0.358000000000000207,-16.362404423919798546
0.359000000000000208,-16.225164008758760303
0.360000000000000209,-16.088872821638656063
0.361000000000000210,-15.953549629964109968
0.362000000000000210,-15.819211962308504127
0.363000000000000211,-15.685876128653807982
0.364000000000000212,-15.553557241847155268
0.365000000000000213,-15.422269240171292637
0.366000000000000214,-15.292024910928976311
0.367000000000000215,-15.162835914944173155
0.368000000000000216,-15.034712811886270956
0.369000000000000217,-14.907665086326369774
0.370000000000000218,-14.781701174438296675
0.371000000000000218,-14.656828491259947356
0.372000000000000219,-14.533053458434192606
0.373000000000000220,-14.410381532351768996
0.374000000000000221,-14.288817232621997988
0.375000000000000222,-14.168364170800495927
0.376000000000000223,-14.049025079306474595
0.377000000000000224,-13.930801840465420582
0.378000000000000225,-13.813695515616384313
0.379000000000000226,-13.697706374226180870
0.380000000000000226,-13.582833922956215389
0.381000000000000227,-13.469076934630454190
0.382000000000000228,-13.356433477056564030
0.383000000000000229,-13.244900941654876192
0.384000000000000230,-13.134476071852869694
0.385000000000000231,-13.025154991205917909
0.386000000000000232,-12.916933231207488930
0.387000000000000233,-12.809805758754995608
0.388000000000000234,-12.703767003239757827
0.389000000000000234,-12.598810883232578917
0.390000000000000235,-12.494930832738164739
0.391000000000000236,-12.392119826994720810
0.392000000000000237,-12.290370407796629593
0.393000000000000238,-12.189674708320932695
0.394000000000000239,-12.090024477439715866
0.395000000000000240,-11.991411103503226698
0.396000000000000241,-11.893825637579848120
0.397000000000000242,-11.797258816141200199
0.398000000000000242,-11.701701083182346252
0.399000000000000243,-11.607142611768576757
0.400000000000000244,-11.513573325001930314
0.401000000000000245,-11.420982916402174112
0.402000000000000246,-11.329360869698140490
0.403000000000000247,-11.238696478026792391
0.404000000000000248,-11.148978862538688972
0.405000000000000249,-11.060196990409618678
0.406000000000000250,-10.972339692259215127
0.407000000000000250,-10.885395678978570189
0.408000000000000251,-10.799353557969675776
0.409000000000000252,-10.714201848800566808
0.410000000000000253,-10.629928998280693264
0.411000000000000254,-10.546523394962074249
0.412000000000000255,-10.463973383072268319
0.413000000000000256,-10.382267275886073676
0.414000000000000257,-10.301393368543235951
0.415000000000000258,-10.221339950320315282
0.416000000000000258,-10.142095316365081104
0.417000000000000259,-10.063647778902408803
0.418000000000000260,-9.985985677921142667
0.419000000000000261,-9.909097391351487261
0.420000000000000262,-9.832971344743185682
0.421000000000000263,-9.757596020454814223
0.422000000000000264,-9.682959966364681037
0.423000000000000265,-9.609051804114347561
0.424000000000000266,-9.535860236895732811
0.425000000000000266,-9.463374056792988043
0.426000000000000267,-9.391582151690410996
0.427000000000000268,-9.320473511757912277
0.428000000000000269,-9.250037235525359947
0.429000000000000270,-9.180262535557499604
0.430000000000000271,-9.111138743740799129
0.431000000000000272,-9.042655316193897619
0.432000000000000273,-8.974801837813108918
0.433000000000000274,-8.907568026464460331
0.434000000000000274,-8.840943736833663635
0.435000000000000275,-8.774918963945394168
0.436000000000000276,-8.709483846363102799
0.437000000000000277,-8.644628669080423933
0.438000000000000278,-8.580343866115331508
0.439000000000000279,-8.516620022817834368
0.440000000000000280,-8.453447877901933083
0.441000000000000281,-8.390818325212510587
0.442000000000000282,-8.328722415237521659
0.443000000000000282,-8.267151356375725513
0.444000000000000283,-8.206096515970118688
0.445000000000000284,-8.145549421116847100
0.446000000000000285,-8.085501759259361876
0.447000000000000286,-8.025945378577388212
0.448000000000000287,-7.966872288179837724
0.449000000000000288,-7.908274658110973299
0.450000000000000289,-7.850144819178569655
0.451000000000000290,-7.792475262612820863
0.452000000000000290,-7.735258639564470684
0.453000000000000291,-7.678487760450392940
0.454000000000000292,-7.622155594154738090
0.455000000000000293,-7.566255267093366044
0.456000000000000294,-7.510780062149318148
0.457000000000000295,-7.455723417486614935
0.458000000000000296,-7.401078925249646723
0.459000000000000297,-7.346840330155094634
0.460000000000000298,-7.293001527983162369
0.461000000000000298,-7.239556563974635317
0.462000000000000299,-7.186499631140208066
0.463000000000000300,-7.133825068488077292
0.464000000000000301,-7.081527359175853853
0.465000000000000302,-7.029601128592480208
0.466000000000000303,-6.978041142375689176
0.467000000000000304,-6.926842304370296688
0.468000000000000305,-6.875999654532580330
0.469000000000000306,-6.825508366785578929
0.470000000000000306,-6.775363746830168843
0.471000000000000307,-6.725561229916403150
0.472000000000000308,-6.676096378579662094
0.473000000000000309,-6.626964880345672881
0.474000000000000310,-6.578162545408567041
0.475000000000000311,-6.529685304285791858
0.476000000000000312,-6.481529205453713693
0.477000000000000313,-6.433690412967254524
0.478000000000000314,-6.386165204067177470
0.479000000000000314,-6.338949966778150369
0.480000000000000315,-6.292041197500681804
0.481000000000000316,-6.245435498599960944
0.482000000000000317,-6.199129575994274610
0.483000000000000318,-6.153120236745803773
0.484000000000000319,-6.107404386656217099
0.485000000000000320,-6.061979027869563552
0.486000000000000321,-6.016841256484666722
0.487000000000000322,-5.971988260179191599
0.488000000000000322,-5.927417315847399948
0.489000000000000323,-5.883125787253566052
0.490000000000000324,-5.839111122702794532
0.491000000000000325,-5.795370852730959754
0.492000000000000326,-5.751902587815325596
0.493000000000000327,-5.708704016107398971
0.494000000000000328,-5.665772901189326305
0.495000000000000329,-5.623107079855202528
0.496000000000000330,-5.580704459918418792
0.497000000000000330,-5.538563018046235520
0.498000000000000331,-5.496680797622537362
0.499000000000000332,-5.455055906639810104
0.500000000000000333,-5.413686515621111361
0.501000000000000334,-5.372570855572880610
0.502000000000000335,-5.331707215969304414
0.503000000000000336,-5.291093942768897662
0.504000000000000337,-5.250729436463837274
0.505000000000000338,-5.210612150162633682
0.506000000000000338,-5.170740587706537994
0.507000000000000339,-5.131113301820120931
0.508000000000000340,-5.091728892296348619
0.509000000000000341,-5.052586004216468751
0.510000000000000342,-5.013683326204899871
0.511000000000000343,-4.975019588719360897
0.512000000000000344,-4.936593562376327071
0.513000000000000345,-4.898404056311972177
0.514000000000000346,-4.860449916578611251
0.515000000000000346,-4.822730024576658003
0.516000000000000347,-4.785243295522062290
0.517000000000000348,-4.747988676949263187
0.518000000000000349,-4.710965147249367213
0.519000000000000350,-4.674171714243644971
0.520000000000000351,-4.637607413792024680
0.521000000000000352,-4.601271308436492014
0.522000000000000353,-4.565162486079128001
0.523000000000000353,-4.529280058694531874
0.524000000000000354,-4.493623161076484962
0.525000000000000355,-4.458190949618368037
0.526000000000000356,-4.422982601127207758
0.527000000000000357,-4.387997311670951639
0.528000000000000358,-4.353234295458560332
0.529000000000000359,-4.318692783752702269
0.530000000000000360,-4.284372023814518649
0.531000000000000361,-4.250271277880185217
0.532000000000000361,-4.216389822168768120
0.533000000000000362,-4.182726945921028339
0.534000000000000363,-4.149281950468703961
0.535000000000000364,-4.116054148333820883
0.536000000000000365,-4.083042862357627811
0.537000000000000366,-4.050247424858650191
0.538000000000000367,-4.017667176819386121
0.539000000000000368,-3.985301467101263206
0.540000000000000369,-3.953149651687234645
0.541000000000000369,-3.921211092951664146
0.542000000000000370,-3.889485158956934807
0.543000000000000371,-3.857971222776289011
0.544000000000000372,-3.826668661842462793
0.545000000000000373,-3.795576857321558695
0.546000000000000374,-3.764695193511671700
0.547000000000000375,-3.734023057265781098
0.548000000000000376,-3.703559837438428648
0.549000000000000377,-3.673304924355636381
0.550000000000000377,-3.643257709307570646
0.551000000000000378,-3.613417584063501664
0.552000000000000379,-3.583783940408513224
0.553000000000000380,-3.554356169701494483
0.554000000000000381,-3.525133662453889372
0.555000000000000382,-3.496115807928778629
0.556000000000000383,-3.467301993759704715
0.557000000000000384,-3.438691605588885203
0.558000000000000385,-3.410284026724204498
0.559000000000000385,-3.382078637814621036
0.560000000000000386,-3.354074816543429538
0.561000000000000387,-3.326271937338973750
0.562000000000000388,-3.298669371102325609
0.563000000000000389,-3.271266484951453890
0.564000000000000390,-3.244062641981469319
0.565000000000000391,-3.217057201040465664
0.566000000000000392,-3.190249516520541562
0.567000000000000393,-3.163638938163558567
0.568000000000000393,-3.137224810881189541
0.569000000000000394,-3.111006474588856818
0.570000000000000395,-3.084983264053161811
0.571000000000000396,-3.059154508752309987
0.572000000000000397,-3.033519532749257674
0.573000000000000398,-3.008077654577052229
0.574000000000000399,-2.982828187136076004
0.575000000000000400,-2.957770437602725178
0.576000000000000401,-2.932903707349221456
0.577000000000000401,-2.908227291874139642
0.578000000000000402,-2.883740480743276713
0.579000000000000403,-2.859442557540543550
0.580000000000000404,-2.835332799828502282
0.581000000000000405,-2.811410479118208183
0.582000000000000406,-2.787674860848008862
0.583000000000000407,-2.764125204370988520
0.584000000000000408,-2.740760762950726903
0.585000000000000409,-2.717580783765032315
0.586000000000000409,-2.694584507917374250
0.587000000000000410,-2.671771170455677247
0.588000000000000411,-2.649140000398203298
0.589000000000000412,-2.626690220766215500
0.590000000000000413,-2.604421048623136947
0.591000000000000414,-2.582331695119933102
0.592000000000000415,-2.560421365546462269
0.593000000000000416,-2.538689259388481556
0.594000000000000417,-2.517134570390080039
0.595000000000000417,-2.495756486621332648
0.596000000000000418,-2.474554190550786181
0.597000000000000419,-2.453526859122727277
0.598000000000000420,-2.432673663838826883
0.599000000000000421,-2.411993770844044427
0.600000000000000422,-2.391486341016501704
0.601000000000000423,-2.371150530061168382
0.602000000000000424,-2.350985488607084228
0.603000000000000425,-2.330990362307966635
0.604000000000000425,-2.311164291945971172
0.605000000000000426,-2.291506413538419551
0.606000000000000427,-2.272015858447335557
0.607000000000000428,-2.252691753491515403
0.608000000000000429,-2.233533221061101859
