# tri-graphene_BSAIV3
# h[nm],U(h)[kJ/mol]
0.149999999999999994,82.928703068827388734
0.150999999999999995,80.611772057957722382
0.151999999999999996,78.237159983746863645
0.152999999999999997,75.890794618077933364
0.153999999999999998,73.589455750620075491
0.154999999999999999,71.326960608882103543
0.156000000000000000,69.094456426255575821
0.157000000000000001,66.887354745749604490
0.158000000000000002,64.706050677472802590
0.159000000000000002,62.554289916264771421
0.160000000000000003,60.437109510467124096
0.161000000000000004,58.359180881984613620
0.162000000000000005,56.323798100097370423
0.163000000000000006,54.332471581410608508
0.164000000000000007,52.384975825669300775
0.165000000000000008,50.479678953499906413
0.166000000000000009,48.614003848015123310
0.167000000000000010,46.784908442598990064
0.168000000000000010,44.989311724730967512
0.169000000000000011,43.224425560803624080
0.170000000000000012,41.487978088195824000
0.171000000000000013,39.778332114960917920
0.172000000000000014,38.094512780293527499
0.173000000000000015,36.436164131854845039
0.174000000000000016,34.803455756094152207
0.175000000000000017,33.196959466159277952
0.176000000000000018,31.617513370168619957
0.177000000000000018,30.066087213326596839
0.178000000000000019,28.543659279711199872
0.179000000000000020,27.051111727890408076
0.180000000000000021,25.589148240444558269
0.181000000000000022,24.158235398997582877
0.182000000000000023,22.758567281555727391
0.183000000000000024,21.390051393153967751
0.184000000000000025,20.052313127676899995
0.185000000000000026,18.744715445785409713
0.186000000000000026,17.466390263521279991
0.187000000000000027,16.216278102915701709
0.188000000000000028,14.993172790988074539
0.189000000000000029,13.795768347174353963
0.190000000000000030,12.622705621790672126
0.191000000000000031,11.472616699937933760
0.192000000000000032,10.344165535923718124
0.193000000000000033,9.236083710734199315
0.194000000000000034,8.147200594329300216
0.195000000000000034,7.076467536386571666
0.196000000000000035,6.022975999076971121
0.197000000000000036,4.985969782586260557
0.198000000000000037,3.964851680106150411
0.199000000000000038,2.959185037456836920
0.200000000000000039,1.968690788095381894
0.201000000000000040,0.993240592396224309
0.202000000000000041,0.032846736396036122
0.203000000000000042,-0.912350554744277509
0.204000000000000042,-1.842097754187701941
0.205000000000000043,-2.756044024334069142
0.206000000000000044,-3.653758012351130624
0.207000000000000045,-4.534744957911623686
0.208000000000000046,-5.398463681730333086
0.209000000000000047,-6.244343086350264471
0.210000000000000048,-7.071797863126481509
0.211000000000000049,-7.880243159764743766
0.212000000000000050,-8.669108019782743924
0.213000000000000050,-9.437847457927093231
0.214000000000000051,-10.185953083282612397
0.215000000000000052,-10.912962224189154625
0.216000000000000053,-11.618465546000136257
0.217000000000000054,-12.302113184213192554
0.218000000000000055,-12.963619441752353367
0.219000000000000056,-13.602766120458516852
0.220000000000000057,-14.219404573507858913
0.221000000000000058,-14.813456577916605639
0.222000000000000058,-15.384914134946106046
0.223000000000000059,-15.933838311520599262
0.224000000000000060,-16.460357238158156434
0.225000000000000061,-16.964663378811643213
0.226000000000000062,-17.447010185825696738
0.227000000000000063,-17.907708249315270166
0.228000000000000064,-18.347121045005895468
0.229000000000000065,-18.765660378263991248
0.230000000000000066,-19.163781614962427824
0.231000000000000066,-19.541978782227779732
0.232000000000000067,-19.900779614210115653
0.233000000000000068,-20.240740609994404053
0.234000000000000069,-20.562442162787373690
0.235000000000000070,-20.866483811695445638
0.236000000000000071,-21.153479659862654216
0.237000000000000072,-21.424053995545222051
0.238000000000000073,-21.678837145923523622
0.239000000000000073,-21.918461587137560542
0.240000000000000074,-22.143558328211376818
0.241000000000000075,-22.354753581218066216
0.242000000000000076,-22.552665725239194217
0.243000000000000077,-22.737902567386090169
0.244000000000000078,-22.911058900364260182
0.245000000000000079,-23.072714352759636114
0.246000000000000080,-23.223431525383450236
0.247000000000000081,-23.363754404608165771
0.248000000000000081,-23.494207041628591526
0.249000000000000082,-23.615292484962878916
0.250000000000000111,-23.727491952236373862
0.251000000000000112,-23.831264226334432976
0.252000000000000113,-23.927045260341269994
0.253000000000000114,-24.015247975264756519
0.254000000000000115,-24.096262234359805632
0.255000000000000115,-24.170454977870818425
0.256000000000000116,-24.238170502195181655
0.257000000000000117,-24.299730867797997291
0.258000000000000118,-24.355436420659394514
0.259000000000000119,-24.405566412590708580
0.260000000000000120,-24.450379706393626122
0.261000000000000121,-24.490115552538412658
0.262000000000000122,-24.524994424790062197
0.263000000000000123,-24.555218902997431485
0.264000000000000123,-24.580974592069789963
0.265000000000000124,-24.602431066984344454
0.266000000000000125,-24.619742834489347416
0.267000000000000126,-24.633050302980230128
0.268000000000000127,-24.642480752824784673
0.269000000000000128,-24.648149300190947741
0.270000000000000129,-24.650159848182401134
0.271000000000000130,-24.648606019809257361
0.272000000000000131,-24.643572068009785170
0.273000000000000131,-24.635133758592168363
0.274000000000000132,-24.623359222581228778
0.275000000000000133,-24.608309775032644495
0.276000000000000134,-24.590040697915377166
0.277000000000000135,-24.568601985162125345
0.278000000000000136,-24.544039048448190954
0.279000000000000137,-24.516393382680867319
0.280000000000000138,-24.485703190565899945
0.281000000000000139,-24.452003965966056853
0.282000000000000139,-24.415329036079732816
0.283000000000000140,-24.375710062747494078
0.284000000000000141,-24.333177503442119161
0.285000000000000142,-24.287761032715252441
0.286000000000000143,-24.239489925063011810
0.287000000000000144,-24.188393400334867067
0.288000000000000145,-24.134500932947918983
0.289000000000000146,-24.077842526282385194
0.290000000000000147,-24.018448953727357775
0.291000000000000147,-23.956351967918276813
0.292000000000000148,-23.891584479763253057
0.293000000000000149,-23.824180708893159419
0.294000000000000150,-23.754176307194573070
0.295000000000000151,-23.681608457094490916
0.296000000000000152,-23.606515946264099881
0.297000000000000153,-23.528939220396456022
0.298000000000000154,-23.448920415690800212
0.299000000000000155,-23.366503372646292291
0.300000000000000155,-23.281733632730841066
0.301000000000000156,-23.194658419446891884
0.302000000000000157,-23.105326605268054152
0.303000000000000158,-23.013788665867323857
0.304000000000000159,-22.920096623001676051
0.305000000000000160,-22.824303977358557205
0.306000000000000161,-22.726465632609084366
0.307000000000000162,-22.626637811850251580
0.308000000000000163,-22.524877967554889580
0.309000000000000163,-22.421244686084662590
0.310000000000000164,-22.315797587757678855
0.311000000000000165,-22.208597223398701459
0.312000000000000166,-22.099704968237936953
0.313000000000000167,-21.989182913962732613
0.314000000000000168,-21.877093759666330186
0.315000000000000169,-21.763500702379563023
0.316000000000000170,-21.648467327814493899
0.317000000000000171,-21.532057501894190210
0.318000000000000171,-21.414335263589713065
0.319000000000000172,-21.295364719535189835
0.320000000000000173,-21.175209940842904643
0.321000000000000174,-21.053934862494070757
0.322000000000000175,-20.931603185637346343
0.323000000000000176,-20.808278283085002158
0.324000000000000177,-20.684023108257694190
0.325000000000000178,-20.558900107791281187
0.326000000000000179,-20.432971137984793586
0.327000000000000179,-20.306297385235708930
0.328000000000000180,-20.178939290578270516
0.329000000000000181,-20.050956478412807371
0.330000000000000182,-19.922407689487034332
0.331000000000000183,-19.793350718166912827
0.332000000000000184,-19.663842354011798363
0.333000000000000185,-19.533938327648691313
0.334000000000000186,-19.403693260921375696
0.335000000000000187,-19.273160621273802917
0.336000000000000187,-19.142392680311559161
0.337000000000000188,-19.011440476471499039
0.338000000000000189,-18.880353781717936101
0.339000000000000190,-18.749181072172280693
0.340000000000000191,-18.617969502573977536
0.341000000000000192,-18.486764884462470349
0.342000000000000193,-18.355611667962264733
0.343000000000000194,-18.224552927047959372
0.344000000000000195,-18.093630348160342436
0.345000000000000195,-17.962884222041466842
0.346000000000000196,-17.832353438652724265
0.347000000000000197,-17.702075485038157865
0.348000000000000198,-17.572086445993502224
0.349000000000000199,-17.442421007400533028
0.350000000000000200,-17.313112462086113652
0.351000000000000201,-17.184192718065833816
0.352000000000000202,-17.055692309032600917
0.353000000000000203,-16.927640406952470187
0.354000000000000203,-16.800064836631172227
0.355000000000000204,-16.672992092117493002
0.356000000000000205,-16.546447354811711250
0.357000000000000206,-16.420454513150577469
0.358000000000000207,-16.295036183742819702
0.359000000000000208,-16.170213733833016079
0.360000000000000209,-16.046007304974857277
0.361000000000000210,-15.922435837798440517
0.362000000000000210,-15.799517097760292117
0.363000000000000211,-15.677267701768471397
0.364000000000000212,-15.555703145579258262
0.365000000000000213,-15.434837831865891644
0.366000000000000214,-15.314685098863961343
0.367000000000000215,-15.195257249502208907
0.368000000000000216,-15.076565580931600152
0.369000000000000217,-14.958620414369566021
0.370000000000000218,-14.841431125180619688
0.371000000000000218,-14.725006173118377006
0.372000000000000219,-14.609353132658117858
0.373000000000000220,-14.494478723353097394
0.374000000000000221,-14.380388840151450580
0.375000000000000222,-14.267088583614583541
0.376000000000000223,-14.154582289981473053
0.377000000000000224,-14.042873561027098717
0.378000000000000225,-13.931965293666621619
0.379000000000000226,-13.821859709260440496
0.380000000000000226,-13.712558382578668770
0.381000000000000227,-13.604062270386521050
0.382000000000000228,-13.496371739615634411
0.383000000000000229,-13.389486595088978760
0.384000000000000230,-13.283406106770078381
0.385000000000000231,-13.178129036510146221
0.386000000000000232,-13.073653664269134111
0.387000000000000233,-12.969977813789560273
0.388000000000000234,-12.867098877704126636
0.389000000000000234,-12.765013842060845661
0.390000000000000235,-12.663719310251121186
0.391000000000000236,-12.563211526328904810
0.392000000000000237,-12.463486397710543230
0.393000000000000238,-12.364539517247267852
0.394000000000000239,-12.266366184663720418
0.395000000000000240,-12.168961427357865901
0.396000000000000241,-12.072320020559155651
0.397000000000000242,-11.976436506843224805
0.398000000000000242,-11.881305215003028053
0.399000000000000243,-11.786920278277449370
0.400000000000000244,-11.693275651939636361
0.401000000000000245,-11.600365130248807333
0.402000000000000246,-11.508182362769883156
0.403000000000000247,-11.416720870066512816
0.404000000000000248,-11.325974058774090025
0.405000000000000249,-11.235935236060024422
0.406000000000000250,-11.146597623479319594
0.407000000000000250,-11.057954370234320152
0.408000000000000251,-10.969998565847998151
0.409000000000000252,-10.882723252260952052
0.410000000000000253,-10.796121435362460161
0.411000000000000254,-10.710186095966793829
0.412000000000000255,-10.624910200246111103
0.413000000000000256,-10.540286709631789819
0.414000000000000257,-10.456308590196213615
0.415000000000000258,-10.372968821527550176
0.416000000000000258,-10.290260405109977526
0.417000000000000259,-10.208176372222238726
0.418000000000000260,-10.126709791367501268
0.419000000000000261,-10.045853775247426398
0.420000000000000262,-9.965601487293811900
0.421000000000000263,-9.885946147770841463
0.422000000000000264,-9.806881039461160299
0.423000000000000265,-9.728399512949007288
0.424000000000000266,-9.650494991513610898
0.425000000000000266,-9.573160975645851778
0.426000000000000267,-9.496391047201266034
0.427000000000000268,-9.420178873202328163
0.428000000000000269,-9.344518209302767886
0.429000000000000270,-9.269402902926627164
0.430000000000000271,-9.194826896094514979
0.431000000000000272,-9.120784227949435774
0.432000000000000273,-9.047269036994340041
0.433000000000000274,-8.974275563053362603
0.434000000000000274,-8.901798148968442348
0.435000000000000275,-8.829831242042985195
0.436000000000000276,-8.758369395243800426
0.437000000000000277,-8.687407268172394836
0.438000000000000278,-8.616939627816517344
0.439000000000000279,-8.546961349092592641
0.440000000000000280,-8.477467415189270383
0.441000000000000281,-8.408452917722348374
0.442000000000000282,-8.339913056710887673
0.443000000000000282,-8.271843140383987603
0.444000000000000283,-8.204238584827791669
0.445000000000000284,-8.137094913481590197
0.446000000000000285,-8.070407756491910334
0.447000000000000286,-8.004172849933262057
0.448000000000000287,-7.938386034903584410
0.449000000000000288,-7.873043256502701759
0.450000000000000289,-7.808140562701386678
0.451000000000000290,-7.743674103108598494
0.452000000000000290,-7.679640127644212555
0.453000000000000291,-7.616034985124183088
0.454000000000000292,-7.552855121764977753
0.455000000000000293,-7.490097079613716069
0.456000000000000294,-7.427757494910425251
0.457000000000000295,-7.365833096388298529
0.458000000000000296,-7.304320703517879210
0.459000000000000297,-7.243217224700731371
0.460000000000000298,-7.182519655417846316
0.461000000000000298,-7.122225076338073890
0.462000000000000299,-7.062330651391363290
0.463000000000000300,-7.002833625811523355
0.464000000000000301,-6.943731324153061379
0.465000000000000302,-6.885021148286336157
0.466000000000000303,-6.826700575375101110
0.467000000000000304,-6.768767155840313521
0.468000000000000305,-6.711218511314020141
0.469000000000000306,-6.654052332586670282
0.470000000000000306,-6.597266377551392225
0.471000000000000307,-6.540858469148157717
0.472000000000000308,-6.484826493311118156
0.473000000000000309,-6.429168396921663309
0.474000000000000310,-6.373882185770094466
0.475000000000000311,-6.318965922528258616
0.476000000000000312,-6.264417724735726445
0.477000000000000313,-6.210235762801457504
0.478000000000000314,-6.156418258023279577
0.479000000000000314,-6.102963480627046522
0.480000000000000315,-6.049869747827214539
0.481000000000000316,-5.997135421910703812
0.482000000000000317,-5.944758908345420423
0.483000000000000318,-5.892738653915065683
0.484000000000000319,-5.841073144881425705
0.485000000000000320,-5.789760905175515227
0.486000000000000321,-5.738800494618609527
0.487000000000000322,-5.688190507174200938
0.488000000000000322,-5.637929569231849847
0.489000000000000323,-5.588016337923761512
0.490000000000000324,-5.538449499474821458
0.491000000000000325,-5.489227767586795537
0.492000000000000326,-5.440349881857204473
0.493000000000000327,-5.391814606233497287
0.494000000000000328,-5.343620727502860213
0.495000000000000329,-5.295767053818076775
0.496000000000000330,-5.248252413259733018
0.497000000000000330,-5.201075652435008578
0.498000000000000331,-5.154235635113173508
0.499000000000000332,-5.107731240898015557
0.500000000000000333,-5.061561363937161495
0.501000000000000334,-5.015724911668351993
0.502000000000000335,-4.970220803602596327
0.503000000000000336,-4.925047970144200704
0.504000000000000337,-4.880205351447431283
0.505000000000000338,-4.835691896309735505
0.506000000000000338,-4.791506561101274819
0.507000000000000339,-4.747648308730502364
0.508000000000000340,-4.704116107645546663
0.509000000000000341,-4.660908930871099365
0.510000000000000342,-4.618025755080407357
0.511000000000000343,-4.575465559702053042
0.512000000000000344,-4.533227326061099127
0.513000000000000345,-4.491310036554202689
0.514000000000000346,-4.449712673858257972
0.515000000000000346,-4.408434220172059881
0.516000000000000347,-4.367473656490564515
0.517000000000000348,-4.326829961911261790
0.518000000000000349,-4.286502112972029543
0.519000000000000350,-4.246489083020110300
0.520000000000000351,-4.206789841611540126
0.521000000000000352,-4.167403353940536626
0.522000000000000353,-4.128328580298288308
0.523000000000000353,-4.089564475560498735
0.524000000000000354,-4.051109988703268883
0.525000000000000355,-4.012964062346523697
0.526000000000000356,-3.975125632324560065
0.527000000000000357,-3.937593627283065612
0.528000000000000358,-3.900366968301958615
0.529000000000000359,-3.863444568543532576
0.530000000000000360,-3.826825332925238854
0.531000000000000361,-3.790508157816552703
0.532000000000000361,-3.754491930759249918
0.533000000000000362,-3.718775530210572722
0.534000000000000363,-3.683357825308628097
0.535000000000000364,-3.648237675659403045
0.536000000000000365,-3.613413931144877189
0.537000000000000366,-3.578885431751544388
0.538000000000000367,-3.544651007418798461
0.539000000000000368,-3.510709477906626574
0.540000000000000369,-3.477059652681925517
0.541000000000000369,-3.443700330822994093
0.542000000000000370,-3.410630300941531967
0.543000000000000371,-3.377848341121594267
0.544000000000000372,-3.345353218875001922
0.545000000000000373,-3.313143691112570899
0.546000000000000374,-3.281218504130672731
0.547000000000000375,-3.249576393612538361
0.548000000000000376,-3.218216084643856334
0.549000000000000377,-3.187136291742041827
0.550000000000000377,-3.156335718898700460
0.551000000000000378,-3.125813059634814817
0.552000000000000379,-3.095566997068098125
0.553000000000000380,-3.065596203992055457
0.554000000000000381,-3.035899342966247527
0.555000000000000382,-3.006475066417334752
0.556000000000000383,-2.977322016750326039
0.557000000000000384,-2.948438826469728991
0.558000000000000385,-2.919824118310004657
0.559000000000000385,-2.891476505375005779
0.560000000000000386,-2.863394591285872259
0.561000000000000387,-2.835576970337041480
0.562000000000000388,-2.808022227659934700
0.563000000000000389,-2.780728939393876775
0.564000000000000390,-2.753695672863926802
0.565000000000000391,-2.726920986765189792
0.566000000000000392,-2.700403431353235018
0.567000000000000393,-2.674141548640291965
0.568000000000000393,-2.648133872596814875
0.569000000000000394,-2.622378929358101907
0.570000000000000395,-2.596875237435645190
0.571000000000000396,-2.571621307932816514
0.572000000000000397,-2.546615644764665287
0.573000000000000398,-2.521856744881399770
0.574000000000000399,-2.497343098495380609
0.575000000000000400,-2.473073189311192799
0.576000000000000401,-2.449045494758622432
0.577000000000000401,-2.425258486228206944
0.578000000000000402,-2.401710629309088407
0.579000000000000403,-2.378400384028912296
0.580000000000000404,-2.355326205095547909
0.581000000000000405,-2.332486542140342234
0.582000000000000406,-2.309879839962680315
0.583000000000000407,-2.287504538775643415
0.584000000000000408,-2.265359074452525601
0.585000000000000409,-2.243441878773986264
0.586000000000000409,-2.221751379675649840
0.587000000000000410,-2.200286001495940891
0.588000000000000411,-2.179044165223963159
0.589000000000000412,-2.158024288747238284
0.590000000000000413,-2.137224787099119006
0.591000000000000414,-2.116644072705707202
0.592000000000000415,-2.096280555632133336
0.593000000000000416,-2.076132643827982793
0.594000000000000417,-2.056198743371763449
0.595000000000000417,-2.036477258714286531
0.596000000000000418,-2.016966592920716561
0.597000000000000419,-1.997665147911305450
0.598000000000000420,-1.978571324700538536
0.599000000000000421,-1.959683523634673907
0.600000000000000422,-1.941000144627491153
0.601000000000000423,-1.922519587394185603
0.602000000000000424,-1.904240251683254836
0.603000000000000425,-1.886160537506313517
0.604000000000000425,-1.868278845365725527
0.605000000000000426,-1.850593576479942826
0.606000000000000427,-1.833103133006526830
0.607000000000000428,-1.815805918262652030
0.608000000000000429,-1.798700336943180433
