# tri-graphene_TRP-AC
# h[nm],U(h)[kJ/mol]
0.149999999999999994,139.351060458472431947
0.150999999999999995,133.803014841850512084
0.151999999999999996,130.815168401339121829
0.152999999999999997,128.392528192574275181
0.153999999999999998,125.799925055160699117
0.154999999999999999,122.897813627947627424
0.156000000000000000,119.781737495429496221
0.157000000000000001,116.601384712692421886
0.158000000000000002,113.481552764349501672
0.159000000000000002,110.497560332653463888
0.160000000000000003,107.677023513033645941
0.161000000000000004,105.012107054438700970
0.162000000000000005,102.473846205366157847
0.163000000000000006,100.024581797201292943
0.164000000000000007,97.627074169467093157
0.165000000000000008,95.250194757993298822
0.166000000000000009,92.871714891213940746
0.167000000000000010,90.478924321638572792
0.168000000000000010,88.067807486016050689
0.169000000000000011,85.641398639577658969
0.170000000000000012,83.207794696760629449
0.171000000000000013,80.778163168336746480
0.172000000000000014,78.364959617063817632
0.173000000000000015,75.980471102499222980
0.174000000000000016,73.635729527130962424
0.175000000000000017,71.339788893419282090
0.176000000000000018,69.099329221424056868
0.177000000000000018,66.918533023010326133
0.178000000000000019,64.799173878398406146
0.179000000000000020,62.740857496781117675
0.180000000000000021,60.741361005337921597
0.181000000000000022,58.797024071253574107
0.182000000000000023,56.903154344807191478
0.183000000000000024,55.054418603534351462
0.184000000000000025,53.245199227363187333
0.185000000000000026,51.469902868779527694
0.186000000000000026,49.723214228704009088
0.187000000000000027,48.000292676684566118
0.188000000000000028,46.296913124302108145
0.189000000000000029,44.609555189921138663
0.190000000000000030,42.935446426085519533
0.191000000000000031,41.272566372303856497
0.192000000000000032,39.619618596521831932
0.193000000000000033,37.975977837486809108
0.194000000000000034,36.341618980632986791
0.195000000000000034,34.717033997107179744
0.196000000000000035,33.103142235862797804
0.197000000000000036,31.501198651703020914
0.198000000000000037,29.912703731264720375
0.199000000000000038,28.339318083858046293
0.200000000000000039,26.782783922678493838
0.201000000000000040,25.244854992309942787
0.202000000000000041,23.727235910927937823
0.203000000000000042,22.231531394364367316
0.204000000000000042,20.759205413755658753
0.205000000000000043,19.311550005079912040
0.206000000000000044,17.889663191405841047
0.207000000000000045,16.494435289621243612
0.208000000000000046,15.126542744506616955
0.209000000000000047,13.786448555764508228
0.210000000000000048,12.474408329648928984
0.211000000000000049,11.190480988227985648
0.212000000000000050,9.934543198725652502
0.213000000000000050,8.706306636226891271
0.214000000000000051,7.505337259452917742
0.215000000000000052,6.331075856285350412
0.216000000000000053,5.182859198960841240
0.217000000000000054,4.059941234826619727
0.218000000000000055,2.961513824367635550
0.219000000000000056,1.886726621624080114
0.220000000000000057,0.834705771377967087
0.221000000000000058,-0.195428828645147046
0.222000000000000058,-1.204547884713329742
0.223000000000000059,-2.193498806486195551
0.224000000000000060,-3.163093618384919203
0.225000000000000061,-4.114098705663218780
0.226000000000000062,-5.047226377993141888
0.227000000000000063,-5.963128200032969062
0.228000000000000064,-6.862390011265176781
0.229000000000000065,-7.745528535917368451
0.230000000000000066,-8.612989467490582030
0.231000000000000066,-9.465146900792190010
0.232000000000000067,-10.302303976860788026
0.233000000000000068,-11.124694602254187714
0.234000000000000069,-11.932486103336728434
0.235000000000000070,-12.725782677967762524
0.236000000000000071,-13.504629510907836476
0.237000000000000072,-14.269017424912622261
0.238000000000000073,-15.018887946496340291
0.239000000000000073,-15.754138673381683944
0.240000000000000074,-16.474628839416027404
0.241000000000000075,-17.180184981955999746
0.242000000000000076,-17.870606626184329713
0.243000000000000077,-18.545671910329623699
0.244000000000000078,-19.205143085149671833
0.245000000000000079,-19.848771830180513831
0.246000000000000080,-20.476304338038215036
0.247000000000000081,-21.087486126408432341
0.248000000000000081,-21.682066545201866603
0.249000000000000082,-22.259802953652119584
0.250000000000000111,-22.820464548854474174
0.251000000000000112,-23.363835833375055984
0.252000000000000113,-23.889719715097349706
0.253000000000000114,-24.397940237418318077
0.254000000000000115,-24.888344942280905769
0.255000000000000115,-25.360806872344465290
0.256000000000000116,-25.815226221882461743
0.257000000000000117,-26.251531648781803341
0.258000000000000118,-26.669681262332716187
0.259000000000000119,-27.069663303377200947
0.260000000000000120,-27.451496534861156817
0.261000000000000121,-27.815230361942735016
0.262000000000000122,-28.160944701586963390
0.263000000000000123,-28.488749622052040422
0.264000000000000123,-28.798784772884040706
0.265000000000000124,-29.091218626011407622
0.266000000000000125,-29.366247548301579684
0.267000000000000126,-29.624094725535321970
0.268000000000000127,-29.865008957198519113
0.269000000000000128,-30.089263340808013680
0.270000000000000129,-30.297153863703222498
0.271000000000000130,-30.488997919367399447
0.272000000000000131,-30.665132764411008992
0.273000000000000131,-30.825913931371964338
0.274000000000000132,-30.971713611477913020
0.275000000000000133,-31.102919020489785851
0.276000000000000134,-31.219930759712468671
0.277000000000000135,-31.323161183230411098
0.278000000000000136,-31.413032781412518091
0.279000000000000137,-31.489976589736926371
0.280000000000000138,-31.554430631021610054
0.281000000000000139,-31.606838398215256092
0.282000000000000139,-31.647647384008326554
0.283000000000000140,-31.677307662671712052
0.284000000000000141,-31.696270528720919657
0.285000000000000142,-31.704987196240590919
0.286000000000000143,-31.703907561986785169
0.287000000000000144,-31.693479034715977605
0.288000000000000145,-31.674145432568014513
0.289000000000000146,-31.646345949755879445
0.290000000000000147,-31.610514193288093310
0.291000000000000147,-31.567077289967265585
0.292000000000000148,-31.516455063471880749
0.293000000000000149,-31.459059280932571312
0.294000000000000150,-31.395292968062431527
0.295000000000000151,-31.325549791586109194
0.296000000000000152,-31.250213507436541249
0.297000000000000153,-31.169657472947726262
0.298000000000000154,-31.084244221064132319
0.299000000000000155,-30.994325094412253918
0.300000000000000155,-30.900239936932667462
0.301000000000000156,-30.802316840652387953
0.302000000000000157,-30.700871945082980119
0.303000000000000158,-30.596209286659728832
0.304000000000000159,-30.488620695587805187
0.305000000000000160,-30.378385737431433000
0.306000000000000161,-30.265771696770638499
0.307000000000000162,-30.151033600253885680
0.308000000000000163,-30.034414276393153642
0.309000000000000163,-29.916144449479645573
0.310000000000000164,-29.796442865040823733
0.311000000000000165,-29.675516444311369924
0.312000000000000166,-29.553560465252907363
0.313000000000000167,-29.430758767725052394
0.314000000000000168,-29.307283980485834718
0.315000000000000169,-29.183297767779201592
0.316000000000000170,-29.058951093352664685
0.317000000000000171,-28.934384499835051230
0.318000000000000171,-28.809728401495569017
0.319000000000000172,-28.685103388497225296
0.320000000000000173,-28.560620540851573423
0.321000000000000174,-28.436381750375051780
0.322000000000000175,-28.312480049042129338
0.323000000000000176,-28.188999942223016859
0.324000000000000177,-28.066017745387046745
0.325000000000000178,-27.943601922943315685
0.326000000000000179,-27.821813427980430333
0.327000000000000179,-27.700706041754223463
0.328000000000000180,-27.580326711857686917
0.329000000000000181,-27.460715888090852843
0.330000000000000182,-27.341907855127608684
0.331000000000000183,-27.223931061155006716
0.332000000000000184,-27.106808441734415283
0.333000000000000185,-26.990557738205886551
0.334000000000000186,-26.875191810025775396
0.335000000000000187,-26.760718940492729701
0.336000000000000187,-26.647143135380247259
0.337000000000000188,-26.534464414052184367
0.338000000000000189,-26.422679092695325664
0.339000000000000190,-26.311780059354624939
0.340000000000000191,-26.201757040507693830
0.341000000000000192,-26.092596858962291861
0.342000000000000193,-25.984283682904003143
0.343000000000000194,-25.876799265963278174
0.344000000000000195,-25.770123178209040304
0.345000000000000195,-25.664233028012279902
0.346000000000000196,-25.559104674755715791
0.347000000000000197,-25.454712432396856769
0.348000000000000198,-25.351029263919613754
0.349000000000000199,-25.248026966735487520
0.350000000000000200,-25.145676349119550963
0.351000000000000201,-25.043947397787139408
0.352000000000000202,-24.942809436737338302
0.353000000000000203,-24.842231277506549247
0.354000000000000203,-24.742181360991303052
0.355000000000000204,-24.642627891012942598
0.356000000000000205,-24.543538959809904298
0.357000000000000206,-24.444882665653409504
0.358000000000000207,-24.346627222791596523
0.359000000000000208,-24.248741063935561613
0.360000000000000209,-24.151192935506866633
0.361000000000000210,-24.053951985871531605
0.362000000000000210,-23.956987846789875363
0.363000000000000211,-23.860270708314828880
0.364000000000000212,-23.763771387373250121
0.365000000000000213,-23.667461390266474552
0.366000000000000214,-23.571312969326477571
0.367000000000000215,-23.475299173964042865
0.368000000000000216,-23.379393896344140558
0.369000000000000217,-23.283571911922159359
0.370000000000000218,-23.187808915072494642
0.371000000000000218,-23.092081550038130899
0.372000000000000219,-22.996367437426791014
0.373000000000000220,-22.900645196475498011
0.374000000000000221,-22.804894463301458529
0.375000000000000222,-22.709095905352590705
0.376000000000000223,-22.613231232266794990
0.377000000000000224,-22.517283203343755105
0.378000000000000225,-22.421235631828157153
0.379000000000000226,-22.325073386197676228
0.380000000000000226,-22.228782388644155787
0.381000000000000227,-22.132349610929871631
0.382000000000000228,-22.035763067796128922
0.383000000000000229,-21.939011808094925016
0.384000000000000230,-21.842085903808772684
0.385000000000000231,-21.744976437118332058
0.386000000000000232,-21.647675485670923479
0.387000000000000233,-21.550176106197788783
0.388000000000000234,-21.452472316621872039
0.389000000000000234,-21.354559076792092753
0.390000000000000235,-21.256432267974457062
0.391000000000000236,-21.158088671224696498
0.392000000000000237,-21.059525944761329441
0.393000000000000238,-20.960742600453123430
0.394000000000000239,-20.861737979528655273
0.395000000000000240,-20.762512227611360061
0.396000000000000241,-20.663066269177527090
0.397000000000000242,-20.563401781530011192
0.398000000000000242,-20.463521168375489623
0.399000000000000243,-20.363427533088184873
0.400000000000000244,-20.263124651738195325
0.401000000000000245,-20.162616945958568238
0.402000000000000246,-20.061909455720041251
0.403000000000000247,-19.961007812078740642
0.404000000000000248,-19.859918209957793778
0.405000000000000249,-19.758647381019819989
0.406000000000000250,-19.657202566683356082
0.407000000000000250,-19.555591491332680931
0.408000000000000251,-19.453822335766890461
0.409000000000000252,-19.351903710930560720
0.410000000000000253,-19.249844631965178365
0.411000000000000254,-19.147654492617299127
0.412000000000000255,-19.045343040036183169
0.413000000000000256,-18.942920349991247519
0.414000000000000257,-18.840396802536126586
0.415000000000000258,-18.737783058144415804
0.416000000000000258,-18.635090034338784193
0.417000000000000259,-18.532328882833361661
0.418000000000000260,-18.429510967206660155
0.419000000000000261,-18.326647841120315974
0.420000000000000262,-18.223751227096730787
0.421000000000000263,-18.120832995866926751
0.422000000000000264,-18.017905146297845675
0.423000000000000265,-17.914979785906758991
0.424000000000000266,-17.812069111968845903
0.425000000000000266,-17.709185393222163896
0.426000000000000267,-17.606340952173162862
0.427000000000000268,-17.503548148004263396
0.428000000000000269,-17.400819360083808363
0.429000000000000270,-17.298166972077485326
0.430000000000000271,-17.195603356659358241
0.431000000000000272,-17.093140860819264759
0.432000000000000273,-16.990791791762706708
0.433000000000000274,-16.888568403398394935
0.434000000000000274,-16.786482883407487066
0.435000000000000275,-16.684547340888265410
0.436000000000000276,-16.582773794568979042
0.437000000000000277,-16.481174161580931070
0.438000000000000278,-16.379760246783472866
0.439000000000000279,-16.278543732632051899
0.440000000000000280,-16.177536169579603609
0.441000000000000281,-16.076748967001680768
0.442000000000000282,-15.976193384635063666
0.443000000000000282,-15.875880524518979797
0.444000000000000283,-15.775821323428468546
0.445000000000000284,-15.676026545788420918
0.446000000000000285,-15.576506777057000264
0.447000000000000286,-15.477272417567069951
0.448000000000000287,-15.378333676813614517
0.449000000000000288,-15.279700568175673681
0.450000000000000289,-15.181382904060518158
0.451000000000000290,-15.083390291458405486
0.452000000000000290,-14.985732127895698085
0.453000000000000291,-14.888417597774330048
0.454000000000000292,-14.791455669085745939
0.455000000000000293,-14.694855090487070726
0.456000000000000294,-14.598624388727808210
0.457000000000000295,-14.502771866415097080
0.458000000000000296,-14.407305600105633658
0.459000000000000297,-14.312233438712809175
0.460000000000000298,-14.217563002217229240
0.461000000000000298,-14.123301680669431590
0.462000000000000299,-14.029456633473248672
0.463000000000000300,-13.936034788938872708
0.464000000000000301,-13.843042844094531674
0.465000000000000302,-13.750487264746038107
0.466000000000000303,-13.658374285773456691
0.467000000000000304,-13.566709911654587728
0.468000000000000305,-13.475499917204933453
0.469000000000000306,-13.384749848524128524
0.470000000000000306,-13.294465024139006104
0.471000000000000307,-13.204650536333559785
0.472000000000000308,-13.115311252656592700
0.473000000000000309,-13.026451817597626714
0.474000000000000310,-12.938076654422200562
0.475000000000000311,-12.850189967157760407
0.476000000000000312,-12.762795742721715797
0.477000000000000313,-12.675897753183082983
0.478000000000000314,-12.589499558149878311
0.479000000000000314,-12.503604507274298285
0.480000000000000315,-12.418215742867937834
0.481000000000000316,-12.333336202619859634
0.482000000000000317,-12.248968622410032481
0.483000000000000318,-12.165115539211360129
0.484000000000000319,-12.081779294073438535
0.485000000000000320,-11.998962035181575558
0.486000000000000321,-11.916665720984646271
0.487000000000000322,-11.834892123385738927
0.488000000000000322,-11.753642830989587509
0.489000000000000323,-11.672919252401275259
0.490000000000000324,-11.592722619570491105
0.491000000000000325,-11.513053991176233737
0.492000000000000326,-11.433914256046660896
0.493000000000000327,-11.355304136609440491
0.494000000000000328,-11.277224192367611977
0.495000000000000329,-11.199674823396700063
0.496000000000000330,-11.122656273858478215
0.497000000000000330,-11.046168635527509494
0.498000000000000331,-10.970211851326137520
0.499000000000000332,-10.894785718864493873
0.500000000000000333,-10.819889893981574858
0.501000000000000334,-10.745523894284040978
0.502000000000000335,-10.671687102679422665
0.503000000000000336,-10.598378770900589885
0.504000000000000337,-10.525598023018378768
0.505000000000000338,-10.453343858939643241
0.506000000000000338,-10.381615157887917889
0.507000000000000339,-10.310410681864206950
0.508000000000000340,-10.239729079085362784
0.509000000000000341,-10.169568887397902657
0.510000000000000342,-10.099928537664911943
0.511000000000000343,-10.030806357124140149
0.512000000000000344,-9.962200572715278923
0.513000000000000345,-9.894109314374619046
0.514000000000000346,-9.826530618295509001
0.515000000000000346,-9.759462430152833434
0.516000000000000347,-9.692902608290193456
0.517000000000000348,-9.626848926868452949
0.518000000000000349,-9.561299078974144550
0.519000000000000350,-9.496250679686871976
0.520000000000000351,-9.431701269104371121
0.521000000000000352,-9.367648315324434094
0.522000000000000353,-9.304089217382655264
0.523000000000000353,-9.241021308145189295
0.524000000000000354,-9.178441857155942074
0.525000000000000355,-9.116348073437295696
0.526000000000000356,-9.054737108243942956
0.527000000000000357,-8.993606057769296669
0.528000000000000358,-8.932951965803917815
0.529000000000000359,-8.872771826345744017
0.530000000000000360,-8.813062586161636958
0.531000000000000361,-8.753821147300127947
0.532000000000000361,-8.695044369555024133
0.533000000000000362,-8.636729072879861135
0.534000000000000363,-8.578872039753015599
0.535000000000000364,-8.521470017493438576
0.536000000000000365,-8.464519720527077240
0.537000000000000366,-8.408017832603979613
0.538000000000000367,-8.351961008966114264
0.539000000000000368,-8.296345878466253154
0.540000000000000369,-8.241169045637768420
0.541000000000000369,-8.186427092715884868
0.542000000000000370,-8.132116581610370432
0.543000000000000371,-8.078234055830071370
0.544000000000000372,-8.024776042359608397
0.545000000000000373,-7.971739053488493099
0.546000000000000374,-7.919119588593096282
0.547000000000000375,-7.866914135871811098
0.548000000000000376,-7.815119174033893223
0.549000000000000377,-7.763731173942379549
0.550000000000000377,-7.712746600211477066
0.551000000000000378,-7.662161912759041904
0.552000000000000379,-7.611973568314543748
0.553000000000000380,-7.562178021883080525
0.554000000000000381,-7.512771728165898999
0.555000000000000382,-7.463751142938155780
0.556000000000000383,-7.415112724384184339
0.557000000000000384,-7.366852934391151742
0.558000000000000385,-7.318968239801461273
0.559000000000000385,-7.271455113624620381
0.560000000000000386,-7.224310036209104169
0.561000000000000387,-7.177529496374904561
0.562000000000000388,-7.131109992507272288
0.563000000000000389,-7.085048033612414642
0.564000000000000390,-7.039340140335644591
0.565000000000000391,-6.993982845942719351
0.566000000000000392,-6.948972697264935050
0.567000000000000393,-6.904306255608702259
0.568000000000000393,-6.859980097630130835
0.569000000000000394,-6.815990816175350631
0.570000000000000395,-6.772335021087267926
0.571000000000000396,-6.729009339979223903
0.572000000000000397,-6.686010418976396252
0.573000000000000398,-6.643334923425475047
0.574000000000000399,-6.600979538573310990
0.575000000000000400,-6.558940970215123123
0.576000000000000401,-6.517215945312950787
0.577000000000000401,-6.475801212585045263
0.578000000000000402,-6.434693543066655863
0.579000000000000403,-6.393889730643030234
0.580000000000000404,-6.353386592555173351
0.581000000000000405,-6.313180969878979809
0.582000000000000406,-6.273269727978370014
0.583000000000000407,-6.233649756933048458
0.584000000000000408,-6.194317971941498691
0.585000000000000409,-6.155271313699794966
0.586000000000000409,-6.116506748756835421
0.587000000000000410,-6.078021269846597185
0.588000000000000411,-6.039811896197988972
0.589000000000000412,-6.001875673822869572
0.590000000000000413,-5.964209675782815800
0.591000000000000414,-5.926811002435185216
0.592000000000000415,-5.889676781659085592
0.593000000000000416,-5.852804169061691653
0.594000000000000417,-5.816190348165537927
0.595000000000000417,-5.779832530577378336
0.596000000000000418,-5.743727956138887869
0.597000000000000419,-5.707873893060104287
0.598000000000000420,-5.672267638035727089
0.599000000000000421,-5.636906516345102425
0.600000000000000422,-5.601787881936150626
0.601000000000000423,-5.566909117493895387
0.602000000000000424,-5.532267634493960529
0.603000000000000425,-5.497860873241540602
0.604000000000000425,-5.463686302896357816
0.605000000000000426,-5.429741421483950781
0.606000000000000427,-5.396023755893902596
