# tri-graphene_HID-AC
# h[nm],U(h)[kJ/mol]
0.149999999999999994,136.740446974106049538
0.150999999999999995,132.691162447543604230
0.151999999999999996,129.746521124250762114
0.152999999999999997,127.102449923734226900
0.153999999999999998,124.438509497976809826
0.154999999999999999,121.674816595706374756
0.156000000000000000,118.835141175065501784
0.157000000000000001,115.974630882873810833
0.158000000000000002,113.145528949669184726
0.159000000000000002,110.384162269703097081
0.160000000000000003,107.708976034065727845
0.161000000000000004,105.123585446015880507
0.162000000000000005,102.621467243679944659
0.163000000000000006,100.190547471900771370
0.164000000000000007,97.816913180664059269
0.165000000000000008,95.487424241969748095
0.166000000000000009,93.191286877212959894
0.167000000000000010,90.920777524995543217
0.168000000000000010,88.671341896909268598
0.169000000000000011,86.441282034218303920
0.170000000000000012,84.231209912405148543
0.171000000000000013,82.043404874386155257
0.172000000000000014,79.881172244548423578
0.173000000000000015,77.748265935283455974
0.174000000000000016,75.648410188197956927
0.175000000000000017,73.584934822355862138
0.176000000000000018,71.560523771249137326
0.177000000000000018,69.577067241360424532
0.178000000000000019,67.635602417183349644
0.179000000000000020,65.736325243707739219
0.180000000000000021,63.878655550932322171
0.181000000000000022,62.061338921042171535
0.182000000000000023,60.282570671406986662
0.183000000000000024,58.540129712119821193
0.184000000000000025,56.831512533024202583
0.185000000000000026,55.154059977882148758
0.186000000000000026,53.505071645035592098
0.187000000000000027,51.881904644911813307
0.188000000000000028,50.282055017203433067
0.189000000000000029,48.703221365697444867
0.190000000000000030,47.143351226618669614
0.191000000000000031,45.600671378295373870
0.192000000000000032,44.073703762823953411
0.193000000000000033,42.561268962644874136
0.194000000000000034,41.062479293843090034
0.195000000000000034,39.576723577983685232
0.196000000000000035,38.103645565993318201
0.197000000000000036,36.643117837337499054
0.198000000000000037,35.195212807530090515
0.199000000000000038,33.760172264725291313
0.200000000000000039,32.338376635869423126
0.201000000000000040,30.930314965356284773
0.202000000000000041,29.536556382167638901
0.203000000000000042,28.157723640482391403
0.204000000000000042,26.794469147099011508
0.205000000000000043,25.447453738536232493
0.206000000000000044,24.117328341904581634
0.207000000000000045,22.804718546198650131
0.208000000000000046,21.510212023480839605
0.209000000000000047,20.234348670990328856
0.210000000000000048,18.977613293703630148
0.211000000000000049,17.740430610336112238
0.212000000000000050,16.523162342197537100
0.213000000000000050,15.326106131740079519
0.214000000000000051,14.149496034182211801
0.215000000000000052,12.993504329524764529
0.216000000000000053,11.858244412012105329
0.217000000000000054,10.743774528223422493
0.218000000000000055,9.650102152272065581
0.219000000000000056,8.577188805985397124
0.220000000000000057,7.524955152529304137
0.221000000000000058,6.493286212999485940
0.222000000000000058,5.482036576406161821
0.223000000000000059,4.491035493769986786
0.224000000000000060,3.520091766347069662
0.225000000000000061,2.568998356049418508
0.226000000000000062,1.637536662737549831
0.227000000000000063,0.725480428120542364
0.228000000000000064,-0.167400760547325334
0.229000000000000065,-1.041338381946953051
0.230000000000000066,-1.896562312067164413
0.231000000000000066,-2.733298571453758541
0.232000000000000067,-3.551767477024702746
0.233000000000000068,-4.352182181192193688
0.234000000000000069,-5.134747576316489592
0.235000000000000070,-5.899659538921476987
0.236000000000000071,-6.647104485509659710
0.237000000000000072,-7.377259210112638854
0.238000000000000073,-8.090290972784860202
0.239000000000000073,-8.786357807987863922
0.240000000000000074,-9.465609022120645477
0.241000000000000075,-10.128185850227627185
0.242000000000000076,-10.774222243078003913
0.243000000000000077,-11.403845757277229822
0.244000000000000078,-12.017178522771088112
0.245000000000000079,-12.614338263973248644
0.246000000000000080,-13.195439352730668148
0.247000000000000081,-13.760593873391892217
0.248000000000000081,-14.309912682315891530
0.249000000000000082,-14.843506446220393613
0.250000000000000111,-15.361486645789611316
0.251000000000000112,-15.863966532914767882
0.252000000000000113,-16.351062031812624298
0.253000000000000114,-16.822892576034568890
0.254000000000000115,-17.279581875040413763
0.255000000000000115,-17.721258605549493836
0.256000000000000116,-18.148057024299355078
0.257000000000000117,-18.560117500132982116
0.258000000000000118,-18.957586964499689941
0.259000000000000119,-19.340619280495449317
0.260000000000000120,-19.709375531487907551
0.261000000000000121,-20.064024231171941892
0.262000000000000122,-20.404741457593384979
0.263000000000000123,-20.731710914261334722
0.264000000000000123,-21.045123921955884327
0.265000000000000124,-21.345179345229542633
0.266000000000000125,-21.632083457908667157
0.267000000000000126,-21.906049752129113983
0.268000000000000127,-22.167298695598951497
0.269000000000000128,-22.416057441873338263
0.270000000000000129,-22.652559498463027410
0.271000000000000130,-22.877044357582878575
0.272000000000000131,-23.089757094286333938
0.273000000000000131,-23.290947936633966009
0.274000000000000132,-23.480871812410995858
0.275000000000000133,-23.659787876749906133
0.276000000000000134,-23.827959024830356327
0.277000000000000135,-23.985651393626056915
0.278000000000000136,-24.133133856452538168
0.279000000000000137,-24.270677513840762884
0.280000000000000138,-24.398555184026491816
0.281000000000000139,-24.517040896104948189
0.282000000000000139,-24.626409388657769739
0.283000000000000140,-24.726935616417485164
0.284000000000000141,-24.818894267294876244
0.285000000000000142,-24.902559291859290624
0.286000000000000143,-24.978203447132280246
0.287000000000000144,-25.046097856331670073
0.288000000000000145,-25.106511585989476742
0.289000000000000146,-25.159711241660218661
0.290000000000000147,-25.205960583240941020
0.291000000000000147,-25.245520160737878967
0.292000000000000148,-25.278646971139618671
0.293000000000000149,-25.305594136891720325
0.294000000000000150,-25.326610606314329033
0.295000000000000151,-25.341940876161551444
0.296000000000000152,-25.351824736389399817
0.297000000000000153,-25.356497037078078449
0.298000000000000154,-25.356187477343851810
0.299000000000000155,-25.351120415975053390
0.300000000000000155,-25.341514703436850198
0.301000000000000156,-25.327583534807768473
0.302000000000000157,-25.309534323140063350
0.303000000000000158,-25.287568592672290180
0.304000000000000159,-25.261881891268398448
0.305000000000000160,-25.232663721410236946
0.306000000000000161,-25.200097489031598741
0.307000000000000162,-25.164360469449171376
0.308000000000000163,-25.125623789619783821
0.309000000000000163,-25.084052425933723640
0.310000000000000164,-25.039805216739495108
0.311000000000000165,-24.993034888786226588
0.312000000000000166,-24.943888096765874707
0.313000000000000167,-24.892505475137046034
0.314000000000000168,-24.839021701416392318
0.315000000000000169,-24.783565570130992484
0.316000000000000170,-24.726260076635959706
0.317000000000000171,-24.667222510014831016
0.318000000000000171,-24.606564554296557645
0.319000000000000172,-24.544392397241288961
0.320000000000000173,-24.480806845967244101
0.321000000000000174,-24.415903448712828805
0.322000000000000175,-24.349772622051613524
0.323000000000000176,-24.282499782902085883
0.324000000000000177,-24.214165484699599062
0.325000000000000178,-24.144845557123748137
0.326000000000000179,-24.074611248801630836
0.327000000000000179,-24.003529372433813904
0.328000000000000180,-23.931662451817427240
0.329000000000000181,-23.859068870268298923
0.330000000000000182,-23.785803019970572336
0.331000000000000183,-23.711915451810167355
0.332000000000000184,-23.637453025274510310
0.333000000000000185,-23.562459058027663161
0.334000000000000186,-23.486973474795881600
0.335000000000000187,-23.411032955223781471
0.336000000000000187,-23.334671080386467423
0.337000000000000188,-23.257918477666375878
0.338000000000000189,-23.180802963727899169
0.339000000000000190,-23.103349685344667819
0.340000000000000191,-23.025581257856579498
0.341000000000000192,-22.947517901055071832
0.342000000000000193,-22.869177572314558944
0.343000000000000194,-22.790576096808223383
0.344000000000000195,-22.711727294664264321
0.345000000000000195,-22.632643104936988721
0.346000000000000196,-22.553333706283332560
0.347000000000000197,-22.473807634252132459
0.348000000000000198,-22.394071895108154990
0.349000000000000199,-22.314132076127371818
0.350000000000000200,-22.233992452313739108
0.351000000000000201,-22.153656089500117332
0.352000000000000202,-22.073124943808274168
0.353000000000000203,-21.992399957453752535
0.354000000000000203,-21.911481150892438308
0.355000000000000204,-21.830367711314490720
0.356000000000000205,-21.749058077501256747
0.357000000000000206,-21.667550021068688437
0.358000000000000207,-21.585840724128303236
0.359000000000000208,-21.503926853404323083
0.360000000000000209,-21.421804630851731588
0.361000000000000210,-21.339469900825967841
0.362000000000000210,-21.256918193860368405
0.363000000000000211,-21.174144787112144428
0.364000000000000212,-21.091144761542420127
0.365000000000000213,-21.007913055898946197
0.366000000000000214,-20.924444517574272595
0.367000000000000215,-20.840733950414527698
0.368000000000000216,-20.756776159556917349
0.369000000000000217,-20.672565993375826565
0.370000000000000218,-20.588098382619552495
0.371000000000000218,-20.503368376820898078
0.372000000000000219,-20.418371178066145433
0.373000000000000220,-20.333102172207695446
0.374000000000000221,-20.247556957606295924
0.375000000000000222,-20.161731371488798459
0.376000000000000223,-20.075621514008069823
0.377000000000000224,-19.989223770090653431
0.378000000000000225,-19.902534829158291529
0.379000000000000226,-19.815551702808004819
0.380000000000000226,-19.728271740535610945
0.381000000000000227,-19.640692643585598631
0.382000000000000228,-19.552812477010384384
0.383000000000000229,-19.464629680019811531
0.384000000000000230,-19.376143074700980407
0.385000000000000231,-19.287351873187169815
0.386000000000000232,-19.198255683352687839
0.387000000000000233,-19.108854513109328366
0.388000000000000234,-19.019148773378184103
0.389000000000000234,-18.929139279809131580
0.390000000000000235,-18.838827253318065402
0.391000000000000236,-18.748214319510815073
0.392000000000000237,-18.657302507060009589
0.393000000000000238,-18.566094245100117632
0.394000000000000239,-18.474592359703216005
0.395000000000000240,-18.382800069496660456
0.396000000000000241,-18.290720980481626867
0.397000000000000242,-18.198359080109511865
0.398000000000000242,-18.105718730671558347
0.399000000000000243,-18.012804662054563209
0.400000000000000244,-17.919621963914266871
0.401000000000000245,-17.826176077315572854
0.402000000000000246,-17.732472785887061661
0.403000000000000247,-17.638518206535337640
0.404000000000000248,-17.544318779763067084
0.405000000000000249,-17.449881259632363140
0.406000000000000250,-17.355212703413673836
0.407000000000000250,-17.260320460958539002
0.408000000000000251,-17.165212163832613612
0.409000000000000252,-17.069895714243962459
0.410000000000000253,-16.974379273799684142
0.411000000000000254,-16.878671252122479984
0.412000000000000255,-16.782780295357067502
0.413000000000000256,-16.686715274595005809
0.414000000000000257,-16.590485274244503699
0.415000000000000258,-16.494099580370978231
0.416000000000000258,-16.397567669032152793
0.417000000000000259,-16.300899194630311229
0.418000000000000260,-16.204103978303052713
0.419000000000000261,-16.107191996372403509
0.420000000000000262,-16.010173368871033261
0.421000000000000263,-15.913058348163087174
0.422000000000000264,-15.815857307675795340
0.423000000000000265,-15.718580730757102160
0.424000000000000266,-15.621239199673505382
0.425000000000000266,-15.523843384760841246
0.426000000000000267,-15.426404033740226396
0.427000000000000268,-15.328931961210127355
0.428000000000000269,-15.231438038324574435
0.429000000000000270,-15.133933182666847728
0.430000000000000271,-15.036428348326769111
0.431000000000000272,-14.938934516189348756
0.432000000000000273,-14.841462684441259157
0.433000000000000274,-14.744023859301330859
0.434000000000000274,-14.646629045980130712
0.435000000000000275,-14.549289239873351320
0.436000000000000276,-14.452015417992885915
0.437000000000000277,-14.354818530638738139
0.438000000000000278,-14.257709493314791871
0.439000000000000279,-14.160699178890325811
0.440000000000000280,-14.063798410009031414
0.441000000000000281,-13.967017951746631965
0.442000000000000282,-13.870368504517852415
0.443000000000000282,-13.773860697232771955
0.444000000000000283,-13.677505080702591300
0.445000000000000284,-13.581312121294072170
0.446000000000000285,-13.485292194831620449
0.447000000000000286,-13.389455580746027152
0.448000000000000287,-13.293812456467781757
0.449000000000000288,-13.198372892063432005
0.450000000000000289,-13.103146845112529917
0.451000000000000290,-13.008144155822737531
0.452000000000000290,-12.913374542380475773
0.453000000000000291,-12.818847596534018507
0.454000000000000292,-12.724572779406047474
0.455000000000000293,-12.630559417532129629
0.456000000000000294,-12.536816699121857255
0.457000000000000295,-12.443353670538769506
0.458000000000000296,-12.350179232995328604
0.459000000000000297,-12.257302139459095969
0.460000000000000298,-12.164730991765837942
0.461000000000000298,-12.072474237935690411
0.462000000000000299,-11.980540169687925456
0.463000000000000300,-11.888936920150017684
0.464000000000000301,-11.797672461756755879
0.465000000000000302,-11.706754604334857817
0.466000000000000303,-11.616190993368567419
0.467000000000000304,-11.525989108441759612
0.468000000000000305,-11.436156261852037375
0.469000000000000306,-11.346699597392101211
0.470000000000000306,-11.257626089294024752
0.471000000000000307,-11.168942541331556839
0.472000000000000308,-11.080655586076193941
0.473000000000000309,-10.992771684302123703
0.474000000000000310,-10.905297124535726638
0.475000000000000311,-10.818238022744866456
0.476000000000000312,-10.731600322163801664
0.477000000000000313,-10.645389793248744681
0.478000000000000314,-10.559612033760057415
0.479000000000000314,-10.474272468966493221
0.480000000000000315,-10.389376351967055001
0.481000000000000316,-10.304928764126376706
0.482000000000000317,-10.220934615619107433
0.483000000000000318,-10.137398646079319064
0.484000000000000319,-10.054325425350626233
0.485000000000000320,-9.971719354333069774
0.486000000000000321,-9.889584665922654949
0.487000000000000322,-9.807925426039631134
0.488000000000000322,-9.726745534741514376
0.489000000000000323,-9.646048727417305457
0.490000000000000324,-9.565838576058826703
0.491000000000000325,-9.486118490605770504
0.492000000000000326,-9.406891720360626152
0.493000000000000327,-9.328161355470221849
0.494000000000000328,-9.249930328470149732
0.495000000000000329,-9.172201415888952880
0.496000000000000330,-9.094977239908555333
0.497000000000000330,-9.018260270077909979
0.498000000000000331,-8.942052825076512335
0.499000000000000332,-8.866357074524941595
0.500000000000000333,-8.791175040839233290
0.501000000000000334,-8.716508601126278677
0.502000000000000335,-8.642359489117371396
0.503000000000000336,-8.568729297137197776
0.504000000000000337,-8.495619478105506772
0.505000000000000338,-8.423031347568874949
0.506000000000000338,-8.350966085760109792
0.507000000000000339,-8.279424739682669454
0.508000000000000340,-8.208408225217873166
0.509000000000000341,-8.137917329252534415
0.510000000000000342,-8.067952711824714740
0.511000000000000343,-7.998514908285530467
0.512000000000000344,-7.929604331474820356
0.513000000000000345,-7.861221273908702400
0.514000000000000346,-7.793365909977086226
0.515000000000000346,-7.726038298149140005
0.516000000000000347,-7.659238383184971966
0.517000000000000348,-7.592965998351822066
0.518000000000000349,-7.527220867642841817
0.519000000000000350,-7.462002607997118453
0.520000000000000351,-7.397310731519152860
0.521000000000000352,-7.333144647696381746
0.522000000000000353,-7.269503665613308740
0.523000000000000353,-7.206386996160686564
0.524000000000000354,-7.143793754238750182
0.525000000000000355,-7.081722960952816948
0.526000000000000356,-7.020173545800322934
0.527000000000000357,-6.959144348848084860
0.528000000000000358,-6.898634122898451793
0.529000000000000359,-6.838641535643644076
0.530000000000000360,-6.779165171806900148
0.531000000000000361,-6.720203535269744677
0.532000000000000361,-6.661755051184258036
0.533000000000000362,-6.603818068069612579
0.534000000000000363,-6.546390859891994651
0.535000000000000364,-6.489471628127075675
0.536000000000000365,-6.433058503804400807
0.537000000000000366,-6.377149549532932227
0.538000000000000367,-6.321742761507020525
0.539000000000000368,-6.266836071492400073
0.540000000000000369,-6.212427348791328185
0.541000000000000369,-6.158514402186611392
0.542000000000000370,-6.105094981863818049
0.543000000000000371,-6.052166781311262511
0.544000000000000372,-5.999727439197381607
0.545000000000000373,-5.947774541225004263
0.546000000000000374,-5.896305621962182997
0.547000000000000375,-5.845318166649233760
0.548000000000000376,-5.794809612981735469
0.549000000000000377,-5.744777352869092191
0.550000000000000377,-5.695218734168468799
0.551000000000000378,-5.646131062393866529
0.552000000000000379,-5.597511602400140340
0.553000000000000380,-5.549357580041744953
0.554000000000000381,-5.501666183806070087
0.555000000000000382,-5.454434566421304531
0.556000000000000383,-5.407659846438551909
0.557000000000000384,-5.361339109788301194
0.558000000000000385,-5.315469411311069869
0.559000000000000385,-5.270047776262188677
0.560000000000000386,-5.225071201790733255
0.561000000000000387,-5.180536658392581373
0.562000000000000388,-5.136441091337566434
0.563000000000000389,-5.092781422070825847
0.564000000000000390,-5.049554549588300745
0.565000000000000391,-5.006757351786531807
0.566000000000000392,-4.964386686786737890
0.567000000000000393,-4.922439394233354193
0.568000000000000393,-4.880912296567032627
0.569000000000000394,-4.839802200272277588
0.570000000000000395,-4.799105897099879670
0.571000000000000396,-4.758820165264138424
0.572000000000000397,-4.718941770615227682
0.573000000000000398,-4.679467467786651902
0.574000000000000399,-4.640394001318146167
0.575000000000000400,-4.601718106754050908
0.576000000000000401,-4.563436511717428701
0.577000000000000401,-4.525545936960137183
0.578000000000000402,-4.488043097388970004
0.579000000000000403,-4.450924703068142030
0.580000000000000404,-4.414187460198371937
0.581000000000000405,-4.377828072072681209
0.582000000000000406,-4.341843240009231053
0.583000000000000407,-4.306229664261389090
0.584000000000000408,-4.270984044905293153
0.585000000000000409,-4.236103082705128031
0.586000000000000409,-4.201583479956394029
0.587000000000000410,-4.167421941307418720
0.588000000000000411,-4.133615174559351679
0.589000000000000412,-4.100159891444939753
0.590000000000000413,-4.067052808386297791
0.591000000000000414,-4.034290647231995486
0.592000000000000415,-4.001870135973738307
0.593000000000000416,-3.969788009442829058
0.594000000000000417,-3.938041009986773311
0.595000000000000417,-3.906625888126345814
0.596000000000000418,-3.875539403193200449
0.597000000000000419,-3.844778323948580656
0.598000000000000420,-3.814339429183149832
0.599000000000000421,-3.784219508298433343
0.600000000000000422,-3.754415361870000911
0.601000000000000423,-3.724923802192783739
0.602000000000000424,-3.695741653808746641
0.603000000000000425,-3.666865754017206491
0.604000000000000425,-3.638292953368118532
0.605000000000000426,-3.610020116138554780
0.606000000000000427,-3.582044120792759578
0.607000000000000428,-3.554361860425861774
