# tri-graphene_ACYLSYRINGYL-AC
# h[nm],U(h)[kJ/mol]
0.149999999999999994,137.530657831175602723
0.150999999999999995,132.917896449060265240
0.151999999999999996,129.717713548565455994
0.152999999999999997,126.853293307793165923
0.153999999999999998,123.917108000341656293
0.154999999999999999,120.824340228244366813
0.156000000000000000,117.622035168714234032
0.157000000000000001,114.391359574747980332
0.158000000000000002,111.203423065906804368
0.159000000000000002,108.104254869230913982
0.160000000000000003,105.114314674362049118
0.161000000000000004,102.234129470650245253
0.162000000000000005,99.451504496195170191
0.163000000000000006,96.748079228009288499
0.164000000000000007,94.104341553249469143
0.165000000000000008,91.502942056485579769
0.166000000000000009,88.930506390512533699
0.167000000000000010,86.378282151948866385
0.168000000000000010,83.841975582785408960
0.169000000000000011,81.321093027485531479
0.170000000000000012,78.818038077307392086
0.171000000000000013,76.337147718281059383
0.172000000000000014,73.883789775843951020
0.173000000000000015,71.463593834431648588
0.174000000000000016,69.081849540948638833
0.175000000000000017,66.743078921028228478
0.176000000000000018,64.450771372255118763
0.177000000000000018,62.207259430544866063
0.178000000000000019,60.013708388291647111
0.179000000000000020,57.870191757318181658
0.180000000000000021,55.775826084525434112
0.181000000000000022,53.728941701776136597
0.182000000000000023,51.727269846084709570
0.183000000000000024,49.768130668360043956
0.184000000000000025,47.848610587633814362
0.185000000000000026,45.965721013516009918
0.186000000000000026,44.116533529207586639
0.187000000000000027,42.298289153578195965
0.188000000000000028,40.508481288429337042
0.189000000000000029,38.744913444263374913
0.190000000000000030,37.005733881994586909
0.191000000000000031,35.289449975342535026
0.192000000000000032,33.594925457195230933
0.193000000000000033,31.921363828131056550
0.194000000000000034,30.268281135830704898
0.195000000000000034,28.635471132189717736
0.196000000000000035,27.022965524506940227
0.197000000000000036,25.430991694228271882
0.198000000000000037,23.859929890025238564
0.199000000000000038,22.310271533483746254
0.200000000000000039,20.782579921570942361
0.201000000000000040,19.277454281621981380
0.202000000000000041,17.795497839089946979
0.203000000000000042,16.337290299730909737
0.204000000000000042,14.903364927719215061
0.205000000000000043,13.494190218977996309
0.206000000000000044,12.110156022949974286
0.207000000000000045,10.751563853383402147
0.208000000000000046,9.418621046131800512
0.209000000000000047,8.111438365831462605
0.210000000000000048,6.830030629905412987
0.211000000000000049,5.574319903998000925
0.212000000000000050,4.344140824203431173
0.213000000000000050,3.139247615122744861
0.214000000000000051,1.959322395968889241
0.215000000000000052,0.803984397091105030
0.216000000000000053,-0.327200255811965934
0.217000000000000054,-1.434708494759521669
0.218000000000000055,-2.519050265751020756
0.219000000000000056,-3.580758715067184905
0.220000000000000057,-4.620380794388511347
0.221000000000000058,-5.638468437218035589
0.222000000000000058,-6.635570425169163400
0.223000000000000059,-7.612225031499207262
0.224000000000000060,-8.568953501097622549
0.225000000000000061,-9.506254401092146367
0.226000000000000062,-10.424598854341587284
0.227000000000000063,-11.324426649285204149
0.228000000000000064,-12.206143203792633400
0.229000000000000065,-13.070117347646496242
0.230000000000000066,-13.916679877883860073
0.231000000000000066,-14.746122833214064585
0.232000000000000067,-15.558699427877044741
0.233000000000000068,-16.354624581379905379
0.234000000000000069,-17.134075978311930299
0.235000000000000070,-17.897195591663667358
0.236000000000000071,-18.644091603547188640
0.237000000000000072,-19.374840658730288823
0.238000000000000073,-20.089490388766201079
0.239000000000000073,-20.788062147549716485
0.240000000000000074,-21.470553902709998084
0.241000000000000075,-22.136943231211272831
0.242000000000000076,-22.787190371759507457
0.243000000000000077,-23.421241290996544393
0.244000000000000078,-24.039030724907970438
0.245000000000000079,-24.640485161303175232
0.246000000000000080,-25.225525733574858833
0.247000000000000081,-25.794071000163064866
0.248000000000000081,-26.346039588186179969
0.249000000000000082,-26.881352683528803027
0.250000000000000111,-27.399936353268742550
0.251000000000000112,-27.901723689662411232
0.252000000000000113,-28.386656767983605931
0.253000000000000114,-28.854688413311635031
0.254000000000000115,-29.305783773901374900
0.255000000000000115,-29.739921701031580170
0.256000000000000116,-30.157095937235219196
0.257000000000000117,-30.557316116569531061
0.258000000000000118,-30.940608582097411272
0.259000000000000119,-31.307017027039393042
0.260000000000000120,-31.656602967129572335
0.261000000000000121,-31.989446052583684121
0.262000000000000122,-32.305644228780138860
0.263000000000000123,-32.605313755278665155
0.264000000000000123,-32.888589093172654998
0.265000000000000124,-33.155622671004607582
0.266000000000000125,-33.406584539584727622
0.267000000000000126,-33.641661926052471188
0.268000000000000127,-33.861058697427601771
0.269000000000000128,-34.064994743716724201
0.270000000000000129,-34.253705290392623795
0.271000000000000130,-34.427440149752762011
0.272000000000000131,-34.586462920302473378
0.273000000000000131,-34.731050142906681799
0.274000000000000132,-34.861490422020061430
0.275000000000000133,-34.978083519847317007
0.276000000000000134,-35.081139430809528790
0.277000000000000135,-35.170977443204982649
0.278000000000000136,-35.247925194461593890
0.279000000000000137,-35.312317725884177833
0.280000000000000138,-35.364496542311165683
0.281000000000000139,-35.404808681613488375
0.282000000000000139,-35.433605798497538331
0.283000000000000140,-35.451243266616558003
0.284000000000000141,-35.458079302552675927
0.285000000000000142,-35.454474114807680962
0.286000000000000143,-35.440789080534905509
0.287000000000000144,-35.417385952358699797
0.288000000000000145,-35.384626097264288092
0.289000000000000146,-35.342869769195679908
0.290000000000000147,-35.292475416679067735
0.291000000000000147,-35.233799026487851336
0.292000000000000148,-35.167193504087258304
0.293000000000000149,-35.093008091338830923
0.294000000000000150,-35.011587821708609169
0.295000000000000151,-34.923273013006493670
0.296000000000000152,-34.828398797487281513
0.297000000000000153,-34.727294688966985348
0.298000000000000154,-34.620284186447513264
0.299000000000000155,-34.507684413601495521
0.300000000000000155,-34.389805793343086293
0.301000000000000156,-34.266951756600398937
0.302000000000000157,-34.139418484310681379
0.303000000000000158,-34.007494681577043139
0.304000000000000159,-33.871461382858306877
0.305000000000000160,-33.731591787006024674
0.306000000000000161,-33.588151120918787740
0.307000000000000162,-33.441396530548452404
0.308000000000000163,-33.291576997968093110
0.309000000000000163,-33.138933283195072477
0.310000000000000164,-32.983697889454354879
0.311000000000000165,-32.826095050565548661
0.312000000000000166,-32.666340739143286953
0.313000000000000167,-32.504642694311328910
0.314000000000000168,-32.341200467647411187
0.315000000000000169,-32.176205486097238406
0.316000000000000170,-32.009841130621296656
0.317000000000000171,-31.842282829366787666
0.318000000000000171,-31.673698164189278970
0.319000000000000172,-31.504246989382995281
0.320000000000000173,-31.334081561515660042
0.321000000000000174,-31.163346679302101450
0.322000000000000175,-30.992179832491007829
0.323000000000000176,-30.820711358780318534
0.324000000000000177,-30.649064607818786499
0.325000000000000178,-30.477356111393014260
0.326000000000000179,-30.305695758943052454
0.327000000000000179,-30.134186977591376433
0.328000000000000180,-29.962926915912937886
0.329000000000000181,-29.792006630716791449
0.330000000000000182,-29.621511276150300773
0.331000000000000183,-29.451520294479081485
0.332000000000000184,-29.282107607935607518
0.333000000000000185,-29.113341811068625731
0.334000000000000186,-28.945286363064290924
0.335000000000000187,-28.777999779546938441
0.336000000000000187,-28.611535823403794865
0.337000000000000188,-28.445943694212672881
0.338000000000000189,-28.281268215885649653
0.339000000000000190,-28.117550022174402358
0.340000000000000191,-27.954825739713264454
0.341000000000000192,-27.793128168307315917
0.342000000000000193,-27.632486458199849721
0.343000000000000194,-27.472926284082269888
0.344000000000000195,-27.314470015634242372
0.345000000000000195,-27.157136884407616861
0.346000000000000196,-27.000943146890051594
0.347000000000000197,-26.845902243607234539
0.348000000000000198,-26.692024954142972604
0.349000000000000199,-26.539319547976106151
0.350000000000000200,-26.387791931052067440
0.351000000000000201,-26.237445788023716631
0.352000000000000202,-26.088282720112694335
0.353000000000000203,-25.940302378557465346
0.354000000000000203,-25.793502593628403474
0.355000000000000204,-25.647879499203192211
0.356000000000000205,-25.503427652908101209
0.357000000000000206,-25.360140151841804368
0.358000000000000207,-25.218008743908463032
0.359000000000000208,-25.077023934796546456
0.360000000000000209,-24.937175090648324272
0.361000000000000210,-24.798450536472646633
0.362000000000000210,-24.660837650360775797
0.363000000000000211,-24.524322953571623174
0.364000000000000212,-24.388892196558096259
0.365000000000000213,-24.254530441011610264
0.366000000000000214,-24.121222138006043423
0.367000000000000215,-23.988951202326607159
0.368000000000000216,-23.857701083072271331
0.369000000000000217,-23.727454830623376125
0.370000000000000218,-23.598195160068378584
0.371000000000000218,-23.469904511185827545
0.372000000000000219,-23.342565105079017940
0.373000000000000220,-23.216158997562281741
0.374000000000000221,-23.090668129398313368
0.375000000000000222,-22.966074373486833338
0.376000000000000223,-22.842359579104858369
0.377000000000000224,-22.719505613298878188
0.378000000000000225,-22.597494399528937237
0.379000000000000226,-22.476307953663880568
0.380000000000000226,-22.355928417426749633
0.381000000000000227,-22.236338089387523098
0.382000000000000228,-22.117519453600170465
0.383000000000000229,-21.999455205978975414
0.384000000000000230,-21.882128278507952501
0.385000000000000231,-21.765521861375731305
0.386000000000000232,-21.649619423126171824
0.387000000000000233,-21.534404728913600024
0.388000000000000234,-21.419861856949381718
0.389000000000000234,-21.305975213224993325
0.390000000000000235,-21.192729544593998270
0.391000000000000236,-21.080109950294257715
0.392000000000000237,-20.968101891988613517
0.393000000000000238,-20.856691202400902796
0.394000000000000239,-20.745864092621395969
0.395000000000000240,-20.635607158154041230
0.396000000000000241,-20.525907383775358284
0.397000000000000242,-20.416752147272600126
0.398000000000000242,-20.308129222127014657
0.399000000000000243,-20.200026779205206395
0.400000000000000244,-20.092433387519882615
0.401000000000000245,-19.985338014118948280
0.402000000000000246,-19.878730023159690177
0.403000000000000247,-19.772599174222634133
0.404000000000000248,-19.666935619917836675
0.405000000000000249,-19.561729902833924655
0.406000000000000250,-19.456972951878391598
0.407000000000000250,-19.352656078055602507
0.408000000000000251,-19.248770969726923141
0.409000000000000252,-19.145309687395769771
0.410000000000000253,-19.042264658057867166
0.411000000000000254,-18.939628669155968765
0.412000000000000255,-18.837394862175791843
0.413000000000000256,-18.735556725918733889
0.414000000000000257,-18.634108089484698212
0.415000000000000258,-18.533043114997290957
0.416000000000000258,-18.432356290101488128
0.417000000000000259,-18.332042420262684601
0.418000000000000260,-18.232096620894512995
0.419000000000000261,-18.132514309340983516
0.420000000000000262,-18.033291196737632589
0.421000000000000263,-17.934423279774637905
0.422000000000000264,-17.835906832383436438
0.423000000000000265,-17.737738397367586174
0.424000000000000266,-17.639914777996942519
0.425000000000000266,-17.542433029583143878
0.426000000000000267,-17.445290451053367065
0.427000000000000268,-17.348484576538179880
0.428000000000000269,-17.252013166988170667
0.429000000000000270,-17.155874201833135828
0.430000000000000271,-17.060065870696586643
0.431000000000000272,-16.964586565177484090
0.432000000000000273,-16.869434870709977048
0.433000000000000274,-16.774609558511542673
0.434000000000000274,-16.680109577628499551
0.435000000000000275,-16.585934047087697252
0.436000000000000276,-16.492082248162027724
0.437000000000000277,-16.398553616756739615
0.438000000000000278,-16.305347735923280794
0.439000000000000279,-16.212464328506076328
0.440000000000000280,-16.119903249927613587
0.441000000000000281,-16.027664481116406847
0.442000000000000282,-15.935748121581875481
0.443000000000000282,-15.844154382639541012
0.444000000000000283,-15.752883580789818652
0.445000000000000284,-15.661936131252733873
0.446000000000000285,-15.571312541660834228
0.447000000000000286,-15.481013405912099401
0.448000000000000287,-15.391039398183902875
0.449000000000000288,-15.301391267109380578
0.450000000000000289,-15.212069830116487168
0.451000000000000290,-15.123075967930310171
0.452000000000000290,-15.034410619238503415
0.453000000000000291,-14.946074775519630151
0.454000000000000292,-14.858069476033872292
0.455000000000000293,-14.770395802975304633
0.456000000000000294,-14.683054876784799703
0.457000000000000295,-14.596047851622262925
0.458000000000000296,-14.509375910996828551
0.459000000000000297,-14.423040263553497553
0.460000000000000298,-14.337042139014286590
0.461000000000000298,-14.251382784272205839
0.462000000000000299,-14.166063459635878985
0.463000000000000300,-14.081085435222629343
0.464000000000000301,-13.996449987497845413
0.465000000000000302,-13.912158395958197588
0.466000000000000303,-13.828211939956171150
0.467000000000000304,-13.744611895663444656
0.468000000000000305,-13.661359533170440272
0.469000000000000306,-13.578456113719315823
0.470000000000000306,-13.495902887067760645
0.471000000000000307,-13.413701088980621634
0.472000000000000308,-13.331851938846714489
0.473000000000000309,-13.250356637417826988
0.474000000000000310,-13.169216364667008179
0.475000000000000311,-13.088432277763326184
0.476000000000000312,-13.008005509160133428
0.477000000000000313,-12.927937164793846136
0.478000000000000314,-12.848228322390301770
0.479000000000000314,-12.768880029875955273
0.480000000000000315,-12.689893303890643850
0.481000000000000316,-12.611269128399364092
0.482000000000000317,-12.533008453399904880
0.483000000000000318,-12.455112193723548941
0.484000000000000319,-12.377581227926018670
0.485000000000000320,-12.300416397265797386
0.486000000000000321,-12.223618504767006954
0.487000000000000322,-12.147188314364118611
0.488000000000000322,-12.071126550125660160
0.489000000000000323,-11.995433895554374004
0.490000000000000324,-11.920110992961037155
0.491000000000000325,-11.845158442909349716
0.492000000000000326,-11.770576803729309034
0.493000000000000327,-11.696366591096554188
0.494000000000000328,-11.622528277675158392
0.495000000000000329,-11.549062292821416165
0.496000000000000330,-11.475969022346253823
0.497000000000000330,-11.403248808333854569
0.498000000000000331,-11.330901949014204888
0.499000000000000332,-11.258928698687372005
0.500000000000000333,-11.187329267697183610
0.501000000000000334,-11.116103822452220840
0.502000000000000335,-11.045252485491969807
0.503000000000000336,-10.974775335596154591
0.504000000000000337,-10.904672407935118272
0.505000000000000338,-10.834943694259361990
0.506000000000000338,-10.765589143126337746
0.507000000000000339,-10.696608660162558735
0.508000000000000340,-10.628002108359273947
0.509000000000000341,-10.559769308399996390
0.510000000000000342,-10.491910039017998457
0.511000000000000343,-10.424424037382280517
0.512000000000000344,-10.357310999510286109
0.513000000000000345,-10.290570580705818315
0.514000000000000346,-10.224202396020723782
0.515000000000000346,-10.158206020738676401
0.516000000000000347,-10.092580990879778113
0.517000000000000348,-10.027326803724635695
0.518000000000000349,-9.962442918356295252
0.519000000000000350,-9.897928756219126711
0.520000000000000351,-9.833783701693072032
0.521000000000000352,-9.770007102682233935
0.522000000000000353,-9.706598271216583029
0.523000000000000353,-9.643556484065562984
0.524000000000000354,-9.580880983362742853
0.525000000000000355,-9.518570977240170095
0.526000000000000356,-9.456625640471623129
0.527000000000000357,-9.395044115123765138
0.528000000000000358,-9.333825511214122628
0.529000000000000359,-9.272968907375197745
0.530000000000000360,-9.212473351523675191
0.531000000000000361,-9.152337861534009633
0.532000000000000361,-9.092561425915512530
0.533000000000000362,-9.033143004492254491
0.534000000000000363,-8.974081529085022879
0.535000000000000364,-8.915375904194585033
0.536000000000000365,-8.857025007685676243
0.537000000000000366,-8.799027691471051682
0.538000000000000367,-8.741382782194886403
0.539000000000000368,-8.684089081915178809
0.540000000000000369,-8.627145368784322699
0.541000000000000369,-8.570550397727538794
0.542000000000000370,-8.514302901118577793
0.543000000000000371,-8.458401589452186897
0.544000000000000372,-8.402845152012993424
0.545000000000000373,-8.347632257540290368
0.546000000000000374,-8.292761554888326003
0.547000000000000375,-8.238231673681749356
0.548000000000000376,-8.184041224965877603
0.549000000000000377,-8.130188801851401692
0.550000000000000377,-8.076672980153153603
0.551000000000000378,-8.023492319022778929
0.552000000000000379,-7.970645361574947962
0.553000000000000380,-7.918130635506844150
0.554000000000000381,-7.865946653710653713
0.555000000000000382,-7.814091914879012002
0.556000000000000383,-7.762564904102863927
0.557000000000000384,-7.711364093461928526
0.558000000000000385,-7.660487942607265843
0.559000000000000385,-7.609934899335994096
0.560000000000000386,-7.559703400157881781
0.561000000000000387,-7.509791870853767648
0.562000000000000388,-7.460198727025610488
0.563000000000000389,-7.410922374638110099
0.564000000000000390,-7.361961210551773327
0.565000000000000391,-7.313313623047361212
0.566000000000000392,-7.264977992341616009
0.567000000000000393,-7.216952691094237871
0.568000000000000393,-7.169236084906001949
0.569000000000000394,-7.121826532808017696
0.570000000000000395,-7.074722387742136576
0.571000000000000396,-7.027921997032308354
0.572000000000000397,-6.981423702847126656
0.573000000000000398,-6.935225842653309769
0.574000000000000399,-6.889326749660298788
0.575000000000000400,-6.843724753255824744
0.576000000000000401,-6.798418179432593078
0.577000000000000401,-6.753405351206072105
0.578000000000000402,-6.708684589023282463
0.579000000000000403,-6.664254211162825570
0.580000000000000404,-6.620112534126060488
0.581000000000000405,-6.576257873019480726
0.582000000000000406,-6.532688541928385106
0.583000000000000407,-6.489402854281850708
0.584000000000000408,-6.446399123209118898
0.585000000000000409,-6.403675661887396231
0.586000000000000409,-6.361230783881181239
0.587000000000000410,-6.319062803473182832
0.588000000000000411,-6.277170035986872065
0.589000000000000412,-6.235550798100815584
0.590000000000000413,-6.194203408154765000
0.591000000000000414,-6.153126186447689605
0.592000000000000415,-6.112317455527811028
0.593000000000000416,-6.071775540474659394
0.594000000000000417,-6.031498769173333940
0.595000000000000417,-5.991485472581073779
0.596000000000000418,-5.951733984986057990
0.597000000000000419,-5.912242644258823177
0.598000000000000420,-5.873009792096111958
0.599000000000000421,-5.834033774257442850
0.600000000000000422,-5.795312940794413947
0.601000000000000423,-5.756845646272895856
0.602000000000000424,-5.718630249988158276
0.603000000000000425,-5.680665116173102547
0.604000000000000425,-5.642948614199649882
0.605000000000000426,-5.605479118773411429
0.606000000000000427,-5.568255010121836435
