# tri-graphene_FORMICACID-AC
# h[nm],U(h)[kJ/mol]
0.149999999999999994,86.494306690648087965
0.150999999999999995,84.100447732716745008
0.151999999999999996,82.289897915917819660
0.152999999999999997,80.598575857372722453
0.153999999999999998,78.878411767647634179
0.154999999999999999,77.117556482166989440
0.156000000000000000,75.348932569139023485
0.157000000000000001,73.608536500288579418
0.158000000000000002,71.920243225662929376
0.159000000000000002,70.293550230854833671
0.160000000000000003,68.726690928889652810
0.161000000000000004,67.211160961037776929
0.162000000000000005,65.735806789636939129
0.163000000000000006,64.289795212303332050
0.164000000000000007,62.864384997972351243
0.165000000000000008,61.453693422160917237
0.166000000000000009,60.054738263363560691
0.167000000000000010,58.667029406503345967
0.168000000000000010,57.291936233213881735
0.169000000000000011,55.931996874341415094
0.170000000000000012,54.590278309821584912
0.171000000000000013,53.269848917239791319
0.172000000000000014,51.973389303789950588
0.173000000000000015,50.702942516370633541
0.174000000000000016,49.459789288399484519
0.175000000000000017,48.244425780997381992
0.176000000000000018,47.056618317170759269
0.177000000000000018,45.895510171051299153
0.178000000000000019,44.759758182916804969
0.179000000000000020,43.647680786343279635
0.180000000000000021,42.557403218332673589
0.181000000000000022,41.486989745996879719
0.182000000000000023,40.434556386881112644
0.183000000000000024,39.398360670286749041
0.184000000000000025,38.376867431373540285
0.185000000000000026,37.368791463185516477
0.186000000000000026,36.373119130151266631
0.187000000000000027,35.389111848145958561
0.188000000000000028,34.416294747283899369
0.189000000000000029,33.454433939820901855
0.190000000000000030,32.503505695916842910
0.191000000000000031,31.563660553843288170
0.192000000000000032,30.635185016732627616
0.193000000000000033,29.718463062134475194
0.194000000000000034,28.813939249881315163
0.195000000000000034,27.922084784998141060
0.196000000000000035,27.043367494413320884
0.197000000000000036,26.178226321068791549
0.198000000000000037,25.327050633293545445
0.199000000000000038,24.490164393405315479
0.200000000000000039,23.667815026722859528
0.201000000000000040,22.860166677580384231
0.202000000000000041,22.067297428154372341
0.203000000000000042,21.289199983712205011
0.204000000000000042,20.525785288657242944
0.205000000000000043,19.776888525842515776
0.206000000000000044,19.042276961639451827
0.207000000000000045,18.321659126171073950
0.208000000000000046,17.614694857442749765
0.209000000000000047,16.921005785885565587
0.210000000000000048,16.240185888700459316
0.211000000000000049,15.571811798560698747
0.212000000000000050,14.915452606427725968
0.213000000000000050,14.270678951694517167
0.214000000000000051,13.637071243253249264
0.215000000000000052,13.014226901442436102
0.216000000000000053,12.401766552540404831
0.217000000000000054,11.799339144186957284
0.218000000000000055,11.206625981709880335
0.219000000000000056,10.623343711861000571
0.220000000000000057,10.049246302114669405
0.221000000000000058,9.484126080748049858
0.222000000000000058,8.927813915761060315
0.223000000000000059,8.380178619720577871
0.224000000000000060,7.841125673253491968
0.225000000000000061,7.310595362607598346
0.226000000000000062,6.788560426878923693
0.227000000000000063,6.275023308582439618
0.228000000000000064,5.770013097611476738
0.229000000000000065,5.273582253646846851
0.230000000000000066,4.785803186070374693
0.231000000000000066,4.306764763697083609
0.232000000000000067,3.836568819427220944
0.233000000000000068,3.375326707452352082
0.234000000000000069,2.923155963121586876
0.235000000000000070,2.480177108140645625
0.236000000000000071,2.046510636569250252
0.237000000000000072,1.622274210201671396
0.238000000000000073,1.207580085442740536
0.239000000000000073,0.802532787784347557
0.240000000000000074,0.407227044482577571
0.241000000000000075,0.021745981060807294
0.242000000000000076,-0.353840417174912492
0.243000000000000077,-0.719476581324936304
0.244000000000000078,-1.075122378884540986
0.245000000000000079,-1.420753886499740881
0.246000000000000080,-1.756363926848975243
0.247000000000000081,-2.081962382949005708
0.248000000000000081,-2.397576304701556360
0.249000000000000082,-2.703249823629998438
0.250000000000000111,-2.999043892537530454
0.251000000000000112,-3.285035867284541666
0.252000000000000113,-3.561318948070332446
0.253000000000000114,-3.828001497544003762
0.254000000000000115,-4.085206252798792903
0.255000000000000115,-4.333069447850006028
0.256000000000000116,-4.571739862592169246
0.257000000000000117,-4.801377813501465752
0.258000000000000118,-5.022154100520656250
0.259000000000000119,-5.234248923659147401
0.260000000000000120,-5.437850781881331308
0.261000000000000121,-5.633155365859538577
0.262000000000000122,-5.820364455152462924
0.263000000000000123,-5.999684829348171711
0.264000000000000123,-6.171327201697356379
0.265000000000000124,-6.335505182766587140
0.266000000000000125,-6.492434280673426983
0.267000000000000126,-6.642330943531794318
0.268000000000000127,-6.785411648844378085
0.269000000000000128,-6.921892043732330357
0.270000000000000129,-7.051986139096484862
0.271000000000000130,-7.175905560060039434
0.272000000000000131,-7.293858854352381016
0.273000000000000131,-7.406050859658408925
0.274000000000000132,-7.512682130376942879
0.275000000000000133,-7.613948423705894974
0.276000000000000134,-7.710040244498960860
0.277000000000000135,-7.801142447917717604
0.278000000000000136,-7.887433898532525411
0.279000000000000137,-7.969087184202736651
0.280000000000000138,-8.046268382789728335
0.281000000000000139,-8.119136879522512729
0.282000000000000139,-8.187845232642233739
0.283000000000000140,-8.252539084796429947
0.284000000000000141,-8.313357117533433538
0.285000000000000142,-8.370431046159264810
0.286000000000000143,-8.423885652160873150
0.287000000000000144,-8.473838850367807041
0.288000000000000145,-8.520401788017636591
0.289000000000000146,-8.563678972904435582
0.290000000000000147,-8.603768427824102005
0.291000000000000147,-8.640761868581023464
0.292000000000000148,-8.674744902886866171
0.293000000000000149,-8.705797247560800756
0.294000000000000150,-8.733992961530358201
0.295000000000000151,-8.759400692231032792
0.296000000000000152,-8.782083933108761897
0.297000000000000153,-8.802101290041870030
0.298000000000000154,-8.819506754615474620
0.299000000000000155,-8.834349982301301196
0.300000000000000155,-8.846676573717539682
0.301000000000000156,-8.856528357266263640
0.302000000000000157,-8.863943671568540239
0.303000000000000158,-8.868957646239268300
0.304000000000000159,-8.871602479664220553
0.305000000000000160,-8.871907712559407244
0.306000000000000161,-8.869900496208487084
0.307000000000000162,-8.865605854385632867
0.308000000000000163,-8.859046938079313094
0.309000000000000163,-8.850245272236822558
0.310000000000000164,-8.839220993849044916
0.311000000000000165,-8.825993080790013323
0.312000000000000166,-8.810579570916702963
0.313000000000000167,-8.792997771019930298
0.314000000000000168,-8.773264455298114939
0.315000000000000169,-8.751396053101633044
0.316000000000000170,-8.727408825766470812
0.317000000000000171,-8.701319032422015098
0.318000000000000171,-8.673143084719010076
0.319000000000000172,-8.642897690480618067
0.320000000000000173,-8.610599986331243016
0.321000000000000174,-8.576267659405345967
0.322000000000000175,-8.539919058281817854
0.323000000000000176,-8.501573293328323899
0.324000000000000177,-8.461250326675035183
0.325000000000000178,-8.418971052068283001
0.326000000000000179,-8.374757364882279731
0.327000000000000179,-8.328632222590744760
0.328000000000000180,-8.280619696021103593
0.329000000000000181,-8.230745011731594118
0.330000000000000182,-8.179034585865743168
0.331000000000000183,-8.125516049851192690
0.332000000000000184,-8.070218268318416932
0.333000000000000185,-8.013171349622295381
0.334000000000000186,-7.954406649353816583
0.335000000000000187,-7.893956767231857796
0.336000000000000187,-7.831855537765804343
0.337000000000000188,-7.768138015078394965
0.338000000000000189,-7.702840452275974137
0.339000000000000190,-7.636000275748932253
0.340000000000000191,-7.567656054779787311
0.341000000000000192,-7.497847466830104501
0.342000000000000193,-7.426615258869411207
0.343000000000000194,-7.354001205101303285
0.344000000000000195,-7.280048061432094819
0.345000000000000195,-7.204799517017924870
0.346000000000000196,-7.128300143215176021
0.347000000000000197,-7.050595340248236198
0.348000000000000198,-6.971731281897122656
0.349000000000000199,-6.891754858495472646
0.350000000000000200,-6.810713618517587165
0.351000000000000201,-6.728655709020633147
0.352000000000000202,-6.645629815195976953
0.353000000000000203,-6.561685099271064914
0.354000000000000203,-6.476871138990754950
0.355000000000000204,-6.391237865894646930
0.356000000000000205,-6.304835503594700796
0.357000000000000206,-6.217714506245155093
0.358000000000000207,-6.129925497384685507
0.359000000000000208,-6.041519209319133665
0.360000000000000209,-5.952546423201337866
0.361000000000000210,-5.863057909953392155
0.362000000000000210,-5.773104372165564158
0.363000000000000211,-5.682736387095343567
0.364000000000000212,-5.592004350879770769
0.365000000000000213,-5.500958424063890462
0.366000000000000214,-5.409648478538629846
0.367000000000000215,-5.318124045971828195
0.368000000000000216,-5.226434267807197998
0.369000000000000217,-5.134627846897230619
0.370000000000000218,-5.042753000827826959
0.371000000000000218,-4.950857416984325354
0.372000000000000219,-4.858988209401180924
0.373000000000000220,-4.767191877430180469
0.374000000000000221,-4.675514266255373919
0.375000000000000222,-4.584000529276131886
0.376000000000000223,-4.492695092373930166
0.377000000000000224,-4.401641620072365590
0.378000000000000225,-4.310882983594622964
0.379000000000000226,-4.220461230817395659
0.380000000000000226,-4.130417558115555110
0.381000000000000227,-4.040792284087214803
0.382000000000000228,-3.951624825144908648
0.383000000000000229,-3.862953672954519302
0.384000000000000230,-3.774816373700055294
0.385000000000000231,-3.687249509149232551
0.386000000000000232,-3.600288679491578048
0.387000000000000233,-3.513968487918115446
0.388000000000000234,-3.428322526909165280
0.389000000000000234,-3.343383366194592643
0.390000000000000235,-3.259182542348553646
0.391000000000000236,-3.175750549979364568
0.392000000000000237,-3.093116834473037535
0.393000000000000238,-3.011309786248088649
0.394000000000000239,-2.930356736477604862
0.395000000000000240,-2.850283954233792549
0.396000000000000241,-2.771116645009263024
0.397000000000000242,-2.692878950568547314
0.398000000000000242,-2.615593950082957697
0.399000000000000243,-2.539283662501356620
0.400000000000000244,-2.463969050109075631
0.401000000000000245,-2.389670023227435713
0.402000000000000246,-2.316405446005810553
0.403000000000000247,-2.244193143258621959
0.404000000000000248,-2.173049908299746313
0.405000000000000249,-2.102991511727080987
0.406000000000000250,-2.034032711110403291
0.407000000000000250,-1.966187261536187947
0.408000000000000251,-1.899467926963451347
0.409000000000000252,-1.833886492345519814
0.410000000000000253,-1.769453776473008277
0.411000000000000254,-1.706179645494336539
0.412000000000000255,-1.644073027070615867
0.413000000000000256,-1.583141925122802274
0.414000000000000257,-1.523393435129691387
0.415000000000000258,-1.464833759936417179
0.416000000000000258,-1.407468226033909087
0.417000000000000259,-1.351301300270853822
0.418000000000000260,-1.296336606960644344
0.419000000000000261,-1.242576945346798523
0.420000000000000262,-1.190024307391449154
0.421000000000000263,-1.138679895852475976
0.422000000000000264,-1.088544142615942567
0.423000000000000265,-1.039616727251525319
0.424000000000000266,-0.991896595759847566
0.425000000000000266,-0.945381979481442869
0.426000000000000267,-0.900070414138401942
0.427000000000000268,-0.855958758980668422
0.428000000000000269,-0.813043216010072234
0.429000000000000270,-0.771319349256267217
0.430000000000000271,-0.730782104079713224
0.431000000000000272,-0.691425826477983008
0.432000000000000273,-0.653244282372615226
0.433000000000000274,-0.616230676854821802
0.434000000000000274,-0.580377673369273039
0.435000000000000275,-0.545677412816272245
0.436000000000000276,-0.512121532553515335
0.437000000000000277,-0.479701185279599318
0.438000000000000278,-0.448407057782411189
0.439000000000000279,-0.418229389536418528
0.440000000000000280,-0.389157991133744496
0.441000000000000281,-0.361182262534815279
0.442000000000000282,-0.334291211125274990
0.443000000000000282,-0.308473469566506175
0.444000000000000283,-0.283717313428178852
0.445000000000000284,-0.260010678591781452
0.446000000000000285,-0.237341178414944703
0.447000000000000286,-0.215696120647247802
0.448000000000000287,-0.195062524088622374
0.449000000000000288,-0.175427134982478833
0.450000000000000289,-0.156776443136118521
0.451000000000000290,-0.139096697761777632
0.452000000000000290,-0.122373923032248852
0.453000000000000291,-0.106593933345590086
0.454000000000000292,-0.091742348294108364
0.455000000000000293,-0.077804607333259668
0.456000000000000294,-0.064765984146762462
0.457000000000000295,-0.052611600704642325
0.458000000000000296,-0.041326441011511915
0.459000000000000297,-0.030895364542803894
0.460000000000000298,-0.021303119367199107
0.461000000000000298,-0.012534354953859305
0.462000000000000299,-0.004573634663590231
0.463000000000000300,0.002594552076653889
0.464000000000000301,0.008985777916003478
0.465000000000000302,0.014615666038455344
0.466000000000000303,0.019499878937616223
0.467000000000000304,0.023654107506532664
0.468000000000000305,0.027094060441318381
0.469000000000000306,0.029835453957156987
0.470000000000000306,0.031894001814805742
0.471000000000000307,0.033285405655594645
0.472000000000000308,0.034025345642565277
0.473000000000000309,0.034129471405244541
0.474000000000000310,0.033613393285260237
0.475000000000000311,0.032492673879824477
0.476000000000000312,0.030782819879926492
0.477000000000000313,0.028499274199892732
0.478000000000000314,0.025657408394791349
0.479000000000000314,0.022272515361989997
0.480000000000000315,0.018359802323106265
0.481000000000000316,0.013934384082334283
0.482000000000000317,0.009011276557147540
0.483000000000000318,0.003605390577141676
0.484000000000000319,-0.002268474053209723
0.485000000000000320,-0.008595634232315852
0.486000000000000321,-0.015361528984140749
0.487000000000000322,-0.022551724630345084
0.488000000000000322,-0.030151919716475527
0.489000000000000323,-0.038147949696844964
0.490000000000000324,-0.046525791382798790
0.491000000000000325,-0.055271567159094835
0.492000000000000326,-0.064371548973159928
0.493000000000000327,-0.073812162102012427
0.494000000000000328,-0.083579988701673755
0.495000000000000329,-0.093661771143861441
0.496000000000000330,-0.104044415144828623
0.497000000000000330,-0.114714992691152068
0.498000000000000331,-0.125660744767314536
0.499000000000000332,-0.136869083889868598
0.500000000000000333,-0.148327596453039279
0.501000000000000334,-0.160024044890490408
0.502000000000000335,-0.171946369658058013
0.503000000000000336,-0.184082691042160185
0.504000000000000337,-0.196421310798609416
0.505000000000000338,-0.208950713626473522
0.506000000000000338,-0.221659568481639008
0.507000000000000339,-0.234536729734649729
0.508000000000000340,-0.247571238177380193
0.509000000000000341,-0.260752321883033933
0.510000000000000342,-0.274069396923928288
0.511000000000000343,-0.287512067951450734
0.512000000000000344,-0.301070128642548229
0.513000000000000345,-0.314733562017018020
0.514000000000000346,-0.328492540629870933
0.515000000000000346,-0.342337426642881248
0.516000000000000347,-0.356258771779483285
0.517000000000000348,-0.370247317167052781
0.518000000000000349,-0.384293993070546069
0.519000000000000350,-0.398389918521406927
0.520000000000000351,-0.412526400845657115
0.521000000000000352,-0.426694935094875050
0.522000000000000353,-0.440887203383840742
0.523000000000000353,-0.455095074138491540
0.524000000000000354,-0.469310601257746096
0.525000000000000355,-0.483526023192760945
0.526000000000000356,-0.497733761947002418
0.527000000000000357,-0.511926422000570147
0.528000000000000358,-0.526096789162058043
0.529000000000000359,-0.540237829351163601
0.530000000000000360,-0.554342687315255267
0.531000000000000361,-0.568404685282971833
0.532000000000000361,-0.582417321557888834
0.533000000000000362,-0.596374269055208517
0.534000000000000363,-0.610269373784365188
0.535000000000000364,-0.624096653280370228
0.536000000000000365,-0.637850294986644584
0.537000000000000366,-0.651524654592029351
0.538000000000000367,-0.665114254324582044
0.539000000000000368,-0.678613781204733590
0.540000000000000369,-0.692018085260261984
0.541000000000000369,-0.705322177705521969
0.542000000000000370,-0.718521229087279223
0.543000000000000371,-0.731610567399434086
0.544000000000000372,-0.744585676168881383
0.545000000000000373,-0.757442192514637402
0.546000000000000374,-0.770175905182374110
0.547000000000000375,-0.782782752556369199
0.548000000000000376,-0.795258820650881826
0.549000000000000377,-0.807600341082846285
0.550000000000000377,-0.819803689027772009
0.551000000000000378,-0.831865381160645234
0.552000000000000379,-0.843782073583567493
0.553000000000000380,-0.855550559741860561
0.554000000000000381,-0.867167768330223354
0.555000000000000382,-0.878630761190581699
0.556000000000000383,-0.889936731203113118
0.557000000000000384,-0.901083000171954418
0.558000000000000385,-0.912067016707006850
0.559000000000000385,-0.922886354103237716
0.560000000000000386,-0.933538708218757618
0.561000000000000387,-0.944021895353019724
0.562000000000000388,-0.954333850126310446
0.563000000000000389,-0.964472623361780301
0.564000000000000390,-0.974436379971087674
0.565000000000000391,-0.984223396844815079
0.566000000000000392,-0.993832060748674584
0.567000000000000393,-1.003260866226522330
0.568000000000000393,-1.012508413511149508
0.569000000000000394,-1.021573406443797793
0.570000000000000395,-1.030454650403252126
0.571000000000000396,-1.039151050245389118
0.572000000000000397,-1.047661608253998677
0.573000000000000398,-1.055985422103626892
0.574000000000000399,-1.064121682835202254
0.575000000000000400,-1.072069672845148425
0.576000000000000401,-1.079828763888636800
0.577000000000000401,-1.087398415097650339
0.578000000000000402,-1.094778171014424872
0.579000000000000403,-1.101967659640867181
0.580000000000000404,-1.108966590504487870
0.581000000000000405,-1.115774752741349296
0.582000000000000406,-1.122392013196535476
0.583000000000000407,-1.128818314542574308
0.584000000000000408,-1.135053673416264397
0.585000000000000409,-1.141098178574275535
0.586000000000000409,-1.146951989067945599
0.587000000000000410,-1.152615332437575857
0.588000000000000411,-1.158088502926576613
0.589000000000000412,-1.163371859715774281
0.590000000000000413,-1.168465825178122808
0.591000000000000414,-1.173370883154116529
0.592000000000000415,-1.178087577248122964
0.593000000000000416,-1.182616509145834938
0.594000000000000417,-1.186958336953072735
0.595000000000000417,-1.191113773556076172
0.596000000000000418,-1.195083585003460014
0.597000000000000419,-1.198868588909973054
0.598000000000000420,-1.202469652882174111
0.599000000000000421,-1.205887692966121305
0.600000000000000422,-1.209123672117187853
0.601000000000000423,-1.212178598692037257
0.602000000000000424,-1.215053524962844689
0.603000000000000425,-1.217749545653807441
0.604000000000000425,-1.220267796499934443
0.605000000000000426,-1.222609452828159471
0.606000000000000427,-1.224775728160796939
0.607000000000000428,-1.226767872841246998
0.608000000000000429,-1.228587172682053863
0.609000000000000430,-1.230234947635124199
0.610000000000000431,-1.231712550484218349
0.611000000000000432,-1.233021365559527238
0.612000000000000433,-1.234162807474327606
0.613000000000000433,-1.235138319883653413
