# tri-graphene_PYRROLIDINE-AC
# h[nm],U(h)[kJ/mol]
0.149999999999999994,125.952978433450311968
0.150999999999999995,122.491440643621245954
0.151999999999999996,120.178418037244142624
0.152999999999999997,118.124475827694226382
0.153999999999999998,115.994502014509365040
0.154999999999999999,113.720477039378877748
0.156000000000000000,111.343240643942138490
0.157000000000000001,108.931434538779669197
0.158000000000000002,106.544879492590965242
0.159000000000000002,104.222163597883081820
0.160000000000000003,101.980314328997224038
0.161000000000000004,99.819570891394434398
0.162000000000000005,97.729469042470029194
0.163000000000000006,95.694378091439588729
0.164000000000000007,93.697745759593388470
0.165000000000000008,91.724914311042113013
0.166000000000000009,89.764669737304899400
0.167000000000000010,87.809803148261906358
0.168000000000000010,85.856981058240151583
0.169000000000000011,83.906188947778588272
0.170000000000000012,81.959960008425056799
0.171000000000000013,80.022545034691546562
0.172000000000000014,78.099128604762000805
0.173000000000000015,76.195154685132720829
0.174000000000000016,74.315792479434847451
0.175000000000000017,72.465550087246072053
0.176000000000000018,70.648028015562189807
0.177000000000000018,68.865795243936972270
0.178000000000000019,67.120365878840743790
0.179000000000000020,65.412253115005000836
0.180000000000000021,63.741078151298061982
0.181000000000000022,62.105714019472131326
0.182000000000000023,60.504447323540809123
0.183000000000000024,58.935144186651839959
0.184000000000000025,57.395409941847404411
0.185000000000000026,55.882735081005364464
0.186000000000000026,54.394622578866517415
0.187000000000000027,52.928693886800814994
0.188000000000000028,51.482772638669850096
0.189000000000000029,50.054946452626325026
0.190000000000000030,48.643608189089569294
0.191000000000000031,47.247478686359606570
0.192000000000000032,45.865613394020151361
0.193000000000000033,44.497395511742460883
0.194000000000000034,43.142518264774786019
0.195000000000000034,41.800958849396188555
0.196000000000000035,40.472946398095089648
0.197000000000000036,39.158926075331521588
0.198000000000000037,37.859521144832172013
0.199000000000000038,36.575494567578125782
0.200000000000000039,35.307711410468655799
0.201000000000000040,34.057103079601752427
0.202000000000000041,32.824634146408250501
0.203000000000000042,31.611272314014815521
0.204000000000000042,30.417961877544314575
0.205000000000000043,29.245600866297944975
0.206000000000000044,28.095021917363858677
0.207000000000000045,26.966976817752271955
0.208000000000000046,25.862124563659090626
0.209000000000000047,24.781022718540395289
0.210000000000000048,23.724121803795913621
0.211000000000000049,22.691762424424034350
0.212000000000000050,21.684174814498099693
0.213000000000000050,20.701480481341672402
0.214000000000000051,19.743695630635112792
0.215000000000000052,18.810736065379384030
0.216000000000000053,17.902423267902811688
0.217000000000000054,17.018491394380770743
0.218000000000000055,16.158594934327837223
0.219000000000000056,15.322316812105778894
0.220000000000000057,14.509176732749287098
0.221000000000000058,13.718639599611117674
0.222000000000000058,12.950123855874986489
0.223000000000000059,12.203009625444293462
0.224000000000000060,11.476646550751690157
0.225000000000000061,10.770361245428830443
0.226000000000000062,10.083464298386180857
0.227000000000000063,9.415256782609041863
0.228000000000000064,8.765036236867198127
0.229000000000000065,8.132102101589801180
0.230000000000000066,7.515760601446290323
0.231000000000000066,6.915329076783885753
0.232000000000000067,6.330139774118871188
0.233000000000000068,5.759543112479162730
0.234000000000000069,5.202910447681960093
0.235000000000000070,4.659636360730946336
0.236000000000000071,4.129140499564559974
0.237000000000000072,3.610869005503781981
0.238000000000000073,3.104295557058685429
0.239000000000000073,2.608922064370118310
0.240000000000000074,2.124279047590050151
0.241000000000000075,1.649925732043551418
0.242000000000000076,1.185449892151433149
0.243000000000000077,0.730467474906886793
0.244000000000000078,0.284622032263687985
0.245000000000000079,-0.152416009830587118
0.246000000000000080,-0.580950219778743504
0.247000000000000081,-1.001259141920598728
0.248000000000000081,-1.413597369112499669
0.249000000000000082,-1.818196685946536162
0.250000000000000111,-2.215267264134327174
0.251000000000000112,-2.604998893415389372
0.252000000000000113,-2.987562233126663358
0.253000000000000114,-3.363110071267608525
0.254000000000000115,-3.731778579510584226
0.255000000000000115,-4.093688554123875001
0.256000000000000116,-4.448946634194891558
0.257000000000000117,-4.797646489857889662
0.258000000000000118,-5.139869974443378453
0.259000000000000119,-5.475688235577203855
0.260000000000000120,-5.805162781266730576
0.261000000000000121,-6.128346497922383840
0.262000000000000122,-6.445284618080537875
0.263000000000000123,-6.756015636320521267
0.264000000000000123,-7.060572172511527356
0.265000000000000124,-7.358981782087743895
0.266000000000000125,-7.651267713538922877
0.267000000000000126,-7.937449613723167374
0.268000000000000127,-8.217544181965992678
0.269000000000000128,-8.491565774207678885
0.270000000000000129,-8.759526958707494870
0.271000000000000130,-9.021439025011920521
0.272000000000000131,-9.277312448049411131
0.273000000000000131,-9.527157309332148216
0.274000000000000132,-9.770983677328633377
0.275000000000000133,-10.008801949125160746
0.276000000000000134,-10.240623155522062149
0.277000000000000135,-10.466459231715393940
0.278000000000000136,-10.686323255701422497
0.279000000000000137,-10.900229656510102672
0.280000000000000138,-11.108194394329533594
0.281000000000000139,-11.310235114527731781
0.282000000000000139,-11.506371277512922546
0.283000000000000140,-11.696624266301336448
0.284000000000000141,-11.881017473583517230
0.285000000000000142,-12.059576369998305623
0.286000000000000143,-12.232328555239034173
0.287000000000000144,-12.399303793529854900
0.288000000000000145,-12.560534034924117464
0.289000000000000146,-12.716053423789180243
0.290000000000000147,-12.865898295757542513
0.291000000000000147,-13.010107164339682839
0.292000000000000148,-13.148720698312809319
0.293000000000000149,-13.281781690920222871
0.294000000000000150,-13.409335021840075086
0.295000000000000151,-13.531427612809050487
0.296000000000000152,-13.648108377716805961
0.297000000000000153,-13.759428167920603414
0.298000000000000154,-13.865439713466864546
0.299000000000000155,-13.966197560846978831
0.300000000000000155,-14.061758007859092245
0.301000000000000156,-14.152179036095144937
0.302000000000000157,-14.237520241524020292
0.303000000000000158,-14.317842763595752587
0.304000000000000159,-14.393209213249889444
0.305000000000000160,-14.463683600171785670
0.306000000000000161,-14.529331259604642668
0.307000000000000162,-14.590218778991864923
0.308000000000000163,-14.646413924693684194
0.309000000000000163,-14.697985568994102579
0.310000000000000164,-14.745003617588782419
0.311000000000000165,-14.787538937721009802
0.312000000000000166,-14.825663287112007538
0.313000000000000167,-14.859449243812528962
0.314000000000000168,-14.888970137085447476
0.315000000000000169,-14.914299979413428332
0.316000000000000170,-14.935513399711954463
0.317000000000000171,-14.952685577815140405
0.318000000000000171,-14.965892180290712332
0.319000000000000172,-14.975209297630783567
0.320000000000000173,-14.980713382855762816
0.321000000000000174,-14.982481191561191736
0.322000000000000175,-14.980589723430416171
0.323000000000000176,-14.975116165229746201
0.324000000000000177,-14.966137835297686820
0.325000000000000178,-14.953732129534813566
0.326000000000000179,-14.937976468897407045
0.327000000000000179,-14.918948248393883560
0.328000000000000180,-14.896724787580396310
0.329000000000000181,-14.871383282549530236
0.330000000000000182,-14.843000759403258471
0.331000000000000183,-14.811654029200264304
0.332000000000000184,-14.777419644365432205
0.333000000000000185,-14.740373856548419695
0.334000000000000186,-14.700592575917019289
0.335000000000000187,-14.658151331870040934
0.336000000000000187,-14.613125235153805903
0.337000000000000188,-14.565588941365550824
0.338000000000000189,-14.515616615826811397
0.339000000000000190,-14.463281899809237174
0.340000000000000191,-14.408657878094881966
0.341000000000000192,-14.351817047853208109
0.342000000000000193,-14.292831288816159940
0.343000000000000194,-14.231771834733232041
0.344000000000000195,-14.168709246087550113
0.345000000000000195,-14.103713384054703539
0.346000000000000196,-14.036853385685139628
0.347000000000000197,-13.968197640291569073
0.348000000000000198,-13.897813767022224596
0.349000000000000199,-13.825768593601074130
0.350000000000000200,-13.752128136215924670
0.351000000000000201,-13.676957580535168191
0.352000000000000202,-13.600321263833986762
0.353000000000000203,-13.522282658210821538
0.354000000000000203,-13.442904354874608330
0.355000000000000204,-13.362248049483289591
0.356000000000000205,-13.280374528514229837
0.357000000000000206,-13.197343656646804533
0.358000000000000207,-13.113214365137341844
0.359000000000000208,-13.028044641166781403
0.360000000000000209,-12.941891518141058981
0.361000000000000210,-12.854811066924199281
0.362000000000000210,-12.766858387984035161
0.363000000000000211,-12.678087604430411162
0.364000000000000212,-12.588551855925581791
0.365000000000000213,-12.498303293446458184
0.366000000000000214,-12.407393074878328321
0.367000000000000215,-12.315871361419493013
0.368000000000000216,-12.223787314776449975
0.369000000000000217,-12.131189095128803501
0.370000000000000218,-12.038123859843576469
0.371000000000000218,-11.944637762918029367
0.372000000000000219,-11.850775955130464112
0.373000000000000220,-11.756582584878376707
0.374000000000000221,-11.662100799683306818
0.375000000000000222,-11.567372748341650635
0.376000000000000223,-11.472439583701092403
0.377000000000000224,-11.377341466041968943
0.378000000000000225,-11.282117567043183470
0.379000000000000226,-11.186806074312290349
0.380000000000000226,-11.091444196459574911
0.381000000000000227,-10.996068168695815714
0.382000000000000228,-10.900713258933913963
0.383000000000000229,-10.805413774374409641
0.384000000000000230,-10.710203068555120609
0.385000000000000231,-10.615113548845553026
0.386000000000000232,-10.520176684366562725
0.387000000000000233,-10.425423014316187675
0.388000000000000234,-10.330882156682701378
0.389000000000000234,-10.236582817326262074
0.390000000000000235,-10.142552799410529119
0.391000000000000236,-10.048819013166232494
0.392000000000000237,-9.955407485968532200
0.393000000000000238,-9.862343372710729028
0.394000000000000239,-9.769650966456694619
0.395000000000000240,-9.677353709355093869
0.396000000000000241,-9.585474203798559856
0.397000000000000242,-9.494034223811258499
0.398000000000000242,-9.403054726648806039
0.399000000000000243,-9.312555864594642685
0.400000000000000244,-9.222556996937255391
0.401000000000000245,-9.133076702113317680
0.402000000000000246,-9.044132790001707889
0.403000000000000247,-8.955742314354003142
0.404000000000000248,-8.867921585347371405
0.405000000000000249,-8.780686182246068228
0.406000000000000250,-8.694050966158098248
0.407000000000000250,-8.608030092874100703
0.408000000000000251,-8.522637025775619435
0.409000000000000252,-8.437884548800653306
0.410000000000000253,-8.353784779454333176
0.411000000000000254,-8.270349181853314136
0.412000000000000255,-8.187588579792542731
0.413000000000000256,-8.105513169823680641
0.414000000000000257,-8.024132534334526667
0.415000000000000258,-7.943455654619502759
0.416000000000000258,-7.863490923931308885
0.417000000000000259,-7.784246160504389778
0.418000000000000260,-7.705728620541177243
0.419000000000000261,-7.627945011152365673
0.420000000000000262,-7.550901503242930524
0.421000000000000263,-7.474603744335853506
0.422000000000000264,-7.399056871325865536
0.423000000000000265,-7.324265523155884416
0.424000000000000266,-7.250233853409251417
0.425000000000000266,-7.176965542810909149
0.426000000000000267,-7.104463811631331893
0.427000000000000268,-7.032731431987080839
0.428000000000000269,-6.961770740032280358
0.429000000000000270,-6.891583648035625842
0.430000000000000271,-6.822171656337741474
0.431000000000000272,-6.753535865184076670
0.432000000000000273,-6.685676986428819468
0.433000000000000274,-6.618595355105545863
0.434000000000000274,-6.552290940860549640
0.435000000000000275,-6.486763359245233396
0.436000000000000276,-6.422011882864033794
0.437000000000000277,-6.358035452374620533
0.438000000000000278,-6.294832687337474475
0.439000000000000279,-6.232401896912132422
0.440000000000000280,-6.170741090397493522
0.441000000000000281,-6.109847987614015707
0.442000000000000282,-6.049720029125770004
0.443000000000000282,-5.990354386300378309
0.444000000000000283,-5.931747971205413528
0.445000000000000284,-5.873897446339674921
0.446000000000000285,-5.816799234198095192
0.447000000000000286,-5.760449526669427556
0.448000000000000287,-5.704844294265576821
0.449000000000000288,-5.649979295182110839
0.450000000000000289,-5.595850084189279983
0.451000000000000290,-5.542452021353261316
0.452000000000000290,-5.489780280587384098
0.453000000000000291,-5.437829858033286889
0.454000000000000292,-5.386595580272127926
0.455000000000000293,-5.336072112365967790
0.456000000000000294,-5.286253965729816429
0.457000000000000295,-5.237135505834730864
0.458000000000000296,-5.188710959742581785
0.459000000000000297,-5.140974423473226196
0.460000000000000298,-5.093919869204888151
0.461000000000000298,-5.047541152308690826
0.462000000000000299,-5.001832018218380860
0.463000000000000300,-4.956786109136298357
0.464000000000000301,-4.912396970576905275
0.465000000000000302,-4.868658057749108536
0.466000000000000303,-4.825562741778733233
0.467000000000000304,-4.783104315772639836
0.468000000000000305,-4.741276000725994422
0.469000000000000306,-4.700070951274251563
0.470000000000000306,-4.659482261291563177
0.471000000000000307,-4.619502969337205833
0.472000000000000308,-4.580126063951929893
0.473000000000000309,-4.541344488805916235
0.474000000000000310,-4.503151147700274137
0.475000000000000311,-4.465538909423918845
0.476000000000000312,-4.428500612467884068
0.477000000000000313,-4.392029069598863522
0.478000000000000314,-4.356117072294134474
0.479000000000000314,-4.320757395039889204
0.480000000000000315,-4.285942799494909750
0.481000000000000316,-4.251666038521869417
0.482000000000000317,-4.217919860088178652
0.483000000000000318,-4.184697011038629455
0.484000000000000319,-4.151990240741907812
0.485000000000000320,-4.119792304613175915
0.486000000000000321,-4.088095967514851381
0.487000000000000322,-4.056894007037771033
0.488000000000000322,-4.026179216664877103
0.489000000000000323,-3.995944408819708027
0.490000000000000324,-3.966182417801750404
0.491000000000000325,-3.936886102610934302
0.492000000000000326,-3.908048349663356014
0.493000000000000327,-3.879662075400514887
0.494000000000000328,-3.851720228794135892
0.495000000000000329,-3.824215793748807268
0.496000000000000330,-3.797141791404528455
0.497000000000000330,-3.770491282341382089
0.498000000000000331,-3.744257368688374665
0.499000000000000332,-3.718433196138653418
0.500000000000000333,-3.693011955873157781
0.501000000000000334,-3.667986886394758894
0.502000000000000335,-3.643351275275048984
0.503000000000000336,-3.619098460815755036
0.504000000000000337,-3.595221833626860874
0.505000000000000338,-3.571714838123418723
0.506000000000000338,-3.548570973943094398
0.507000000000000339,-3.525783797286364596
0.508000000000000340,-3.503346922181347800
0.509000000000000341,-3.481254021675247223
0.510000000000000342,-3.459498828954212346
0.511000000000000343,-3.438075138393591690
0.512000000000000344,-3.416976806540390932
0.513000000000000345,-3.396197753029792210
0.514000000000000346,-3.375731961437553164
0.515000000000000346,-3.355573480070032755
0.516000000000000347,-3.335716422693625560
0.517000000000000348,-3.316154969205394654
0.518000000000000349,-3.296883366246471603
0.519000000000000350,-3.277895927760050121
0.520000000000000351,-3.259187035495535234
0.521000000000000352,-3.240751139460512409
0.522000000000000353,-3.222582758322119822
0.523000000000000353,-3.204676479759386076
0.524000000000000354,-3.187026960768119643
0.525000000000000355,-3.169628927919819539
0.526000000000000356,-3.152477177576088252
0.527000000000000357,-3.135566576060101696
0.528000000000000358,-3.118892059786419146
0.529000000000000359,-3.102448635350692818
0.530000000000000360,-3.086231379580529843
0.531000000000000361,-3.070235439548954837
0.532000000000000361,-3.054456032551720490
0.533000000000000362,-3.038888446049837544
0.534000000000000363,-3.023528037578516070
0.535000000000000364,-3.008370234623830353
0.536000000000000365,-2.993410534468279760
0.537000000000000366,-2.978644504006467741
0.538000000000000367,-2.964067779532013613
0.539000000000000368,-2.949676066496926374
0.540000000000000369,-2.935465139244429533
0.541000000000000369,-2.921430840716453758
0.542000000000000370,-2.907569082136754801
0.543000000000000371,-2.893875842670744269
0.544000000000000372,-2.880347169063056434
0.545000000000000373,-2.866979175253803636
0.546000000000000374,-2.853768041974496406
0.547000000000000375,-2.840710016324571985
0.548000000000000376,-2.827801411329475378
0.549000000000000377,-2.815038605481127831
0.550000000000000377,-2.802418042261687336
0.551000000000000378,-2.789936229651463595
0.552000000000000379,-2.777589739621774800
0.553000000000000380,-2.765375207613586461
0.554000000000000381,-2.753289332002676559
0.555000000000000382,-2.741328873552143275
0.556000000000000383,-2.729490654852909426
0.557000000000000384,-2.717771559753049182
0.558000000000000385,-2.706168532776527247
0.559000000000000385,-2.694678578532132107
0.560000000000000386,-2.683298761113168673
0.561000000000000387,-2.672026203488623075
0.562000000000000388,-2.660858086886373375
0.563000000000000389,-2.649791650169088797
0.564000000000000390,-2.638824189203354376
0.565000000000000391,-2.627953056222628980
0.566000000000000392,-2.617175659184565628
0.567000000000000393,-2.606489461123234097
0.568000000000000393,-2.595891979496747215
0.569000000000000394,-2.585380785530799308
0.570000000000000395,-2.574953503558615520
0.571000000000000396,-2.564607810357720563
0.572000000000000397,-2.554341434484069140
0.573000000000000398,-2.544152155603874199
0.574000000000000399,-2.534037803823632196
0.575000000000000400,-2.523996259018702837
0.576000000000000401,-2.514025450160847441
0.577000000000000401,-2.504123354645138022
0.578000000000000402,-2.494287997616537744
0.579000000000000403,-2.484517451296537338
0.580000000000000404,-2.474809834310220502
0.581000000000000405,-2.465163311014002545
0.582000000000000406,-2.455576090824434843
0.583000000000000407,-2.446046427548311364
0.584000000000000408,-2.436572618714423655
0.585000000000000409,-2.427153004907183664
0.586000000000000409,-2.417785969102428378
0.587000000000000410,-2.408469936005645184
0.588000000000000411,-2.399203371392828466
0.589000000000000412,-2.389984781454279172
0.590000000000000413,-2.380812712141472609
0.591000000000000414,-2.371685748517290193
0.592000000000000415,-2.362602514109785723
0.593000000000000416,-2.353561670269658901
0.594000000000000417,-2.344561915531664376
0.595000000000000417,-2.335601984980122836
0.596000000000000418,-2.326680649618647845
0.597000000000000419,-2.317796715744353531
0.598000000000000420,-2.308949024326570232
0.599000000000000421,-2.300136450390322995
0.600000000000000422,-2.291357902404629776
0.601000000000000423,-2.282612321675780542
0.602000000000000424,-2.273898681745726513
0.603000000000000425,-2.265215987795667463
0.604000000000000425,-2.256563276054960987
0.605000000000000426,-2.247939613215435450
0.606000000000000427,-2.239344095851261596
0.607000000000000428,-2.230775849844326419
0.608000000000000429,-2.222234029815417067
0.609000000000000430,-2.213717818561019790
0.610000000000000431,-2.205226426496058600
