# tri-graphene_PROPAN1OL-AC
# h[nm],U(h)[kJ/mol]
0.149999999999999994,98.761428327348554035
0.150999999999999995,95.377196217201472450
0.151999999999999996,93.339659340037229640
0.152999999999999997,91.587259458163060799
0.153999999999999998,89.739526400401331330
0.154999999999999999,87.732496735183403302
0.156000000000000000,85.623312659369403832
0.157000000000000001,83.493861830386919110
0.158000000000000002,81.409919398271298974
0.159000000000000002,79.409451786537516682
0.160000000000000003,77.504681299290581364
0.161000000000000004,75.689328964284086965
0.162000000000000005,73.946592844199614092
0.163000000000000006,72.255845553456083508
0.164000000000000007,70.597386973044450542
0.165000000000000008,68.955284053855478987
0.166000000000000009,67.318638265572531054
0.167000000000000010,65.681712717640237997
0.168000000000000010,64.043330050301960910
0.169000000000000011,62.405881330737521751
0.170000000000000012,60.774200868299509182
0.171000000000000013,59.154480749721152222
0.172000000000000014,57.553330504621328600
0.173000000000000015,55.977034293354179795
0.174000000000000016,54.431019849566382618
0.175000000000000017,52.919528087525883109
0.176000000000000018,51.445457246440312815
0.177000000000000018,50.010348147921902751
0.178000000000000019,48.614475327919663528
0.179000000000000020,47.257010601683617779
0.180000000000000021,45.936229568223069464
0.181000000000000022,44.649736572665020162
0.182000000000000023,43.394688954171542150
0.183000000000000024,42.168006505510305715
0.184000000000000025,40.966556649832469361
0.185000000000000026,39.787309740750643527
0.186000000000000026,38.627462058506814913
0.187000000000000027,37.484526523464886338
0.188000000000000028,36.356392937853101444
0.189000000000000029,35.241360781297558447
0.190000000000000030,34.138148318955771288
0.191000000000000031,33.045882127142881757
0.192000000000000032,31.964071188654497035
0.193000000000000033,30.892569537588816075
0.194000000000000034,29.831531109337912966
0.195000000000000034,28.781360031982337944
0.196000000000000035,27.742659125898889272
0.197000000000000036,26.716178894075149231
0.198000000000000037,25.702768812527750697
0.199000000000000038,24.703332286782391236
0.200000000000000039,23.718786238679836487
0.201000000000000040,22.750025934800067517
0.202000000000000041,21.797895366538682538
0.203000000000000042,20.863163242310690748
0.204000000000000042,19.946504452307976862
0.205000000000000043,19.048486712032627111
0.206000000000000044,18.169561977871172331
0.207000000000000045,17.310062151191790036
0.208000000000000046,16.470198541606297482
0.209000000000000047,15.650064540014957615
0.210000000000000048,14.849640952986927545
0.211000000000000049,14.068803467458838696
0.212000000000000050,13.307331744645290783
0.213000000000000050,12.564919680936339930
0.214000000000000051,11.841186418377899869
0.215000000000000052,11.135687735555666933
0.216000000000000053,10.447927499237481541
0.217000000000000054,9.777368906298947948
0.218000000000000055,9.123445292957800490
0.219000000000000056,8.485570333199296655
0.220000000000000057,7.863147489789301225
0.221000000000000058,7.255578618996504581
0.222000000000000058,6.662271663815855227
0.223000000000000059,6.082647400018208472
0.224000000000000060,5.516145224775933720
0.225000000000000061,4.962227999070467632
0.226000000000000062,4.420385972785790152
0.227000000000000063,3.890139835594671247
0.228000000000000064,3.371042947751926366
0.229000000000000065,2.862682813036231622
0.230000000000000066,2.364681861658294970
0.231000000000000066,1.876697614296306327
0.232000000000000067,1.398422299847347228
0.233000000000000068,0.929581999289231908
0.234000000000000069,0.469935386511760478
0.235000000000000070,0.019272134354209804
0.236000000000000071,-0.422588949389404278
0.237000000000000072,-0.855801995357918677
0.238000000000000073,-1.280496299346457034
0.239000000000000073,-1.696778651191622078
0.240000000000000074,-2.104735719691419593
0.241000000000000075,-2.504436452522921464
0.242000000000000076,-2.895934455159217880
0.243000000000000077,-3.279270317693383952
0.244000000000000078,-3.654473863186434190
0.245000000000000079,-4.021566295620524478
0.246000000000000080,-4.380562229719713763
0.247000000000000081,-4.731471588775519876
0.248000000000000081,-5.074301360164255925
0.249000000000000082,-5.409057201462180942
0.250000000000000111,-5.735744892951793794
0.251000000000000112,-6.054371634871287711
0.252000000000000113,-6.364947190001895905
0.253000000000000114,-6.667484874122581395
0.254000000000000115,-6.962002398510453993
0.255000000000000115,-7.248522570039872548
0.256000000000000116,-7.527073855557565807
0.257000000000000117,-7.797690818102596566
0.258000000000000118,-8.060414433219388997
0.259000000000000119,-8.315292294100871118
0.260000000000000120,-8.562378714616299291
0.261000000000000121,-8.801734739443261901
0.262000000000000122,-9.033428070556501766
0.263000000000000123,-9.257532919242878577
0.264000000000000123,-9.474129792630710867
0.265000000000000124,-9.683305223457166377
0.266000000000000125,-9.885151451464306405
0.267000000000000126,-10.079766064425758287
0.268000000000000127,-10.267251606374381723
0.269000000000000128,-10.447715160136313628
0.270000000000000129,-10.621267910789528699
0.271000000000000130,-10.788024696163537541
0.272000000000000131,-10.948103549987994398
0.273000000000000131,-11.101625242789825876
0.274000000000000132,-11.248712825135122273
0.275000000000000133,-11.389491177319680304
0.276000000000000134,-11.524086569133766389
0.277000000000000135,-11.652626232865820555
0.278000000000000136,-11.775237952270197539
0.279000000000000137,-11.892049669805983214
0.280000000000000138,-12.003189114060225151
0.281000000000000139,-12.108783448900544144
0.282000000000000139,-12.208958945558910258
0.283000000000000140,-12.303840678531887676
0.284000000000000141,-12.393552245891418906
0.285000000000000142,-12.478215514335619929
0.286000000000000143,-12.557950389068887276
0.287000000000000144,-12.632874608385481707
0.288000000000000145,-12.703103562639222801
0.289000000000000146,-12.768750137112737875
0.290000000000000147,-12.829924578152807513
0.291000000000000147,-12.886734381810981631
0.292000000000000148,-12.939284204121705102
0.293000000000000149,-12.987675792059913960
0.294000000000000150,-13.032007934147785022
0.295000000000000151,-13.072376429622750038
0.296000000000000152,-13.108874075035952700
0.297000000000000153,-13.141590667120292224
0.298000000000000154,-13.170613020749147637
0.299000000000000155,-13.196025000799508575
0.300000000000000155,-13.217907566735320302
0.301000000000000156,-13.236338828737823192
0.302000000000000157,-13.251394114227915466
0.303000000000000158,-13.263146043650470673
0.304000000000000159,-13.271664614421430528
0.305000000000000160,-13.277017291973681523
0.306000000000000161,-13.279269106877730877
0.307000000000000162,-13.278482757056121244
0.308000000000000163,-13.274718714156112043
0.309000000000000163,-13.268035333193216374
0.310000000000000164,-13.258488964627650475
0.311000000000000165,-13.246134068085790858
0.312000000000000166,-13.231023326990353439
0.313000000000000167,-13.213207763413700846
0.314000000000000168,-13.192736852519947988
0.315000000000000169,-13.169658636011940089
0.316000000000000170,-13.144019834048929596
0.317000000000000171,-13.115865955149265787
0.318000000000000171,-13.085241403639804147
0.319000000000000172,-13.052189584259783928
0.320000000000000173,-13.016753003571000846
0.321000000000000174,-12.978973367868713140
0.322000000000000175,-12.938891677328612673
0.323000000000000176,-12.896548316163821468
0.324000000000000177,-12.851983138602829371
0.325000000000000178,-12.805235550534021627
0.326000000000000179,-12.756344586695638199
0.327000000000000179,-12.705348983320295275
0.328000000000000180,-12.652287246172313928
0.329000000000000181,-12.597197713943060648
0.330000000000000182,-12.540118616993675360
0.331000000000000183,-12.481088131458289325
0.332000000000000184,-12.420144428741114240
0.333000000000000185,-12.357325720460409002
0.334000000000000186,-12.292670298909586180
0.335000000000000187,-12.226216573121297060
0.336000000000000187,-12.158003100634765303
0.337000000000000188,-12.088068615078521262
0.338000000000000189,-12.016452049692423643
0.339000000000000190,-11.943192556921809810
0.340000000000000191,-11.868329524225043059
0.341000000000000192,-11.791902586242994033
0.342000000000000193,-11.713951633484029458
0.343000000000000194,-11.634516817683621781
0.344000000000000195,-11.553638554000295713
0.345000000000000195,-11.471357520213183889
0.346000000000000196,-11.387714653087304129
0.347000000000000197,-11.302751142074114910
0.348000000000000198,-11.216508420514724520
0.349000000000000199,-11.129028154512395687
0.350000000000000200,-11.040352229640056692
0.351000000000000201,-10.950522735646170958
0.352000000000000202,-10.859581949320299188
0.353000000000000203,-10.767572315676654071
0.354000000000000203,-10.674536427610537004
0.355000000000000204,-10.580517004178972229
0.356000000000000205,-10.485556867652785940
0.357000000000000206,-10.389698919483141282
0.358000000000000207,-10.292986115320626794
0.359000000000000208,-10.195461439220826705
0.360000000000000209,-10.097167877164734406
0.361000000000000210,-9.998148390017693288
0.362000000000000210,-9.898445886045170283
0.363000000000000211,-9.798103193098445018
0.364000000000000212,-9.697163030578012766
0.365000000000000213,-9.595667981277042458
0.366000000000000214,-9.493660463202020949
0.367000000000000215,-9.391182701462216897
0.368000000000000216,-9.288276700314499479
0.369000000000000217,-9.184984215444568889
0.370000000000000218,-9.081346726560713734
0.371000000000000218,-8.977405410370939975
0.372000000000000219,-8.873201114009379609
0.373000000000000220,-8.768774328973062637
0.374000000000000221,-8.664165165625293596
0.375000000000000222,-8.559413328317175385
0.376000000000000223,-8.454558091174471102
0.377000000000000224,-8.349638274592468434
0.378000000000000225,-8.244692222477329580
0.379000000000000226,-8.139757780268300991
0.380000000000000226,-8.034872273771393125
0.381000000000000227,-7.930072488830933075
0.382000000000000228,-7.825394651862355389
0.383000000000000229,-7.720874411265617354
0.384000000000000230,-7.616546819735494189
0.385000000000000231,-7.512446317482056379
0.386000000000000232,-7.408606716371193279
0.387000000000000233,-7.305061184992618806
0.388000000000000234,-7.201842234659757480
0.389000000000000234,-7.098981706343702847
0.390000000000000235,-6.996510758540617658
0.391000000000000236,-6.894459856070151993
0.392000000000000237,-6.792858759799893953
0.393000000000000238,-6.691736517289274211
0.394000000000000239,-6.591121454344164299
0.395000000000000240,-6.491041167471988338
0.396000000000000241,-6.391522517225377342
0.397000000000000242,-6.292591622420961706
0.398000000000000242,-6.194273855218694891
0.399000000000000243,-6.096593837045713116
0.400000000000000244,-5.999575435347528796
0.401000000000000245,-5.903241761148779965
0.402000000000000246,-5.807615167404273748
0.403000000000000247,-5.712717248120569025
0.404000000000000248,-5.618568838227703921
0.405000000000000249,-5.525190014179763409
0.406000000000000250,-5.432600095262623441
0.407000000000000250,-5.340817645586753315
0.408000000000000251,-5.249860476742398419
0.409000000000000252,-5.159745651094426400
0.410000000000000253,-5.070489485693548737
0.411000000000000254,-4.982107556780748681
0.412000000000000255,-4.894614704861429466
0.413000000000000256,-4.808025040325818900
0.414000000000000257,-4.722351949592129117
0.415000000000000258,-4.637608101749055578
0.416000000000000258,-4.553805455674249103
0.417000000000000259,-4.470955267605547512
0.418000000000000260,-4.389068099141964829
0.419000000000000261,-4.308153825651548807
0.420000000000000262,-4.228221645063638512
0.421000000000000263,-4.149280087023182517
0.422000000000000264,-4.071337022385189464
0.423000000000000265,-3.994399673027606124
0.424000000000000266,-3.918474621961554938
0.425000000000000266,-3.843567823717854992
0.426000000000000267,-3.769684614989542215
0.427000000000000268,-3.696829725510266229
0.428000000000000269,-3.625007289149039913
0.429000000000000270,-3.554220855202243179
0.430000000000000271,-3.484473399864154608
0.431000000000000272,-3.415767337857952946
0.432000000000000273,-3.348104534209431105
0.433000000000000274,-3.281486316146332793
0.434000000000000274,-3.215913485106558944
0.435000000000000275,-3.151386328839154150
0.436000000000000276,-3.087904633582436276
0.437000000000000277,-3.025467696304039222
0.438000000000000278,-2.964074336988379077
0.439000000000000279,-2.903722910957386105
0.440000000000000280,-2.844411321210881916
0.441000000000000281,-2.786137030773574885
0.442000000000000282,-2.728897075036128328
0.443000000000000282,-2.672688074078123144
0.444000000000000283,-2.617506244961496087
0.445000000000000284,-2.563347413983300793
0.446000000000000285,-2.510207028877139646
0.447000000000000286,-2.458080170953376609
0.448000000000000287,-2.406961567168235838
0.449000000000000288,-2.356845602112850546
0.450000000000000289,-2.307726329913411867
0.451000000000000290,-2.259597486034227831
0.452000000000000290,-2.212452498975872039
0.453000000000000291,-2.166284501861010625
0.454000000000000292,-2.121086343901009919
0.455000000000000293,-2.076850601736682123
0.456000000000000294,-2.033569590647148040
0.457000000000000295,-1.991235375620940218
0.458000000000000296,-1.949839782284086054
0.459000000000000297,-1.909374407680107355
0.460000000000000298,-1.869830630897332258
0.461000000000000298,-1.831199623539234711
0.462000000000000299,-1.793472360033886659
0.463000000000000300,-1.756639627778854074
0.464000000000000301,-1.720692037118321638
0.465000000000000302,-1.685620031149455134
0.466000000000000303,-1.651413895355294148
0.467000000000000304,-1.618063767061795888
0.468000000000000305,-1.585559644717004835
0.469000000000000306,-1.553891396990387364
0.470000000000000306,-1.523048771690886927
0.471000000000000307,-1.493021404502262062
0.472000000000000308,-1.463798827534734004
0.473000000000000309,-1.435370477691991331
0.474000000000000310,-1.407725704853004522
0.475000000000000311,-1.380853779868166153
0.476000000000000312,-1.354743902369645259
0.477000000000000313,-1.329385208395786666
0.478000000000000314,-1.304766777829852176
0.479000000000000314,-1.280877641653415333
0.480000000000000315,-1.257706789014866322
0.481000000000000316,-1.235243174113794140
0.482000000000000317,-1.213475722901982135
0.483000000000000318,-1.192393339602063396
0.484000000000000319,-1.171984913044874954
0.485000000000000320,-1.152239322826836831
0.486000000000000321,-1.133145445288621822
0.487000000000000322,-1.114692159316666098
0.488000000000000322,-1.096868351969052524
0.489000000000000323,-1.079662923927515727
0.490000000000000324,-1.063064794777285771
0.491000000000000325,-1.047062908116705326
0.492000000000000326,-1.031646236498513503
0.493000000000000327,-1.016803786204892424
0.494000000000000328,-1.002524601858349129
0.495000000000000329,-0.988797770870599835
0.496000000000000330,-0.975612427731721077
0.497000000000000330,-0.962957758141821940
0.498000000000000331,-0.950823002987605803
0.499000000000000332,-0.939197462166195152
0.500000000000000333,-0.928070498258662946
0.501000000000000334,-0.917431540055710038
0.502000000000000335,-0.907270085938025828
0.503000000000000336,-0.897575707113836274
0.504000000000000337,-0.888338050716193983
0.505000000000000338,-0.879546842762607084
0.506000000000000338,-0.871191890979586048
0.507000000000000339,-0.863263087494711256
0.508000000000000340,-0.855750411398861210
0.509000000000000341,-0.848643931181218059
0.510000000000000342,-0.841933807039690230
0.511000000000000343,-0.835610293069378840
0.512000000000000344,-0.829663739331730987
0.513000000000000345,-0.824084593807016041
0.514000000000000346,-0.818863404232760717
0.515000000000000346,-0.813990819830729406
0.516000000000000347,-0.809457592925090674
0.517000000000000348,-0.805254580454386248
0.518000000000000349,-0.801372745379823392
0.519000000000000350,-0.797803157992511558
0.520000000000000351,-0.794536997122200495
0.521000000000000352,-0.791565551250001831
0.522000000000000353,-0.788880219527656967
0.523000000000000353,-0.786472512705801430
0.524000000000000354,-0.784334053973723466
0.525000000000000355,-0.782456579713039835
0.526000000000000356,-0.780831940167686422
0.527000000000000357,-0.779452100032667072
0.528000000000000358,-0.778309138963843461
0.529000000000000359,-0.777395252011165883
0.530000000000000360,-0.776702749977597251
0.531000000000000361,-0.776224059706028258
0.532000000000000361,-0.775951724296400358
0.533000000000000362,-0.775878403255266580
0.534000000000000363,-0.775996872579937547
0.535000000000000364,-0.776300024779368991
0.536000000000000365,-0.776780868833896299
0.537000000000000366,-0.777432530095877317
0.538000000000000367,-0.778248250133286690
0.539000000000000368,-0.779221386518282433
0.540000000000000369,-0.780345412562666096
0.541000000000000369,-0.781613917002223602
0.542000000000000370,-0.783020603631809808
0.543000000000000371,-0.784559290893032113
0.544000000000000372,-0.786223911416398691
0.545000000000000373,-0.788008511519671218
0.546000000000000374,-0.789907250664210303
0.547000000000000375,-0.791914400871016388
0.548000000000000376,-0.794024346098165745
0.549000000000000377,-0.796231581581267056
0.550000000000000377,-0.798530713138548842
0.551000000000000378,-0.800916456442199554
0.552000000000000379,-0.803383636257422373
0.553000000000000380,-0.805927185650801348
0.554000000000000381,-0.808542145169369619
0.555000000000000382,-0.811223661991880229
0.556000000000000383,-0.813966989053633960
0.557000000000000384,-0.816767484146270428
0.558000000000000385,-0.819620608993834154
0.559000000000000385,-0.822521928306443884
0.560000000000000386,-0.825467108812785400
0.561000000000000387,-0.828451918272731347
0.562000000000000388,-0.831472224471238031
0.563000000000000389,-0.834523994194727670
0.564000000000000390,-0.837603292191068327
0.565000000000000391,-0.840706280114290494
0.566000000000000392,-0.843829215455100035
0.567000000000000393,-0.846968450458247979
0.568000000000000393,-0.850120431027769463
0.569000000000000394,-0.853281695621097569
0.570000000000000395,-0.856448874132985871
0.571000000000000396,-0.859618686770204143
0.572000000000000397,-0.862787942917905726
0.573000000000000398,-0.865953539998512212
0.574000000000000399,-0.869112462324024948
0.575000000000000400,-0.872261779942528515
0.576000000000000401,-0.875398647479720182
0.577000000000000401,-0.878520302976234624
0.578000000000000402,-0.881624066721503175
0.579000000000000403,-0.884707340084855742
0.580000000000000404,-0.887767604344603223
0.581000000000000405,-0.890802419515736355
0.582000000000000406,-0.893809423176912254
0.583000000000000407,-0.896786329297352802
0.584000000000000408,-0.899730927064258501
0.585000000000000409,-0.902641079711311578
0.586000000000000409,-0.905514723348868400
0.587000000000000410,-0.908349865796325817
0.588000000000000411,-0.911144585417231534
0.589000000000000412,-0.913897029957619011
0.590000000000000413,-0.916605415388032974
0.591000000000000414,-0.919268024749740897
0.592000000000000415,-0.921883207005545713
0.593000000000000416,-0.924449375895631364
0.594000000000000417,-0.926965008798858348
0.595000000000000417,-0.929428645599883141
0.596000000000000418,-0.931838887562479790
0.597000000000000419,-0.934194396209424127
0.598000000000000420,-0.936493892209272261
0.599000000000000421,-0.938736154270352285
0.600000000000000422,-0.940920018042297412
0.601000000000000423,-0.943044375025385073
0.602000000000000424,-0.945108171487978543
0.603000000000000425,-0.947110407392340092
0.604000000000000425,-0.949050135329042255
0.605000000000000426,-0.950926459460223583
0.606000000000000427,-0.952738534471947673
0.607000000000000428,-0.954485564535781705
0.608000000000000429,-0.956166802279937444
0.609000000000000430,-0.957781547769984143
0.610000000000000431,-0.959329147499485502
0.611000000000000432,-0.960808993390585231
