# Cu110_PRO-AC
# h[nm],U(h)[kJ/mol]
0.149999999999999994,116.028948888597057021
0.150999999999999995,111.077410557561663040
0.151999999999999996,107.055871401735629433
0.152999999999999997,103.228875040844243927
0.153999999999999998,99.375252849134724897
0.154999999999999999,95.488375733505620246
0.156000000000000000,91.626829472059597492
0.157000000000000001,87.848632181840301314
0.158000000000000002,84.189086889582782192
0.159000000000000002,80.659276234864421440
0.160000000000000003,77.252584500854155181
0.161000000000000004,73.952824225099405453
0.162000000000000005,70.741102039545410207
0.163000000000000006,67.600493701849742934
0.164000000000000007,64.518563225020386653
0.165000000000000008,61.488167894159801108
0.166000000000000009,58.507094998715864165
0.167000000000000010,55.577030834377772806
0.168000000000000010,52.702256716590682117
0.169000000000000011,49.888348800021432794
0.170000000000000012,47.141052330043237362
0.171000000000000013,44.465416181847572830
0.172000000000000014,41.865211901952321227
0.173000000000000015,39.342620729097824039
0.174000000000000016,36.898148375285515499
0.175000000000000017,34.530716500594436980
0.176000000000000018,32.237877966070975333
0.177000000000000018,30.016106879604102176
0.178000000000000019,27.861121650825047880
0.179000000000000020,25.768207900688935297
0.180000000000000021,23.732516860339899267
0.181000000000000022,21.749323033853869447
0.182000000000000023,19.814231934000162028
0.183000000000000024,17.923334428036824306
0.184000000000000025,16.073308625822274820
0.185000000000000026,14.261473391423644230
0.186000000000000026,12.485799612632479949
0.187000000000000027,10.744886501003929169
0.188000000000000028,9.037910604977861695
0.189000000000000029,7.364555077769194824
0.190000000000000030,5.724926209020294365
0.191000000000000031,4.119463440676016219
0.192000000000000032,2.548848154776298891
0.193000000000000033,1.013915531811986570
0.194000000000000034,-0.484427200712523542
0.195000000000000034,-1.945273731432996644
0.196000000000000035,-3.367781274592835050
0.197000000000000036,-4.751221985741873155
0.198000000000000037,-6.095022953290944123
0.199000000000000038,-7.398795029110513788
0.200000000000000039,-8.662351143834307265
0.201000000000000040,-9.885715032760822751
0.202000000000000041,-11.069121487422055594
0.203000000000000042,-12.213009358389609105
0.204000000000000042,-13.318008579416684256
0.205000000000000043,-14.384922473945291443
0.206000000000000044,-15.414706553959224067
0.207000000000000045,-16.408444938685530445
0.208000000000000046,-17.367325416080053202
0.209000000000000047,-18.292614051424589405
0.210000000000000048,-19.185630121478133958
0.211000000000000049,-20.047722024997817414
0.212000000000000050,-20.880244695476619654
0.213000000000000050,-21.684538922994420318
0.214000000000000051,-22.461912881612541071
0.215000000000000052,-23.213626058429763788
0.216000000000000053,-23.940875691275810055
0.217000000000000054,-24.644785744513580283
0.218000000000000055,-25.326398386582869904
0.219000000000000056,-25.986667878426128908
0.220000000000000057,-26.626456738223616583
0.221000000000000058,-27.246534014155685099
0.222000000000000058,-27.847575472333755187
0.223000000000000059,-28.430165490623117819
0.224000000000000060,-28.994800439841412754
0.225000000000000061,-29.541893330763695502
0.226000000000000062,-30.071779507540536969
0.227000000000000063,-30.584723174630596532
0.228000000000000064,-31.080924554313366315
0.229000000000000065,-31.560527484508448026
0.230000000000000066,-32.023627281278770340
0.231000000000000066,-32.470278706422185167
0.232000000000000067,-32.900503897409876686
0.233000000000000068,-33.314300134148915333
0.234000000000000069,-33.711647334232807793
0.235000000000000070,-34.092515185173638770
0.236000000000000071,-34.456869838316023902
0.237000000000000072,-34.804680104512996763
0.238000000000000073,-35.135923106035825469
0.239000000000000073,-35.450589352484186634
0.240000000000000074,-35.748687220589019375
0.241000000000000075,-36.030246828713615059
0.242000000000000076,-36.295323306552525366
0.243000000000000077,-36.543999469013627390
0.244000000000000078,-36.776387910578563378
0.245000000000000079,-36.992632542617421620
0.246000000000000080,-37.192909601245311535
0.247000000000000081,-37.377428157419537058
0.248000000000000081,-37.546430164158621778
0.249000000000000082,-37.700190078098742674
0.250000000000000111,-37.839014094167318092
0.251000000000000112,-37.963239033027377900
0.252000000000000113,-38.073230921210651445
0.253000000000000114,-38.169383303583074962
0.254000000000000115,-38.252115327054681870
0.255000000000000115,-38.321869633317206194
0.256000000000000116,-38.379110096939214714
0.257000000000000117,-38.424319443426540488
0.258000000000000118,-38.457996779921288066
0.259000000000000119,-38.480655069118043343
0.260000000000000120,-38.492818574765038875
0.261000000000000121,-38.495020304832145541
0.262000000000000122,-38.487799476104335383
0.263000000000000123,-38.471699021627891568
0.264000000000000123,-38.447263160127995718
0.265000000000000124,-38.415035044250608109
0.266000000000000125,-38.375554502281616465
0.267000000000000126,-38.329355885876054799
0.268000000000000127,-38.276966034305623054
0.269000000000000128,-38.218902363811423584
0.270000000000000129,-38.155671088841572214
0.271000000000000130,-38.087765580263273080
0.272000000000000131,-38.015664864071581519
0.273000000000000131,-37.939832262673043317
0.274000000000000132,-37.860714179501307797
0.275000000000000133,-37.778739026525549605
0.276000000000000134,-37.694316293134093598
0.277000000000000135,-37.607835753916468491
0.278000000000000136,-37.519666812019536906
0.279000000000000137,-37.430157974015344280
0.280000000000000138,-37.339636451582478571
0.281000000000000139,-37.248407884765398990
0.282000000000000139,-37.156756181129900085
0.283000000000000140,-37.064943464773264736
0.284000000000000141,-36.973210128866455193
0.285000000000000142,-36.881774985199562877
0.286000000000000143,-36.790835504061803363
0.287000000000000144,-36.700568137709659311
0.288000000000000145,-36.611128720655003121
0.289000000000000146,-36.522652940032571678
0.290000000000000147,-36.435256869379323064
0.291000000000000147,-36.349037559270342967
0.292000000000000148,-36.264073678403455858
0.293000000000000149,-36.180426198900910606
0.294000000000000150,-36.098139119800158880
0.295000000000000151,-36.017240222929572724
0.296000000000000152,-35.937741855607256980
0.297000000000000153,-35.859641734857703455
0.298000000000000154,-35.782923768108489071
0.299000000000000155,-35.707558885605330090
0.300000000000000155,-35.633505880064447524
0.301000000000000156,-35.560712249366034143
0.302000000000000157,-35.489115038377271105
0.303000000000000158,-35.418641676277374586
0.304000000000000159,-35.349210806038414034
0.305000000000000160,-35.280733102991902683
0.306000000000000161,-35.213112079682204580
0.307000000000000162,-35.146244874472351682
0.308000000000000163,-35.080023021622722013
0.309000000000000163,-35.014333200811947222
0.310000000000000164,-34.949057964306213364
0.311000000000000165,-34.884076440211870818
0.312000000000000166,-34.819265010463908538
0.313000000000000167,-34.754497962409580225
0.314000000000000168,-34.689648113043077160
0.315000000000000169,-34.624587405131897810
0.316000000000000170,-34.559187474650244098
0.317000000000000171,-34.493320189097048001
0.318000000000000171,-34.426858156429389624
0.319000000000000172,-34.359675204482975630
0.320000000000000173,-34.291646830882129393
0.321000000000000174,-34.222650623563112049
0.322000000000000175,-34.152566652144109582
0.323000000000000176,-34.081277830477326063
0.324000000000000177,-34.008670250809103663
0.325000000000000178,-33.934633490057123595
0.326000000000000179,-33.859060888787709587
0.327000000000000179,-33.781849803541312838
0.328000000000000180,-33.702901833212855820
0.329000000000000181,-33.622123020243506630
0.330000000000000182,-33.539424027423613950
0.331000000000000183,-33.454720291143978272
0.332000000000000184,-33.367932151961937848
0.333000000000000185,-33.278984963374419692
0.334000000000000186,-33.187809179708423812
0.335000000000000187,-33.094340424053584115
0.336000000000000187,-32.998519537171134175
0.337000000000000188,-32.900292608317677434
0.338000000000000189,-32.799610988923781463
0.339000000000000190,-32.696431290064445818
0.340000000000000191,-32.590715364651444474
0.341000000000000192,-32.482430275269891240
0.342000000000000193,-32.371548248567485473
0.343000000000000194,-32.258046617091977737
0.344000000000000195,-32.141907749454283305
0.345000000000000195,-32.023118969676914958
0.346000000000000196,-31.901672466566463271
0.347000000000000197,-31.777565193926687215
0.348000000000000198,-31.650798762405962350
0.349000000000000199,-31.521379323747840573
0.350000000000000200,-31.389317448188755577
0.351000000000000201,-31.254627995720262845
0.352000000000000202,-31.117329981906777903
0.353000000000000203,-30.977446438922839889
0.354000000000000203,-30.835004272446081330
0.355000000000000204,-30.690034115014903193
0.356000000000000205,-30.542570176431929951
0.357000000000000206,-30.392650091767176690
0.358000000000000207,-30.240314767486410119
0.359000000000000208,-30.085608226204385574
0.360000000000000209,-29.928577450534454840
0.361000000000000210,-29.769272226480392618
0.362000000000000210,-29.607744986789576558
0.363000000000000211,-29.444050654661662492
0.364000000000000212,-29.278246488181508767
0.365000000000000213,-29.110391925820771064
0.366000000000000214,-28.940548433328892486
0.367000000000000215,-28.768779352311060649
0.368000000000000216,-28.595149750768182884
0.369000000000000217,-28.419726275852450925
0.370000000000000218,-28.242577009070902960
0.371000000000000218,-28.063771324149211495
0.372000000000000219,-27.883379747748467281
0.373000000000000220,-27.701473823209056491
0.374000000000000221,-27.518125977477872368
0.375000000000000222,-27.333409391357445628
0.376000000000000223,-27.147397873199913931
0.377000000000000224,-26.960165736152468696
0.378000000000000225,-26.771787679046212816
0.379000000000000226,-26.582338671006130681
0.380000000000000226,-26.391893839846744640
0.381000000000000227,-26.200528364304499718
0.382000000000000228,-26.008317370146833980
0.383000000000000229,-25.815335830185937027
0.384000000000000230,-25.621658468214349114
0.385000000000000231,-25.427359666870383847
0.386000000000000232,-25.232513379430777434
0.387000000000000233,-25.037193045520204748
0.388000000000000234,-24.841471510718317717
0.389000000000000234,-24.645420950038037233
0.390000000000000235,-24.449112795240957041
0.391000000000000236,-24.252617665950150894
0.392000000000000237,-24.056005304513547571
0.393000000000000238,-23.859344514566704021
0.394000000000000239,-23.662703103237539892
0.395000000000000240,-23.466147826932132858
0.396000000000000241,-23.269744340635700297
0.397000000000000242,-23.073557150659429027
0.398000000000000242,-22.877649570760759445
0.399000000000000243,-22.682083681561227451
0.400000000000000244,-22.486920293183622732
0.401000000000000245,-22.292218911028189865
0.402000000000000246,-22.098037704605314246
0.403000000000000247,-21.904433479340418955
0.404000000000000248,-21.711461651265967276
0.405000000000000249,-21.519176224513859808
0.406000000000000250,-21.327629771521003477
0.407000000000000250,-21.136873415860112146
0.408000000000000251,-20.946956817607450319
0.409000000000000252,-20.757928161159348690
0.410000000000000253,-20.569834145408833592
0.411000000000000254,-20.382719976194660916
0.412000000000000255,-20.196629360934760911
0.413000000000000256,-20.011604505357347250
0.414000000000000257,-19.827686112242925986
0.415000000000000258,-19.644913382092120457
0.416000000000000258,-19.463324015634448472
0.417000000000000259,-19.282954218094786825
0.418000000000000260,-19.103838705135320453
0.419000000000000261,-18.926010710391835801
0.420000000000000262,-18.749501994525086701
0.421000000000000263,-18.574342855708852795
0.422000000000000264,-18.400562141478328471
0.423000000000000265,-18.228187261863574520
0.424000000000000266,-18.057244203735059784
0.425000000000000266,-17.887757546289169142
0.426000000000000267,-17.719750477604055305
0.427000000000000268,-17.553244812197451807
0.428000000000000269,-17.388261009520043388
0.429000000000000270,-17.224818193319855197
0.430000000000000271,-17.062934171814777784
0.431000000000000272,-16.902625458612241971
0.432000000000000273,-16.743907294317018852
0.433000000000000274,-16.586793668769736598
0.434000000000000274,-16.431297343860727267
0.435000000000000275,-16.277429876865589620
0.436000000000000276,-16.125201644250729771
0.437000000000000277,-15.974621865898715356
0.438000000000000278,-15.825698629705545528
0.439000000000000279,-15.678438916503329992
0.440000000000000280,-15.532848625263667941
0.441000000000000281,-15.388932598539048158
0.442000000000000282,-15.246694648100980629
0.443000000000000282,-15.106137580735467196
0.444000000000000283,-14.967263224158006807
0.445000000000000284,-14.830072453012054012
0.446000000000000285,-14.694565214916170959
0.447000000000000286,-14.560740556527344225
0.448000000000000287,-14.428596649588509848
0.449000000000000288,-14.298130816930918030
0.450000000000000289,-14.169339558402517909
0.451000000000000290,-14.042218576695578491
0.452000000000000290,-13.916762803048001729
0.453000000000000291,-13.792966422794009418
0.454000000000000292,-13.670822900741494976
0.455000000000000293,-13.550325006354324131
0.456000000000000294,-13.431464838719524124
0.457000000000000295,-13.314233851280032894
0.458000000000000296,-13.198622876315415198
0.459000000000000297,-13.084622149153663173
0.460000000000000298,-12.972221332098536450
0.461000000000000298,-12.861409538057966273
0.462000000000000299,-12.752175353860161877
0.463000000000000300,-12.644506863244714623
0.464000000000000301,-12.538391669517571003
0.465000000000000302,-12.433816917859177309
0.466000000000000303,-12.330769317276224939
0.467000000000000304,-12.229235162188258457
0.468000000000000305,-12.129200353641396148
0.469000000000000306,-12.030650420141860479
0.470000000000000306,-11.933570538103348113
0.471000000000000307,-11.837945551902340213
0.472000000000000308,-11.743759993536915687
0.473000000000000309,-11.650998101884571412
0.474000000000000310,-11.559643841555899968
0.475000000000000311,-11.469680921340955848
0.476000000000000312,-11.381092812246521362
0.477000000000000313,-11.293862765121991387
0.478000000000000314,-11.207973827873328077
0.479000000000000314,-11.123408862264184904
0.480000000000000315,-11.040150560304084593
0.481000000000000316,-10.958181460224196258
0.482000000000000317,-10.877483962041329946
0.483000000000000318,-10.798040342711480832
0.484000000000000319,-10.719832770874521799
0.485000000000000320,-10.642843321192129835
0.486000000000000321,-10.567053988281184473
0.487000000000000322,-10.492446700245444902
0.488000000000000322,-10.419003331808443846
0.489000000000000323,-10.346705717051046136
0.490000000000000324,-10.275535661757082551
0.491000000000000325,-10.205474955371082402
0.492000000000000326,-10.136505382572048362
0.493000000000000327,-10.068608734467744625
0.494000000000000328,-10.001766819413864695
0.495000000000000329,-9.935961473462963767
0.496000000000000330,-9.871174570447907470
0.497000000000000330,-9.807388031705011500
0.498000000000000331,-9.744583835441984476
0.499000000000000332,-9.682744025756143458
0.500000000000000333,-9.621850721308243592
0.501000000000000334,-9.561886123657590275
0.502000000000000335,-9.502832525264079067
0.503000000000000336,-9.444672317162961406
0.504000000000000337,-9.387387996318123484
0.505000000000000338,-9.330962172659866383
0.506000000000000338,-9.275377575813092079
0.507000000000000339,-9.220617061521945601
0.508000000000000340,-9.166663617776936945
0.509000000000000341,-9.113500370650685412
0.510000000000000342,-9.061110589848333063
0.511000000000000343,-9.009477693978734436
0.512000000000000344,-8.958585255552625526
0.513000000000000345,-8.908417005713809900
0.514000000000000346,-8.858956838709543646
0.515000000000000346,-8.810188816106180099
0.516000000000000347,-8.762097170756133480
0.517000000000000348,-8.714666310522385828
0.518000000000000349,-8.667880821766233979
0.519000000000000350,-8.621725472604676810
0.520000000000000351,-8.576185215943045392
0.521000000000000352,-8.531245192289013346
0.522000000000000353,-8.486890732353717937
0.523000000000000353,-8.443107359445848559
0.524000000000000354,-8.399880791664481094
0.525000000000000355,-8.357196943896274988
0.526000000000000356,-8.315041929622722705
0.527000000000000357,-8.273402062543027569
0.528000000000000358,-8.232263858018017189
0.529000000000000359,-8.191614034340643613
0.530000000000000360,-8.151439513838321105
0.531000000000000361,-8.111727423812430615
0.532000000000000361,-8.072465097320208116
0.533000000000000362,-8.033640073804065196
0.534000000000000363,-7.995240099573516446
0.535000000000000364,-7.957253128144536447
0.536000000000000365,-7.919667320441350356
0.537000000000000366,-7.882471044865371645
0.538000000000000367,-7.845652877236055645
0.539000000000000368,-7.809201600608297156
0.540000000000000369,-7.773106204970874344
0.541000000000000369,-7.737355886830466822
0.542000000000000370,-7.701940048685585793
0.543000000000000371,-7.666848298394675965
0.544000000000000372,-7.632070448442692445
0.545000000000000373,-7.597596515110140558
0.546000000000000374,-7.563416717548713919
0.547000000000000375,-7.529521476767390809
0.548000000000000376,-7.495901414532971430
0.549000000000000377,-7.462547352188657612
0.550000000000000377,-7.429450309394482588
0.551000000000000378,-7.396601502793193283
0.552000000000000379,-7.363992344605032159
0.553000000000000380,-7.331614441154902018
0.554000000000000381,-7.299459591335249797
0.555000000000000382,-7.267519785007986677
0.556000000000000383,-7.235787201348474085
0.557000000000000384,-7.204254207134939136
0.558000000000000385,-7.172913354986064860
0.559000000000000385,-7.141757381549927786
0.560000000000000386,-7.110779205646977630
0.561000000000000387,-7.079971926369999835
0.562000000000000388,-7.049328821143644674
0.563000000000000389,-7.018843343746240748
0.564000000000000390,-6.988509122296418852
0.565000000000000391,-6.958319957207061535
0.566000000000000392,-6.928269819108956895
0.567000000000000393,-6.898352846746576006
0.568000000000000393,-6.868563344848126917
0.569000000000000394,-6.838895781972207821
0.570000000000000395,-6.809344788333180354
0.571000000000000396,-6.779905153607235668
0.572000000000000397,-6.750571824721292913
0.573000000000000398,-6.721339903626573964
0.574000000000000399,-6.692204645058795975
0.575000000000000400,-6.663161454286745666
0.576000000000000401,-6.634205884850996604
0.577000000000000401,-6.605333636294543176
0.578000000000000402,-6.576540551886859376
0.579000000000000403,-6.547822616343035307
0.580000000000000404,-6.519175953539542157
0.581000000000000405,-6.490596824228023642
0.582000000000000406,-6.462081623748548331
0.583000000000000407,-6.433626879743707505
0.584000000000000408,-6.405229249874851760
0.585000000000000409,-6.376885519541707126
0.586000000000000409,-6.348592599606597275
0.587000000000000410,-6.320347524124450445
0.588000000000000411,-6.292147448079639105
0.589000000000000412,-6.263989645130807027
0.590000000000000413,-6.235871505364611878
0.591000000000000414,-6.207790533059452720
0.592000000000000415,-6.179744344460052830
0.593000000000000416,-6.151730665563783340
0.594000000000000417,-6.123747329919650539
0.595000000000000417,-6.095792276440725743
0.596000000000000418,-6.067863547230684773
0.597000000000000419,-6.039959285425443802
0.598000000000000420,-6.012077733050286810
0.599000000000000421,-5.984217228893404794
0.600000000000000422,-5.956376206396316597
0.601000000000000423,-5.928553191561848124
0.602000000000000424,-5.900746800880186882
0.603000000000000425,-5.872955739273577613
0.604000000000000425,-5.845178798060127079
0.605000000000000426,-5.817414852937212721
0.606000000000000427,-5.789662861984956166
