# Cu110_HIDSCA-JS
# h[nm],U(h)[kJ/mol]
0.149999999999999994,113.521924618986048472
0.150999999999999995,109.367755572002039344
0.151999999999999996,105.912052520406035683
0.152999999999999997,102.653446536178961424
0.153999999999999998,99.429211271907064429
0.154999999999999999,96.220804837022768652
0.156000000000000000,93.056431773427220833
0.157000000000000001,89.967525880435132990
0.158000000000000002,86.973468265457341886
0.159000000000000002,84.079753751587190891
0.160000000000000003,81.281493506636792290
0.161000000000000004,78.568116825562498207
0.162000000000000005,75.927414773354669819
0.163000000000000006,73.348306941635215139
0.164000000000000007,70.822329846252131347
0.165000000000000008,68.344106479140521060
0.166000000000000009,65.911124773074249106
0.167000000000000010,63.523126296022347503
0.168000000000000010,61.181341836531586864
0.169000000000000011,58.887738309399750847
0.170000000000000012,56.644376629977578830
0.171000000000000013,54.452928836400907642
0.172000000000000014,52.314365773778263247
0.173000000000000015,50.228802616509348411
0.174000000000000016,48.195475920529148084
0.175000000000000017,46.212820113770604280
0.176000000000000018,44.278610936110155194
0.177000000000000018,42.390146330137511654
0.178000000000000019,40.544440117362434250
0.179000000000000020,38.738409351227495847
0.180000000000000021,36.969041759427483385
0.181000000000000022,35.233534701795733213
0.182000000000000023,33.529401321682641424
0.183000000000000024,31.854542959072695396
0.184000000000000025,30.207289428364809680
0.185000000000000026,28.586410513949253698
0.186000000000000026,26.991103109562413209
0.187000000000000027,25.420958944853317973
0.188000000000000028,23.875917927161243171
0.189000000000000029,22.356211892196149904
0.190000000000000030,20.862303104518154839
0.191000000000000031,19.394821261868223417
0.192000000000000032,17.954502104606518742
0.193000000000000033,16.542130065355628687
0.194000000000000034,15.158486753090596011
0.195000000000000034,13.804306477022526778
0.196000000000000035,12.480239495405685446
0.197000000000000036,11.186823231594354766
0.198000000000000037,9.924461336879128126
0.199000000000000038,8.693410194887736253
0.200000000000000039,7.493772250508753174
0.201000000000000040,6.325495400193745787
0.202000000000000041,5.188377591764281149
0.203000000000000042,4.082075741682997361
0.204000000000000042,3.006118077382482490
0.205000000000000043,1.959919043357758905
0.206000000000000044,0.942795964656594210
0.207000000000000045,-0.046013266678572598
0.208000000000000046,-1.007332133690719722
0.209000000000000047,-1.942027627578841065
0.210000000000000048,-2.850993043327902932
0.211000000000000049,-3.735131819977621781
0.212000000000000050,-4.595342722087761622
0.213000000000000050,-5.432506579276823899
0.214000000000000051,-6.247474728178375791
0.215000000000000052,-7.041059236573500080
0.216000000000000053,-7.814024933216749957
0.217000000000000054,-8.567083219039906439
0.218000000000000055,-9.300887595794989693
0.219000000000000056,-10.016030816388877156
0.220000000000000057,-10.713043536633914954
0.221000000000000058,-11.392394330246244039
0.222000000000000058,-12.054490916988232385
0.223000000000000059,-12.699682447139593933
0.224000000000000060,-13.328262683285540646
0.225000000000000061,-13.940473922024446907
0.226000000000000062,-14.536511502956576791
0.227000000000000063,-15.116528759600607046
0.228000000000000064,-15.680642276123510470
0.229000000000000065,-16.228937324453347912
0.230000000000000066,-16.761473368012300256
0.231000000000000066,-17.278289530568208932
0.232000000000000067,-17.779409941208673018
0.233000000000000068,-18.264848878909987206
0.234000000000000069,-18.734615652361988225
0.235000000000000070,-19.188719162429013210
0.236000000000000071,-19.627172105725286144
0.237000000000000072,-20.049994788149021474
0.238000000000000073,-20.457218526770880374
0.239000000000000073,-20.848888627159027465
0.240000000000000074,-21.225066931020229788
0.241000000000000075,-21.585833935934505945
0.242000000000000076,-21.931290494974266636
0.243000000000000077,-22.261559109152564417
0.244000000000000078,-22.576784829975004243
0.245000000000000079,-22.877135792921627910
0.246000000000000080,-23.162803405509460930
0.247000000000000081,-23.434002215741720931
0.248000000000000081,-23.690969488289248090
0.249000000000000082,-23.933964516738292616
0.250000000000000111,-24.163267700731687171
0.251000000000000112,-24.379179416887819087
0.252000000000000113,-24.582018712060040855
0.253000000000000114,-24.772121846849582738
0.254000000000000115,-24.949840716363059556
0.255000000000000115,-25.115541174053582552
0.256000000000000116,-25.269601283150734616
0.257000000000000117,-25.412409518706851941
0.258000000000000118,-25.544362941702750902
0.259000000000000119,-25.665865364998524001
0.260000000000000120,-25.777325529213726441
0.261000000000000121,-25.879155304900855583
0.262000000000000122,-25.971767935661340232
0.263000000000000123,-26.055576335161511281
0.264000000000000123,-26.130991449355839507
0.265000000000000124,-26.198420693628047928
0.266000000000000125,-26.258266473030516863
0.267000000000000126,-26.310924792346590095
0.268000000000000127,-26.356783961326755161
0.269000000000000128,-26.396223399162430212
0.270000000000000129,-26.429612541064557263
0.271000000000000130,-26.457309848710046651
0.272000000000000131,-26.479661925307688364
0.273000000000000131,-26.497002735116488736
0.274000000000000132,-26.509652926421846786
0.275000000000000133,-26.517919256236801573
0.276000000000000134,-26.522094114343314430
0.277000000000000135,-26.522455143718918436
0.278000000000000136,-26.519264953904375659
0.279000000000000137,-26.512770923451977723
0.280000000000000138,-26.503205087249568805
0.281000000000000139,-26.490784104236404062
0.282000000000000139,-26.475709300809135982
0.283000000000000140,-26.458166785055759362
0.284000000000000141,-26.438327626845978813
0.285000000000000142,-26.416348098745448425
0.286000000000000143,-26.392369972702731218
0.287000000000000144,-26.366520867478197232
0.288000000000000145,-26.338914641838776731
0.289000000000000146,-26.309651828627874437
0.290000000000000147,-26.278820104931575941
0.291000000000000147,-26.246494793697412007
0.292000000000000148,-26.212739392317160991
0.293000000000000149,-26.177606123855923670
0.294000000000000150,-26.141136506795380257
0.295000000000000151,-26.103361939354954302
0.296000000000000152,-26.064304294659002892
0.297000000000000153,-26.023976523228860458
0.298000000000000154,-25.982383259493111893
0.299000000000000155,-25.939521429226395810
0.300000000000000155,-25.895380855044209056
0.301000000000000156,-25.849944857297543876
0.302000000000000157,-25.803190847924742712
0.303000000000000158,-25.755090915028869603
0.304000000000000159,-25.705612396153753707
0.305000000000000160,-25.654718438432666971
0.306000000000000161,-25.602368543977284787
0.307000000000000162,-25.548519099061774540
0.308000000000000163,-25.493123885836446618
0.309000000000000163,-25.436134575477417741
0.310000000000000164,-25.377501201842555645
0.311000000000000165,-25.317172614859181579
0.312000000000000166,-25.255096913016547688
0.313000000000000167,-25.191221854473884179
0.314000000000000168,-25.125495246425053608
0.315000000000000169,-25.057865312482000775
0.316000000000000170,-24.988281037952180696
0.317000000000000171,-24.916692492989430008
0.318000000000000171,-24.843051133694306287
0.319000000000000172,-24.767310081328488991
0.320000000000000173,-24.689424379888237127
0.321000000000000174,-24.609351232355571426
0.322000000000000175,-24.527050216011598849
0.323000000000000176,-24.442483477256025992
0.324000000000000177,-24.355615906429171957
0.325000000000000178,-24.266415293179189661
0.326000000000000179,-24.174852462958053678
0.327000000000000179,-24.080901395263769160
0.328000000000000180,-23.984539324276301642
0.329000000000000181,-23.885746822559092095
0.330000000000000182,-23.784507868517035689
0.331000000000000183,-23.680809898317939144
0.332000000000000184,-23.574643842994863263
0.333000000000000185,-23.466004151454789906
0.334000000000000186,-23.354888800122267867
0.335000000000000187,-23.241299289947736639
0.336000000000000187,-23.125240631507857358
0.337000000000000188,-23.006721318919666430
0.338000000000000189,-22.885753293283453758
0.339000000000000190,-22.762351896359138692
0.340000000000000191,-22.636535815168979724
0.341000000000000192,-22.508327018206600201
0.342000000000000193,-22.377750683916289631
0.343000000000000194,-22.244835122090943713
0.344000000000000195,-22.109611688818322506
0.345000000000000195,-21.972114695587613653
0.346000000000000196,-21.832381313147735113
0.347000000000000197,-21.690451470688980606
0.348000000000000198,-21.546367750898657079
0.349000000000000199,-21.400175281419652862
0.350000000000000200,-21.251921623219644175
0.351000000000000201,-21.101656656356258424
0.352000000000000202,-20.949432463601628029
0.353000000000000203,-20.795303212367901580
0.354000000000000203,-20.639325035352811710
0.355000000000000204,-20.481555910302830625
0.356000000000000205,-20.322055539269715752
0.357000000000000206,-20.160885227714818058
0.358000000000000207,-19.998107763794234160
0.359000000000000208,-19.833787298137732336
0.360000000000000209,-19.667989224413378935
0.361000000000000210,-19.500780060950738459
0.362000000000000210,-19.332227333675497505
0.363000000000000211,-19.162399460590197720
0.364000000000000212,-18.991365638017132511
0.365000000000000213,-18.819195728801947354
0.366000000000000214,-18.645960152659512232
0.367000000000000215,-18.471729778826915691
0.368000000000000216,-18.296575821172940124
0.369000000000000217,-18.120569735897777974
0.370000000000000218,-17.943783121942527004
0.371000000000000218,-17.766287624213624952
0.372000000000000219,-17.588154839714320588
0.373000000000000220,-17.409456226662491929
0.374000000000000221,-17.230263016661908182
0.375000000000000222,-17.050646129982599319
0.376000000000000223,-16.870676093994930511
0.377000000000000224,-16.690422964792041682
0.378000000000000225,-16.509956252025027368
0.379000000000000226,-16.329344846966414195
0.380000000000000226,-16.148656953808959713
0.381000000000000227,-15.967960024198074365
0.382000000000000228,-15.787320694989579906
0.383000000000000229,-15.606804729216474215
0.384000000000000230,-15.426476960242428760
0.385000000000000231,-15.246401239073563261
0.386000000000000232,-15.066640384794089513
0.387000000000000233,-14.887256138086673474
0.388000000000000234,-14.708309117793124443
0.389000000000000234,-14.529858780467318269
0.390000000000000235,-14.351963382867387153
0.391000000000000236,-14.174679947331696894
0.392000000000000237,-13.998064229978851358
0.393000000000000238,-13.822170691670004672
0.394000000000000239,-13.647052471668501994
0.395000000000000240,-13.472761363930072065
0.396000000000000241,-13.299347795954716389
0.397000000000000242,-13.126860810129567625
0.398000000000000242,-12.955348047491082042
0.399000000000000243,-12.784855733833300206
0.400000000000000244,-12.615428668088039643
0.401000000000000245,-12.447110212902781967
0.402000000000000246,-12.279942287340727347
0.403000000000000247,-12.113965361627599293
0.404000000000000248,-11.949218453869930201
0.405000000000000249,-11.785739128669160181
0.406000000000000250,-11.623563497556357760
0.407000000000000250,-11.462726221172840013
0.408000000000000251,-11.303260513122243225
0.409000000000000252,-11.145198145420545544
0.410000000000000253,-10.988569455470971192
0.411000000000000254,-10.833403354491965231
0.412000000000000255,-10.679727337327042491
0.413000000000000256,-10.527567493566689194
0.414000000000000257,-10.376948519913289815
0.415000000000000258,-10.227893733721725056
0.416000000000000258,-10.080425087649134142
0.417000000000000259,-9.934563185348965320
0.418000000000000260,-9.790327298145728108
0.419000000000000261,-9.647735382628249923
0.420000000000000262,-9.506804099100911287
0.421000000000000263,-9.367548830833635876
0.422000000000000264,-9.229983704053069005
0.423000000000000265,-9.094121608618845443
0.424000000000000266,-8.959974219330721468
0.425000000000000266,-8.827552017813466989
0.426000000000000267,-8.696864314928433259
0.427000000000000268,-8.567919273662139901
0.428000000000000269,-8.440723932443841449
0.429000000000000270,-8.315284228845747805
0.430000000000000271,-8.191605023620974535
0.431000000000000272,-8.069690125036164119
0.432000000000000273,-7.949542313457061304
0.433000000000000274,-7.831163366147097626
0.434000000000000274,-7.714554082240388411
0.435000000000000275,-7.599714307852337924
0.436000000000000276,-7.486642961292348630
0.437000000000000277,-7.375338058344697245
0.438000000000000278,-7.265796737585186627
0.439000000000000279,-7.158015285702596486
0.440000000000000280,-7.051989162795240240
0.441000000000000281,-6.947713027614558889
0.442000000000000282,-6.845180762728975132
0.443000000000000282,-6.744385499582364218
0.444000000000000283,-6.645319643423211353
0.445000000000000284,-6.547974898081439399
0.446000000000000285,-6.452342290571200678
0.447000000000000286,-6.358412195499514752
0.448000000000000287,-6.266174359261132309
0.449000000000000288,-6.175617924001921111
0.450000000000000289,-6.086731451333525555
0.451000000000000290,-5.999502945783627084
0.452000000000000290,-5.913919877966913319
0.453000000000000291,-5.829969207462948333
0.454000000000000292,-5.747637405388266174
0.455000000000000293,-5.666910476650659945
0.456000000000000294,-5.587773981874993190
0.457000000000000295,-5.510213058990296453
0.458000000000000296,-5.434212444469166847
0.459000000000000297,-5.359756494211104005
0.460000000000000298,-5.286829204062212462
0.461000000000000298,-5.215414229964646431
0.462000000000000299,-5.145494907729735168
0.463000000000000300,-5.077054272429494475
0.464000000000000301,-5.010075077401980437
0.465000000000000302,-4.944539812866557860
0.466000000000000303,-4.880430724145722543
0.467000000000000304,-4.817729829490756899
0.468000000000000305,-4.756418937509246270
0.469000000000000306,-4.696479664192662717
0.470000000000000306,-4.637893449543153856
0.471000000000000307,-4.580641573798833299
0.472000000000000308,-4.524705173257642876
0.473000000000000309,-4.470065255700013118
0.474000000000000310,-4.416702715411263469
0.475000000000000311,-4.364598347804831135
0.476000000000000312,-4.313732863648100491
0.477000000000000313,-4.264086902892559650
0.478000000000000314,-4.215641048110797762
0.479000000000000314,-4.168375837542914297
0.480000000000000315,-4.122271777755194933
0.481000000000000316,-4.077309355914422895
0.482000000000000317,-4.033469051681188411
0.483000000000000318,-3.990731348726030969
0.484000000000000319,-3.949076745872308614
0.485000000000000320,-3.908485767870124583
0.486000000000000321,-3.868938975805543912
0.487000000000000322,-3.830416977149814439
0.488000000000000322,-3.792900435453276486
0.489000000000000323,-3.756370079688951868
0.490000000000000324,-3.720806713250786490
0.491000000000000325,-3.686191222611852059
0.492000000000000326,-3.652504585647683655
0.493000000000000327,-3.619727879630320722
0.494000000000000328,-3.587842288898483556
0.495000000000000329,-3.556829112209518140
0.496000000000000330,-3.526669769778794539
0.497000000000000330,-3.497345810012285394
0.498000000000000331,-3.468838915938168732
0.499000000000000332,-3.441130911343257992
0.500000000000000333,-3.414203766620170999
0.501000000000000334,-3.388039604331156252
0.502000000000000335,-3.362620704494484247
0.503000000000000336,-3.337929509599408817
0.504000000000000337,-3.313948629355588871
0.505000000000000338,-3.290660845182982630
0.506000000000000338,-3.268049114448142944
0.507000000000000339,-3.246096574452838723
0.508000000000000340,-3.224786546180949731
0.509000000000000341,-3.204102537809502049
0.510000000000000342,-3.184028247989745264
0.511000000000000343,-3.164547568904049868
0.512000000000000344,-3.145644589104475308
0.513000000000000345,-3.127303596138713893
0.514000000000000346,-3.109509078969160178
0.515000000000000346,-3.092245730190703590
0.516000000000000347,-3.075498448052876199
0.517000000000000348,-3.059252338291928552
0.518000000000000349,-3.043492715778225666
0.519000000000000350,-3.028205105984461909
0.520000000000000351,-3.013375246280040720
0.521000000000000352,-2.998989087056840752
0.522000000000000353,-2.985032792691661996
0.523000000000000353,-2.971492742350418048
0.524000000000000354,-2.958355530639229070
0.525000000000000355,-2.945607968107314178
0.526000000000000356,-2.933237081606659746
0.527000000000000357,-2.921230114513305054
0.528000000000000358,-2.909574526814938444
0.529000000000000359,-2.898257995069553505
0.530000000000000360,-2.887268412239714532
0.531000000000000361,-2.876593887406969863
0.532000000000000361,-2.866222745370811342
0.533000000000000362,-2.856143526136563970
0.534000000000000363,-2.846344984296451219
0.535000000000000364,-2.836816088307994477
0.536000000000000365,-2.827546019673879307
0.537000000000000366,-2.818524172027280894
0.538000000000000367,-2.809740150126558866
0.539000000000000368,-2.801183768763205961
0.540000000000000369,-2.792845051586758665
0.541000000000000369,-2.784714229850381084
0.542000000000000370,-2.776781741080727617
0.543000000000000371,-2.769038227675505670
0.544000000000000372,-2.761474535432313360
0.545000000000000373,-2.754081712011946070
0.546000000000000374,-2.746851005339538965
0.547000000000000375,-2.739773861946674494
0.548000000000000376,-2.732841925257601723
0.549000000000000377,-2.726047033822569521
0.550000000000000377,-2.719381219501173952
0.551000000000000378,-2.712836705598713483
0.552000000000000379,-2.706405904958199216
0.553000000000000380,-2.700081418010857437
0.554000000000000381,-2.693856030787681100
0.555000000000000382,-2.687722712894668575
0.556000000000000383,-2.681674615454177957
0.557000000000000384,-2.675705069014895798
0.558000000000000385,-2.669807581432702026
0.559000000000000385,-2.663975835724790464
0.560000000000000386,-2.658203687899171719
0.561000000000000387,-2.652485164761801073
0.562000000000000388,-2.646814461703361321
0.563000000000000389,-2.641185940467707383
0.564000000000000390,-2.635594126903969325
0.565000000000000391,-2.630033708704174078
0.566000000000000392,-2.624499533128224371
0.567000000000000393,-2.618986604718000599
0.568000000000000393,-2.613490083002289133
0.569000000000000394,-2.608005280194205078
0.570000000000000395,-2.602527658882689998
0.571000000000000396,-2.597052829719603828
0.572000000000000397,-2.591576549103951077
0.573000000000000398,-2.586094716864583809
0.574000000000000399,-2.580603373942846002
0.575000000000000400,-2.575098700076416058
0.576000000000000401,-2.569577011485653539
0.577000000000000401,-2.564034758563674021
0.578000000000000402,-2.558468523571320041
0.579000000000000403,-2.552875018338147228
0.580000000000000404,-2.547251081970544284
0.581000000000000405,-2.541593678567985570
0.582000000000000406,-2.535899894948427935
0.583000000000000407,-2.530166938383812347
0.584000000000000408,-2.524392134346570948
0.585000000000000409,-2.518572924267987290
0.586000000000000409,-2.512706863309288163
0.587000000000000410,-2.506791618146223755
0.588000000000000411,-2.500824964767880854
0.589000000000000412,-2.494804786290485410
0.590000000000000413,-2.488729070786825037
0.591000000000000414,-2.482595909131990464
0.592000000000000415,-2.476403492865999034
0.593000000000000416,-2.470150112073912663
0.594000000000000417,-2.463834153283992467
0.595000000000000417,-2.457454097384392799
0.596000000000000418,-2.451008517558887156
0.597000000000000419,-2.444496077242104271
0.598000000000000420,-2.437915528094662498
0.599000000000000421,-2.431265707998639503
0.600000000000000422,-2.424545539073732048
0.601000000000000423,-2.417754025714464738
0.602000000000000424,-2.410890252648759891
0.603000000000000425,-2.403953383018180734
0.604000000000000425,-2.396942656480114842
0.605000000000000426,-2.389857387332137595
0.606000000000000427,-2.382696962658838569
0.607000000000000428,-2.375460840501219195
0.608000000000000429,-2.368148548048988111
