# Cu110_PRO
# h[nm],U(h)[kJ/mol]
0.149999999999999994,137.378559411726087092
0.150999999999999995,131.247175071390245193
0.151999999999999996,126.268616051609342321
0.152999999999999997,121.576690242362928984
0.153999999999999998,116.868804757321868237
0.154999999999999999,112.101282702127790003
0.156000000000000000,107.327105652882480058
0.157000000000000001,102.616677971169039552
0.158000000000000002,98.024857230880911629
0.159000000000000002,93.582099321004250214
0.160000000000000003,89.296828705739670795
0.161000000000000004,85.161897173774690373
0.162000000000000005,81.161472853149959406
0.163000000000000006,77.276729399837151391
0.164000000000000007,73.489827340866483496
0.165000000000000008,69.786250453189438758
0.166000000000000009,66.155807604129478250
0.167000000000000010,62.592678065159432776
0.168000000000000010,59.094853919045689850
0.169000000000000011,55.663268946709514751
0.170000000000000012,52.300828677151443458
0.171000000000000013,49.011486370266084123
0.172000000000000014,45.799451364084234228
0.173000000000000015,42.668571384518713785
0.174000000000000016,39.621898429786028828
0.175000000000000017,36.661426841947083233
0.176000000000000018,33.787979907510120370
0.177000000000000018,31.001215579158163393
0.178000000000000019,28.299720739186902563
0.179000000000000020,25.681165239574379910
0.180000000000000021,23.142490517666754357
0.181000000000000022,20.680111987858587952
0.182000000000000023,18.290119009762001667
0.183000000000000024,15.968460613281848737
0.184000000000000025,13.711109070534870824
0.185000000000000026,11.514196717611946852
0.186000000000000026,9.374124106998568351
0.187000000000000027,7.287639633264380912
0.188000000000000028,5.251892275232952656
0.189000000000000029,3.264460111182253321
0.190000000000000030,1.323357871019198218
0.191000000000000031,-0.572972928380572899
0.192000000000000032,-2.425687686103275009
0.193000000000000033,-4.235572830446407089
0.194000000000000034,-6.003087190926402528
0.195000000000000034,-7.728407832403526356
0.196000000000000035,-9.411477950362145961
0.197000000000000036,-11.052054833711512316
0.198000000000000037,-12.649756298897154139
0.199000000000000038,-14.204104371507279225
0.200000000000000039,-15.714565329077927913
0.201000000000000040,-17.180585515835346655
0.202000000000000041,-18.601622594329530358
0.203000000000000042,-19.977172110436960395
0.204000000000000042,-21.306789418938432590
0.205000000000000043,-22.590107149885614746
0.206000000000000044,-23.826848495083499557
0.207000000000000045,-25.016836663414252939
0.208000000000000046,-26.160000897708492573
0.209000000000000047,-27.256379468620895778
0.210000000000000048,-28.306120066441600613
0.211000000000000049,-29.309478003596133533
0.212000000000000050,-30.266812622001179278
0.213000000000000050,-31.178582273281630677
0.214000000000000051,-32.045338208556614745
0.215000000000000052,-32.867717680102941813
0.216000000000000053,-33.646436521380877593
0.217000000000000054,-34.382281436001008501
0.218000000000000055,-35.076102191263586860
0.219000000000000056,-35.728803878694499474
0.220000000000000057,-36.341339373097682142
0.221000000000000058,-36.914702093399554883
0.222000000000000058,-37.449919143204368766
0.223000000000000059,-37.948044886578585988
0.224000000000000060,-38.410154995133687805
0.225000000000000061,-38.837340985882377709
0.226000000000000062,-39.230705255451276514
0.227000000000000063,-39.591356604858461310
0.228000000000000064,-39.920406239983719843
0.229000000000000065,-40.218964225849745731
0.230000000000000066,-40.488136367649758540
0.231000000000000066,-40.729021487875748164
0.232000000000000067,-40.942709066689225494
0.233000000000000068,-41.130277211625013933
0.234000000000000069,-41.292790922625094652
0.235000000000000070,-41.431300619086186998
0.236000000000000071,-41.546840896902629936
0.237000000000000072,-41.640429485254763620
0.238000000000000073,-41.713066374999158370
0.239000000000000073,-41.765733092851775154
0.240000000000000074,-41.799392098024959807
0.241000000000000075,-41.814986280502196792
0.242000000000000076,-41.813438542645947393
0.243000000000000077,-41.795651448282725937
0.244000000000000078,-41.762506925751452513
0.245000000000000079,-41.714866013606069828
0.246000000000000080,-41.653568639709419585
0.247000000000000081,-41.579433426325493883
0.248000000000000081,-41.493257515504026856
0.249000000000000082,-41.395816410551084630
0.250000000000000111,-41.287863830693105172
0.251000000000000112,-41.170131577173755488
0.252000000000000113,-41.043329409982703737
0.253000000000000114,-40.908144935207630510
0.254000000000000115,-40.765243503644157386
0.255000000000000115,-40.615268121796887613
0.256000000000000116,-40.458839376778158226
0.257000000000000117,-40.296555376868390397
0.258000000000000118,-40.128991709657185538
0.259000000000000119,-39.956701419751937010
0.260000000000000120,-39.780215008031092339
0.261000000000000121,-39.600040454344323848
0.262000000000000122,-39.416663265435168739
0.263000000000000123,-39.230546549689861990
0.264000000000000123,-39.042131120111470466
0.265000000000000124,-38.851835626688448144
0.266000000000000125,-38.660056719079456400
0.267000000000000126,-38.467169240277321762
0.268000000000000127,-38.273526451653495428
0.269000000000000128,-38.079460289521449567
0.270000000000000129,-37.885281653101088750
0.271000000000000130,-37.691280723518588047
0.272000000000000131,-37.497727313240105218
0.273000000000000131,-37.304871245116828504
0.274000000000000132,-37.112942760014320243
0.275000000000000133,-36.922152951812670096
0.276000000000000134,-36.732694228396482572
0.277000000000000135,-36.544740797105717434
0.278000000000000136,-36.358449172990951581
0.279000000000000137,-36.173958708108024496
0.280000000000000138,-35.991392139998836797
0.281000000000000139,-35.810856157435793534
0.282000000000000139,-35.632441981455585278
0.283000000000000140,-35.456225959675222725
0.284000000000000141,-35.282270171865114605
0.285000000000000142,-35.110623044753296540
0.286000000000000143,-34.941319974046528785
0.287000000000000144,-34.774383951680263749
0.288000000000000145,-34.609826196347384553
0.289000000000000146,-34.447646785403279068
0.290000000000000147,-34.287835286303895543
0.291000000000000147,-34.130371385798888184
0.292000000000000148,-33.975225515176425972
0.293000000000000149,-33.822359469935790344
0.294000000000000150,-33.671727022348882485
0.295000000000000151,-33.523274525461232543
0.296000000000000152,-33.376941507175025947
0.297000000000000153,-33.232661253151995595
0.298000000000000154,-33.090361377369404750
0.299000000000000155,-32.949964379260237024
0.300000000000000155,-32.811388186464846228
0.301000000000000156,-32.674546682318485580
0.302000000000000157,-32.539350217294057188
0.303000000000000158,-32.405706103713015409
0.304000000000000159,-32.273519093129607427
0.305000000000000160,-32.142691835881748830
0.306000000000000161,-32.013125322388916061
0.307000000000000162,-31.884719305860421912
0.308000000000000163,-31.757372706156665743
0.309000000000000163,-31.630983994623214528
0.310000000000000164,-31.505451559789044325
0.311000000000000165,-31.380674053889549668
0.312000000000000166,-31.256550720239495433
0.313000000000000167,-31.132981701541893926
0.314000000000000168,-31.009868329275235510
0.315000000000000169,-30.887113394354649643
0.316000000000000170,-30.764621399311106842
0.317000000000000171,-30.642298792277575359
0.318000000000000171,-30.520054183111938073
0.319000000000000172,-30.397798542024190738
0.320000000000000173,-30.275445381107914500
0.321000000000000174,-30.152910919207080553
0.322000000000000175,-30.030114230574803003
0.323000000000000176,-29.906977377804487617
0.324000000000000177,-29.783425529533253950
0.325000000000000178,-29.659387063434785148
0.326000000000000179,-29.534793655032707704
0.327000000000000179,-29.409580352876652398
0.328000000000000180,-29.283685640632182157
0.329000000000000181,-29.157051486641829996
0.330000000000000182,-29.029623381518138814
0.331000000000000183,-28.901350364331982234
0.332000000000000184,-28.772185037958685427
0.333000000000000185,-28.642083574142521485
0.334000000000000186,-28.511005708836638206
0.335000000000000187,-28.378914728369512233
0.336000000000000187,-28.245777446983101555
0.337000000000000188,-28.111564176278513116
0.338000000000000189,-27.976248687097051260
0.339000000000000190,-27.839808164353076592
0.340000000000000191,-27.702223155323952852
0.341000000000000192,-27.563477511891072425
0.342000000000000193,-27.423558327211459584
0.343000000000000194,-27.282455867287389140
0.344000000000000195,-27.140163497886316435
0.345000000000000195,-26.996677607249626618
0.346000000000000196,-26.851997525012940571
0.347000000000000197,-26.706125437746401019
0.348000000000000198,-26.559066301507236574
0.349000000000000199,-26.410827751781482675
0.350000000000000200,-26.261420011176319633
0.351000000000000201,-26.110855795208390617
0.352000000000000202,-25.959150216517919318
0.353000000000000203,-25.806320687823006921
0.354000000000000203,-25.652386823912742386
0.355000000000000204,-25.497370342962351941
0.356000000000000205,-25.341294967439004893
0.357000000000000206,-25.184186324851378203
0.358000000000000207,-25.026071848581619150
0.359000000000000208,-24.866980679024386802
0.360000000000000209,-24.706943565243030037
0.361000000000000210,-24.545992767339775753
0.362000000000000210,-24.384161959723012814
0.363000000000000211,-24.221486135442205523
0.364000000000000212,-24.058001511748173584
0.365000000000000213,-23.893745437024193734
0.366000000000000214,-23.728756299221863912
0.367000000000000215,-23.563073435923961085
0.368000000000000216,-23.396737046145961614
0.369000000000000217,-23.229788103976822811
0.370000000000000218,-23.062268274150117264
0.371000000000000218,-22.894219829626266005
0.372000000000000219,-22.725685571257770334
0.373000000000000220,-22.556708749600304031
0.374000000000000221,-22.387332988924036670
0.375000000000000222,-22.217602213471494110
0.376000000000000223,-22.047560576000542198
0.377000000000000224,-21.877252388644080838
0.378000000000000225,-21.706722056110635322
0.379000000000000226,-21.536014011243942434
0.380000000000000226,-21.365172652953493326
0.381000000000000227,-21.194242286521596697
0.382000000000000228,-21.023267066288163107
0.383000000000000229,-20.852290940708158473
0.384000000000000230,-20.681357599772603351
0.385000000000000231,-20.510510424779617722
0.386000000000000232,-20.339792440437271637
0.387000000000000233,-20.169246269276719374
0.388000000000000234,-19.998914088350328910
0.389000000000000234,-19.828837588186338792
0.390000000000000235,-19.659057933968227871
0.391000000000000236,-19.489615728904944092
0.392000000000000237,-19.320550979754706589
0.393000000000000238,-19.151903064463752457
0.394000000000000239,-18.983710701878582228
0.395000000000000240,-18.816011923489018187
0.396000000000000241,-18.648844047157403736
0.397000000000000242,-18.482243652787889943
0.398000000000000242,-18.316246559888863743
0.399000000000000243,-18.150887806979945083
0.400000000000000244,-17.986201632794351468
0.401000000000000245,-17.822221459227140627
0.402000000000000246,-17.658979875978310758
0.403000000000000247,-17.496508626839961664
0.404000000000000248,-17.334838597576382568
0.405000000000000249,-17.173999805345459890
0.406000000000000250,-17.014021389609830237
0.407000000000000250,-16.854931604486370844
0.408000000000000251,-16.696757812482438510
0.409000000000000252,-16.539526479568017692
0.410000000000000253,-16.383263171532579605
0.411000000000000254,-16.227992551576463143
0.412000000000000255,-16.073738379086691452
0.413000000000000256,-15.920523509547862773
0.414000000000000257,-15.768369895539185777
0.415000000000000258,-15.617298588769596535
0.416000000000000258,-15.467329743103551465
0.417000000000000259,-15.318482618530662620
0.418000000000000260,-15.170775586033531823
0.419000000000000261,-15.024226133308497211
0.420000000000000262,-14.878850871295497882
0.421000000000000263,-14.734665541473543016
0.422000000000000264,-14.591685023879687577
0.423000000000000265,-14.449923345810054442
0.424000000000000266,-14.309393691162799911
0.425000000000000266,-14.170108410383491560
0.426000000000000267,-14.032079030974657030
0.427000000000000268,-13.895316268532223347
0.428000000000000269,-13.759830038272605535
0.429000000000000270,-13.625629467015192731
0.430000000000000271,-13.492722905586088444
0.431000000000000272,-13.361117941609922610
0.432000000000000273,-13.230821412657661540
0.433000000000000274,-13.101839419719448543
0.434000000000000274,-12.974177340972218531
0.435000000000000275,-12.847839845813354032
0.436000000000000276,-12.722830909132245125
0.437000000000000277,-12.599153825792720696
0.438000000000000278,-12.476811225300535213
0.439000000000000279,-12.355805086630828882
0.440000000000000280,-12.236136753191450666
0.441000000000000281,-12.117806947899225634
0.442000000000000282,-12.000815788346951507
0.443000000000000282,-11.885162802039900498
0.444000000000000283,-11.770846941681615050
0.445000000000000284,-11.657866600489537490
0.446000000000000285,-11.546219627521868034
0.447000000000000286,-11.435903342998233967
0.448000000000000287,-11.326914553596983737
0.449000000000000288,-11.219249567713424298
0.450000000000000289,-11.112904210663538507
0.451000000000000290,-11.007873839818874018
0.452000000000000290,-10.904153359658899092
0.453000000000000291,-10.801737236727845470
0.454000000000000292,-10.700619514483936001
0.455000000000000293,-10.600793828029280164
0.456000000000000294,-10.502253418709837973
0.457000000000000295,-10.404991148575076565
0.458000000000000296,-10.308999514687901211
0.459000000000000297,-10.214270663275925699
0.460000000000000298,-10.120796403715692335
0.461000000000000298,-10.028568222342222782
0.462000000000000299,-9.937577296076671729
0.463000000000000300,-9.847814505865411405
0.464000000000000301,-9.759270449924537516
0.465000000000000302,-9.671935456784158447
0.466000000000000303,-9.585799598127342946
0.467000000000000304,-9.500852701419082891
0.468000000000000305,-9.417084362321119784
0.469000000000000306,-9.334483956888885103
0.470000000000000306,-9.253040653547191852
0.471000000000000307,-9.172743424841701909
0.472000000000000308,-9.093581058963771113
0.473000000000000309,-9.015542171046284636
0.474000000000000310,-8.938615214228828876
0.475000000000000311,-8.862788490490590476
0.476000000000000312,-8.788050161249936210
0.477000000000000313,-8.714388257729632770
0.478000000000000314,-8.641790691087313903
0.479000000000000314,-8.570245262310837830
0.480000000000000315,-8.499739671878437264
0.481000000000000316,-8.430261529184047475
0.482000000000000317,-8.361798361728139284
0.483000000000000318,-8.294337624074824333
0.484000000000000319,-8.227866706576108413
0.485000000000000320,-8.162372943864479424
0.486000000000000321,-8.097843623115045020
0.487000000000000322,-8.034265992078768903
0.488000000000000322,-7.971627266888402730
0.489000000000000323,-7.909914639639055167
0.490000000000000324,-7.849115285745223325
0.491000000000000325,-7.789216371076508771
0.492000000000000326,-7.730205058874171975
0.493000000000000327,-7.672068516450980091
0.494000000000000328,-7.614793921676728417
0.495000000000000329,-7.558368469252130240
0.496000000000000330,-7.502779376773631270
0.497000000000000330,-7.448013890592044106
0.498000000000000331,-7.394059291467731221
0.499000000000000332,-7.340902900025399802
0.500000000000000333,-7.288532082011366597
0.501000000000000334,-7.236934253356461788
0.502000000000000335,-7.186096885047598803
0.503000000000000336,-7.136007507811257256
0.504000000000000337,-7.086653716612012488
0.505000000000000338,-7.038023174969376683
0.506000000000000338,-6.990103619096245779
0.507000000000000339,-6.942882861862242017
0.508000000000000340,-6.896348796585262342
0.509000000000000341,-6.850489400654618422
0.510000000000000342,-6.805292738989075829
0.511000000000000343,-6.760746967333204793
0.512000000000000344,-6.716840335395377615
0.513000000000000345,-6.673561189830794937
0.514000000000000346,-6.630897977072960359
0.515000000000000346,-6.588839246016907403
0.516000000000000347,-6.547373650557521962
0.517000000000000348,-6.506489951986473841
0.518000000000000349,-6.466177021250794965
0.519000000000000350,-6.426423841076723598
0.520000000000000351,-6.387219507961924947
0.521000000000000352,-6.348553234039416182
0.522000000000000353,-6.310414348816456354
0.523000000000000353,-6.272792300791579123
0.524000000000000354,-6.235676658953061668
0.525000000000000355,-6.199057114161862003
0.526000000000000356,-6.162923480422259459
0.527000000000000357,-6.127265696043277643
0.528000000000000358,-6.092073824693910566
0.529000000000000359,-6.057338056355221489
0.530000000000000360,-6.023048708172303201
0.531000000000000361,-5.989196225209053814
0.532000000000000361,-5.955771181108628021
0.533000000000000362,-5.922764278662508985
0.534000000000000363,-5.890166350291027086
0.535000000000000364,-5.857968358438009560
0.536000000000000365,-5.826161395882442307
0.537000000000000366,-5.794736685969775536
0.538000000000000367,-5.763685582765501358
0.539000000000000368,-5.732999571133711392
0.540000000000000369,-5.702670266743081307
0.541000000000000369,-5.672689416002896223
0.542000000000000370,-5.643048895931579878
0.543000000000000371,-5.613740713960083006
0.544000000000000372,-5.584757007672631168
0.545000000000000373,-5.556090044487071999
0.546000000000000374,-5.527732221277167568
0.547000000000000375,-5.499676063939036297
0.548000000000000376,-5.471914226904020850
0.549000000000000377,-5.444439492600053221
0.550000000000000377,-5.417244770863632652
0.551000000000000378,-5.390323098304547145
0.552000000000000379,-5.363667637625296969
0.553000000000000380,-5.337271676897189288
0.554000000000000381,-5.311128628795059647
0.555000000000000382,-5.285232029792520159
0.556000000000000383,-5.259575539319466309
0.557000000000000384,-5.234152938883807060
0.558000000000000385,-5.208958131158995641
0.559000000000000385,-5.183985139039215539
0.560000000000000386,-5.159228104663748482
0.561000000000000387,-5.134681288412283884
0.562000000000000388,-5.110339067872662788
0.563000000000000389,-5.086195936782587523
0.564000000000000390,-5.062246503946878029
0.565000000000000391,-5.038485492131648869
0.566000000000000392,-5.014907736936878635
0.567000000000000393,-4.991508185648737772
0.568000000000000393,-4.968281896072987536
0.569000000000000394,-4.945224035350802794
0.570000000000000395,-4.922329878758281652
0.571000000000000396,-4.899594808490792097
0.572000000000000397,-4.877014312433479049
0.573000000000000398,-4.854583982918967422
0.574000000000000399,-4.832299515473464702
0.575000000000000400,-4.810156707552320832
0.576000000000000401,-4.788151457266083710
0.577000000000000401,-4.766279762098112549
0.578000000000000402,-4.744537717614706551
0.579000000000000403,-4.722921516168701039
0.580000000000000404,-4.701427445597493815
0.581000000000000405,-4.680051887916360620
0.582000000000000406,-4.658791318007912352
0.583000000000000407,-4.637642302308597309
0.584000000000000408,-4.616601497492966999
0.585000000000000409,-4.595665649156535082
0.586000000000000409,-4.574831590497972833
0.587000000000000410,-4.554096241001352574
0.588000000000000411,-4.533456605119146055
0.589000000000000412,-4.512909770956621713
0.590000000000000413,-4.492452908958320279
0.591000000000000414,-4.472083270597214444
0.592000000000000415,-4.451798187067120161
0.593000000000000416,-4.431595067978983948
0.594000000000000417,-4.411471400061531156
0.595000000000000417,-4.391424745866884471
0.596000000000000418,-4.371452742481528375
0.597000000000000419,-4.351553100243267025
0.598000000000000420,-4.331723601464469553
0.599000000000000421,-4.311962099162167661
0.600000000000000422,-4.292266515795359894
0.601000000000000423,-4.272634842009940925
0.602000000000000424,-4.253065135391639551
0.603000000000000425,-4.233555519227338415
0.604000000000000425,-4.214104181275086347
0.605000000000000426,-4.194709372543171000
0.606000000000000427,-4.175369406078557333
0.607000000000000428,-4.156082655764921974
