# Cu110_PRO-JS
# h[nm],U(h)[kJ/mol]
0.149999999999999994,145.572406295471978410
0.150999999999999995,140.673000850136560302
0.151999999999999996,136.419195159317609978
0.152999999999999997,132.338753370054604375
0.153999999999999998,128.268177981119436026
0.154999999999999999,124.184176923667337178
0.156000000000000000,120.115144432398594176
0.157000000000000001,116.098629567380640992
0.158000000000000002,112.164016853743902402
0.159000000000000002,108.328085428176450478
0.160000000000000003,104.596395585271153550
0.161000000000000004,100.966683245302291994
0.162000000000000005,97.432362479305027136
0.163000000000000006,93.985331453524764811
0.164000000000000007,90.617866053154912720
0.165000000000000008,87.323672543595563411
0.166000000000000009,84.098285155800610369
0.167000000000000010,80.939016286349456664
0.168000000000000010,77.844643978966715281
0.169000000000000011,74.814981074019087259
0.170000000000000012,71.850427792647565184
0.171000000000000013,68.951571819491931592
0.172000000000000014,66.118869962082925440
0.173000000000000015,63.352423550532179775
0.174000000000000016,60.651845039182987307
0.175000000000000017,58.016204436458409077
0.176000000000000018,55.444039793576749275
0.177000000000000018,52.933414727505009978
0.178000000000000019,50.482006754765990308
0.179000000000000020,48.087212223430164215
0.180000000000000021,45.746256225179045884
0.181000000000000022,43.456298611705904023
0.182000000000000023,41.214529846676008162
0.183000000000000024,39.018252729730178885
0.184000000000000025,36.864947951776443347
0.185000000000000026,34.752322959585725926
0.186000000000000026,32.678344739646590256
0.187000000000000027,30.641257916478743084
0.188000000000000028,28.639590050849317748
0.189000000000000029,26.672146273896817803
0.190000000000000030,24.737995457748983341
0.191000000000000031,22.836450050739813378
0.192000000000000032,20.967041538240415832
0.193000000000000033,19.129493263766004674
0.194000000000000034,17.323692087739036793
0.195000000000000034,15.549660094867396865
0.196000000000000035,13.807527301570999612
0.197000000000000036,12.097506073365179802
0.198000000000000037,10.419867745647797719
0.199000000000000038,8.774921753780976275
0.200000000000000039,7.162997421075559146
0.201000000000000040,5.584428425815839425
0.202000000000000041,4.039539869067604982
0.203000000000000042,2.528637791126518319
0.204000000000000042,1.052000933036592922
0.205000000000000043,-0.390125492600651325
0.206000000000000044,-1.797534273552310990
0.207000000000000045,-3.170059168018211526
0.208000000000000046,-4.507576621608474277
0.209000000000000047,-5.810006465935055431
0.210000000000000048,-7.077311814227327247
0.211000000000000049,-8.309498346768318555
0.212000000000000050,-9.506613154587398640
0.213000000000000050,-10.668743284991332843
0.214000000000000051,-11.796014108166252399
0.215000000000000052,-12.888587600969140468
0.216000000000000053,-13.946660622679669217
0.217000000000000054,-14.970463238245731219
0.218000000000000055,-15.960257127623242113
0.219000000000000056,-16.916334105254563269
0.220000000000000057,-17.839014761534834008
0.221000000000000058,-18.728647228173805672
0.222000000000000058,-19.585606061543131773
0.223000000000000059,-20.410291232203867651
0.224000000000000060,-21.203127204644307113
0.225000000000000061,-21.964562088602605172
0.226000000000000062,-22.695066841984662176
0.227000000000000063,-23.395134505106412348
0.228000000000000064,-24.065279446586245626
0.229000000000000065,-24.706036602505903943
0.230000000000000066,-25.317960692271093137
0.231000000000000066,-25.901625396790571187
0.232000000000000067,-26.457622487016475787
0.233000000000000068,-26.986560893438877429
0.234000000000000069,-27.489065709704266993
0.235000000000000070,-27.965777126054412349
0.236000000000000071,-28.417349290691220176
0.237000000000000072,-28.844449099421439087
0.238000000000000073,-29.247754915978909196
0.239000000000000073,-29.627955227240601488
0.240000000000000074,-29.985747239131381292
0.241000000000000075,-30.321835420339890987
0.242000000000000076,-30.636930002047854771
0.243000000000000077,-30.931745442712667682
0.244000000000000078,-31.206998867547763865
0.245000000000000079,-31.463408492730174260
0.246000000000000080,-31.701692044549389493
0.247000000000000081,-31.922565183711505199
0.248000000000000081,-32.126739944848161201
0.249000000000000082,-32.314923200971676920
0.250000000000000111,-32.487815162185029294
0.251000000000000112,-32.646107917418092370
0.252000000000000113,-32.790484027340319528
0.253000000000000114,-32.921615175907582795
0.254000000000000115,-33.040160887263240852
0.255000000000000115,-33.146767313935711741
0.256000000000000116,-33.242066101479643692
0.257000000000000117,-33.326673333904295760
0.258000000000000118,-33.401188563430501688
0.259000000000000119,-33.466193927331872260
0.260000000000000120,-33.522253353850871349
0.261000000000000121,-33.569911858444058339
0.262000000000000122,-33.609694930911402366
0.263000000000000123,-33.642108013304756753
0.264000000000000123,-33.667636067894456176
0.265000000000000124,-33.686743233904884676
0.266000000000000125,-33.699872571209766647
0.267000000000000126,-33.707445888707454174
0.268000000000000127,-33.709863654677796774
0.269000000000000128,-33.707504986051418427
0.270000000000000129,-33.700727713202397240
0.271000000000000130,-33.689868516602793136
0.272000000000000131,-33.675243131451040313
0.273000000000000131,-33.657146616204769884
0.274000000000000132,-33.635853680808033062
0.275000000000000133,-33.611619070304151080
0.276000000000000134,-33.584677999461064246
0.277000000000000135,-33.555246634008156548
0.278000000000000136,-33.523522614086743943
0.279000000000000137,-33.489685615547784892
0.280000000000000138,-33.453897944789368069
0.281000000000000139,-33.416305162907448789
0.282000000000000139,-33.377036735036540449
0.283000000000000140,-33.336206700877198728
0.284000000000000141,-33.293914362544541063
0.285000000000000142,-33.250244986021328941
0.286000000000000143,-33.205270512661577698
0.287000000000000144,-33.159050277359952474
0.288000000000000145,-33.111631730181635191
0.289000000000000146,-33.063051158428699239
0.290000000000000147,-33.013334406307627944
0.291000000000000147,-32.962497589550295629
0.292000000000000148,-32.910547802531446848
0.293000000000000149,-32.857483815614408229
0.294000000000000150,-32.803296760644393260
0.295000000000000151,-32.747970802693835424
0.296000000000000152,-32.691483796344989798
0.297000000000000153,-32.633807924972174419
0.298000000000000154,-32.574910321657249312
0.299000000000000155,-32.514753670538368624
0.300000000000000155,-32.453296787551337843
0.301000000000000156,-32.390495179676435100
0.302000000000000157,-32.326301581949586250
0.303000000000000158,-32.260666471635843777
0.304000000000000159,-32.193538559095358664
0.305000000000000160,-32.124865254995519592
0.306000000000000161,-32.054593113640557078
0.307000000000000162,-31.982668252298815048
0.308000000000000163,-31.909036746509809035
0.309000000000000163,-31.833645001447706591
0.310000000000000164,-31.756440099505169883
0.311000000000000165,-31.677370124341315716
0.312000000000000166,-31.596384461711416236
0.313000000000000167,-31.513434077461624838
0.314000000000000168,-31.428471773132592659
0.315000000000000169,-31.341452419669330709
0.316000000000000170,-31.252333169782549049
0.317000000000000171,-31.161073649548562514
0.318000000000000171,-31.067636129871253559
0.319000000000000172,-30.971985678461372515
0.320000000000000173,-30.874090293014177178
0.321000000000000174,-30.773921016288777963
0.322000000000000175,-30.671452033809451621
0.323000000000000176,-30.566660754922814647
0.324000000000000177,-30.459527877954165831
0.325000000000000178,-30.350037440211725226
0.326000000000000179,-30.238176853591159698
0.327000000000000179,-30.123936926531182934
0.328000000000000180,-30.007311873068477581
0.329000000000000181,-29.888299309734595255
0.330000000000000182,-29.766900241028487528
0.331000000000000183,-29.643119034189101768
0.332000000000000184,-29.516963383979792468
0.333000000000000185,-29.388444268182496444
0.334000000000000186,-29.257575894484496359
0.335000000000000187,-29.124375639423750073
0.336000000000000187,-28.988863980041248425
0.337000000000000188,-28.851064418869363237
0.338000000000000189,-28.711003402866502654
0.339000000000000190,-28.568710236887142173
0.340000000000000191,-28.424216992255658454
0.341000000000000192,-28.277558410991485260
0.342000000000000193,-28.128771806210483675
0.343000000000000194,-27.977896959206493221
0.344000000000000195,-27.824976013694140420
0.345000000000000195,-27.670053367672618805
0.346000000000000196,-27.513175563347505914
0.347000000000000197,-27.354391175526266977
0.348000000000000198,-27.193750698881217431
0.349000000000000199,-27.031306434452069709
0.350000000000000200,-26.867112375739530705
0.351000000000000201,-26.701224094720259927
0.352000000000000202,-26.533698628093123517
0.353000000000000203,-26.364594364047292174
0.354000000000000203,-26.193970929822590676
0.355000000000000204,-26.021889080314146270
0.356000000000000205,-25.848410587954692375
0.357000000000000206,-25.673598134090461542
0.358000000000000207,-25.497515202048624872
0.359000000000000208,-25.320225972078556964
0.360000000000000209,-25.141795218332330109
0.361000000000000210,-24.962288208034824066
0.362000000000000210,-24.781770602978919982
0.363000000000000211,-24.600308363466890427
0.364000000000000212,-24.417967654805828204
0.365000000000000213,-24.234814756451434903
0.366000000000000214,-24.050915973882673882
0.367000000000000215,-23.866337553277425343
0.368000000000000216,-23.681145599048683437
0.369000000000000217,-23.495405994289601637
0.370000000000000218,-23.309184324166150049
0.371000000000000218,-23.122545802286293082
0.372000000000000219,-22.935555200065870451
0.373000000000000220,-22.748276779102891254
0.374000000000000221,-22.560774226564095812
0.375000000000000222,-22.373110593580030070
0.376000000000000223,-22.185348236638446906
0.377000000000000224,-21.997548761958974239
0.378000000000000225,-21.809772972826259263
0.379000000000000226,-21.622080819853220390
0.380000000000000226,-21.434531354141139303
0.381000000000000227,-21.247182683298120764
0.382000000000000228,-21.060091930273962646
0.383000000000000229,-20.873315194964881414
0.384000000000000230,-20.686907518538149020
0.385000000000000231,-20.500922850424068145
0.386000000000000232,-20.315414017918850931
0.387000000000000233,-20.130432698340349873
0.388000000000000234,-19.946029393675733132
0.389000000000000234,-19.762253407658668891
0.390000000000000235,-19.579152825211377120
0.391000000000000236,-19.396774494186114879
0.392000000000000237,-19.215164009338813855
0.393000000000000238,-19.034365698467176742
0.394000000000000239,-18.854422610644324010
0.395000000000000240,-18.675376506478951200
0.396000000000000241,-18.497267850332239192
0.397000000000000242,-18.320135804421770587
0.398000000000000242,-18.144018224742787027
0.399000000000000243,-17.968951658736887822
0.400000000000000244,-17.794971344638934596
0.401000000000000245,-17.622111212433214433
0.402000000000000246,-17.450403886350397187
0.403000000000000247,-17.279880688837412350
0.404000000000000248,-17.110571645933386975
0.405000000000000249,-16.942505493985400733
0.406000000000000250,-16.775709687638830303
0.407000000000000250,-16.610210409038096202
0.408000000000000251,-16.446032578174587968
0.409000000000000252,-16.283199864320103245
0.410000000000000253,-16.121734698484587511
0.411000000000000254,-15.961658286839192300
0.412000000000000255,-15.802990625046074769
0.413000000000000256,-15.645750513438395402
0.414000000000000257,-15.489955572994844601
0.415000000000000258,-15.335622262054835474
0.416000000000000258,-15.182765893721711592
0.417000000000000259,-15.031400653902721842
0.418000000000000260,-14.881539619936280161
0.419000000000000261,-14.733194779758060022
0.420000000000000262,-14.586377051559377804
0.421000000000000263,-14.441096303892649644
0.422000000000000264,-14.297361376179939185
0.423000000000000265,-14.155180099582542752
0.424000000000000266,-14.014559318190801918
0.425000000000000266,-13.875504910494692368
0.426000000000000267,-13.738021811097357983
0.427000000000000268,-13.602114032635252983
0.428000000000000269,-13.467784687869734483
0.429000000000000270,-13.335036011916646004
0.430000000000000271,-13.203869384581514268
0.431000000000000272,-13.074285352769729585
0.432000000000000273,-12.946283652941971809
0.433000000000000274,-12.819863233586954010
0.434000000000000274,-12.695022277684341105
0.435000000000000275,-12.571758225132439790
0.436000000000000276,-12.450067795116300573
0.437000000000000277,-12.329947008392831975
0.438000000000000278,-12.211391209471317509
0.439000000000000279,-12.094395088668351335
0.440000000000000280,-11.978952704017469699
0.441000000000000281,-11.865057503015144391
0.442000000000000282,-11.752702344185475880
0.443000000000000282,-11.641879518447172615
0.444000000000000283,-11.532580770267502501
0.445000000000000284,-11.424797318588709061
0.446000000000000285,-11.318519877513283589
0.447000000000000286,-11.213738676735911071
0.448000000000000287,-11.110443481709955549
0.449000000000000288,-11.008623613538111030
0.450000000000000289,-10.908267968577005647
0.451000000000000290,-10.809365037746722749
0.452000000000000290,-10.711902925536886499
0.453000000000000291,-10.615869368701631004
0.454000000000000292,-10.521251754636688602
0.455000000000000293,-10.428037139432230873
0.456000000000000294,-10.336212265596161686
0.457000000000000295,-10.245763579442797919
0.458000000000000296,-10.156677248142809589
0.459000000000000297,-10.068939176430673044
0.460000000000000298,-9.982535022966617433
0.461000000000000298,-9.897450216350403451
0.462000000000000299,-9.813669970785049657
0.463000000000000300,-9.731179301388781511
0.464000000000000301,-9.649963039154259903
0.465000000000000302,-9.570005845554481638
0.466000000000000303,-9.491292226795073006
0.467000000000000304,-9.413806547713175377
0.468000000000000305,-9.337533045323668901
0.469000000000000306,-9.262455842013538998
0.470000000000000306,-9.188558958385822706
0.471000000000000307,-9.115826325754605719
0.472000000000000308,-9.044241798293276346
0.473000000000000309,-8.973789164837977950
0.474000000000000310,-8.904452160348997225
0.475000000000000311,-8.836214477032731551
0.476000000000000312,-8.769059775127372447
0.477000000000000313,-8.702971693355340932
0.478000000000000314,-8.637933859046098561
0.479000000000000314,-8.573929897932965005
0.480000000000000315,-8.510943443627571270
0.481000000000000316,-8.448958146776256228
0.482000000000000317,-8.387957683902218520
0.483000000000000318,-8.327925765938008595
0.484000000000000319,-8.268846146452489165
0.485000000000000320,-8.210702629577140144
0.486000000000000321,-8.153479077636012207
0.487000000000000322,-8.097159418484306315
0.488000000000000322,-8.041727652560297201
0.489000000000000323,-7.987167859655559532
0.490000000000000324,-7.933464205408465197
0.491000000000000325,-7.880600947525941535
0.492000000000000326,-7.828562441738606381
0.493000000000000327,-7.777333147494415400
0.494000000000000328,-7.726897633395976683
0.495000000000000329,-7.677240582386687606
0.496000000000000330,-7.628346796690941289
0.497000000000000330,-7.580201202513572767
0.498000000000000331,-7.532788854503847276
0.499000000000000332,-7.486094939989129671
0.500000000000000333,-7.440104782983515186
0.501000000000000334,-7.394803847976615607
0.502000000000000335,-7.350177743507647854
0.503000000000000336,-7.306212225530141602
0.504000000000000337,-7.262893200572196228
0.505000000000000338,-7.220206728697628584
0.506000000000000338,-7.178139026272932988
0.507000000000000339,-7.136676468545194219
0.508000000000000340,-7.095805592035913101
0.509000000000000341,-7.055513096755760216
0.510000000000000342,-7.015785848245110756
0.511000000000000343,-6.976610879445267699
0.512000000000000344,-6.937975392405192565
0.513000000000000345,-6.899866759828441332
0.514000000000000346,-6.862272526465130973
0.515000000000000346,-6.825180410353429927
0.516000000000000347,-6.788578303915224765
0.517000000000000348,-6.752454274910562049
0.518000000000000349,-6.716796567255099326
0.519000000000000350,-6.681593601705181129
0.520000000000000351,-6.646833976414749934
0.521000000000000352,-6.612506467368303831
0.522000000000000353,-6.578600028694184587
0.523000000000000353,-6.545103792862176917
0.524000000000000354,-6.512007070769629813
0.525000000000000355,-6.479299351719855160
0.526000000000000356,-6.446970303296867932
0.527000000000000357,-6.415009771140229411
0.528000000000000358,-6.383407778623689133
0.529000000000000359,-6.352154526441372795
0.530000000000000360,-6.321240392105097250
0.531000000000000361,-6.290655929356303133
0.532000000000000361,-6.260391867496089446
0.533000000000000362,-6.230439110636732281
0.534000000000000363,-6.200788736877972163
0.535000000000000364,-6.171431997411300330
0.536000000000000365,-6.142360315555434269
0.537000000000000366,-6.113565285726042298
0.538000000000000367,-6.085038672342706789
0.539000000000000368,-6.056772408676169839
0.540000000000000369,-6.028758595638572970
0.541000000000000369,-6.000989500519662734
0.542000000000000370,-5.973457555671579655
0.543000000000000371,-5.946155357144906617
0.544000000000000372,-5.919075663278642097
0.545000000000000373,-5.892211393246537199
0.546000000000000374,-5.865555625562319797
0.547000000000000375,-5.839101596546102613
0.548000000000000376,-5.812842698754510096
0.549000000000000377,-5.786772479376535827
0.550000000000000377,-5.760884638597463692
0.551000000000000378,-5.735173027933023526
0.552000000000000379,-5.709631648535773429
0.553000000000000380,-5.684254649475752430
0.554000000000000381,-5.659036325997366390
0.555000000000000382,-5.633971117754446922
0.556000000000000383,-5.609053607025183297
0.557000000000000384,-5.584278516908897316
0.558000000000000385,-5.559640709506220801
0.559000000000000385,-5.535135184084463589
0.560000000000000386,-5.510757075229686386
0.561000000000000387,-5.486501650987163359
0.562000000000000388,-5.462364310991614680
0.563000000000000389,-5.438340584588766902
0.564000000000000390,-5.414426128949609840
0.565000000000000391,-5.390616727178707990
0.566000000000000392,-5.366908286417898744
0.567000000000000393,-5.343296835946651946
0.568000000000000393,-5.319778525280242754
0.569000000000000394,-5.296349622267010560
0.570000000000000395,-5.273006511185789336
0.571000000000000396,-5.249745690844536128
0.572000000000000397,-5.226563772681354969
0.573000000000000398,-5.203457478868740438
0.574000000000000399,-5.180423640422171516
0.575000000000000400,-5.157459195313838229
0.576000000000000401,-5.134561186592489612
0.577000000000000401,-5.111726760510223677
0.578000000000000402,-5.088953164657006312
0.579000000000000403,-5.066237746103706918
0.580000000000000404,-5.043577949554435946
0.581000000000000405,-5.020971315508844235
0.582000000000000406,-4.998415478435065396
0.583000000000000407,-4.975908164953963819
0.584000000000000408,-4.953447192035314472
0.585000000000000409,-4.931030465206441171
0.586000000000000409,-4.908655976773923513
0.587000000000000410,-4.886321804058886720
0.588000000000000411,-4.864026107646328256
0.589000000000000412,-4.841767129649007018
0.590000000000000413,-4.819543191986305430
0.591000000000000414,-4.797352694678481022
0.592000000000000415,-4.775194114156737335
0.593000000000000416,-4.753066001589403733
0.594000000000000417,-4.730966981224660195
0.595000000000000417,-4.708895748750098420
0.596000000000000418,-4.686851069669335956
0.597000000000000419,-4.664831777696145210
0.598000000000000420,-4.642836773166139075
0.599000000000000421,-4.620865021466435074
0.600000000000000422,-4.598915551483399256
0.601000000000000423,-4.576987454068730088
0.602000000000000424,-4.555079880524031566
0.603000000000000425,-4.533192041104078029
0.604000000000000425,-4.511323203538858628
0.605000000000000426,-4.489472691574595942
0.606000000000000427,-4.467639883533844447
0.607000000000000428,-4.445824210894675943
