# Cu110_CS-5993-AC
# h[nm],U(h)[kJ/mol]
0.200000000000000011,96.929052345996765894
0.201000000000000012,90.201909254932516546
0.202000000000000013,86.392165469758964491
0.203000000000000014,83.920044787309379331
0.204000000000000015,81.893825140165390053
0.205000000000000016,79.859124789791152921
0.206000000000000016,77.627793128746375828
0.207000000000000017,75.163683508966116165
0.208000000000000018,72.508558596230074045
0.209000000000000019,69.735878464046479053
0.210000000000000020,66.923594077779384293
0.211000000000000021,64.139581751892848160
0.212000000000000022,61.435214270812778636
0.213000000000000023,58.843930759966227129
0.214000000000000024,56.382662216928814303
0.215000000000000024,54.054686319598559407
0.216000000000000025,51.852994972902351378
0.217000000000000026,49.763615146832862024
0.218000000000000027,47.768568801195335993
0.219000000000000028,45.848321851238409863
0.220000000000000029,43.983678207463562160
0.221000000000000030,42.157140008304267553
0.222000000000000031,40.353791847511892854
0.223000000000000032,38.561784273131181067
0.224000000000000032,36.772496741651352181
0.225000000000000033,34.980457280157153832
0.226000000000000034,33.183088655517529730
0.227000000000000035,31.380341144974170930
0.228000000000000036,29.574261559600824256
0.229000000000000037,27.768537956916880205
0.230000000000000038,25.968050069534093893
0.231000000000000039,24.178447181210795947
0.232000000000000040,22.405768124909847927
0.233000000000000040,20.656112264003830603
0.234000000000000041,18.935365677318753086
0.235000000000000042,17.248983188045087900
0.236000000000000043,15.601824221747767396
0.237000000000000044,13.998038610097387036
0.238000000000000045,12.440997238751014820
0.239000000000000046,10.933261744093233148
0.240000000000000047,9.476587181399455773
0.241000000000000048,8.071951617961214964
0.242000000000000048,6.719606864962779369
0.243000000000000049,5.419144981540640060
0.244000000000000050,4.169575706490284972
0.245000000000000051,2.969410551985692592
0.246000000000000052,1.816749894014338507
0.247000000000000053,0.709369989143660562
0.248000000000000054,-0.355192582878569696
0.249000000000000055,-1.379561019970750424
0.250000000000000056,-2.366444427547433005
0.251000000000000056,-3.318571031546674988
0.252000000000000057,-4.238629151927545635
0.253000000000000058,-5.129216291032212105
0.254000000000000059,-5.992796420413954550
0.255000000000000060,-6.831665327865612092
0.256000000000000061,-7.647923709521984748
0.257000000000000062,-8.443457555677451154
0.258000000000000063,-9.219925278781660793
0.259000000000000064,-9.978750963362809756
0.260000000000000064,-10.721123075922582402
0.261000000000000065,-11.447997953918546798
0.262000000000000066,-12.160107392872138377
0.263000000000000067,-12.857969665816796123
0.264000000000000068,-13.541903336504770294
0.265000000000000069,-14.212043264157518507
0.266000000000000070,-14.868358240566701411
0.267000000000000071,-15.510669747875914126
0.268000000000000071,-16.138671375558736543
0.269000000000000072,-16.751948486425419560
0.270000000000000073,-17.349997772675546770
0.271000000000000074,-17.932246393051773481
0.272000000000000075,-18.498070430244858642
0.273000000000000076,-19.046812453242544905
0.274000000000000077,-19.577798011868360106
0.275000000000000078,-20.090350930018466613
0.276000000000000079,-20.583807299899046228
0.277000000000000079,-21.057528111814427518
0.278000000000000080,-21.510910482758042406
0.279000000000000081,-21.943397472287667682
0.280000000000000082,-22.354486496040124166
0.281000000000000083,-22.743736365922366360
0.282000000000000084,-23.110773001693758033
0.283000000000000085,-23.455293871538849260
0.284000000000000086,-23.777071229543075503
0.285000000000000087,-24.075954225953417165
0.286000000000000087,-24.351869971961868089
0.287000000000000088,-24.604823644716425690
0.288000000000000089,-24.834897720562100432
0.289000000000000090,-25.042250425352662546
0.290000000000000091,-25.227113490250239636
0.291000000000000092,-25.389789299933035238
0.292000000000000093,-25.530647517731285490
0.293000000000000094,-25.650121269069710905
0.294000000000000095,-25.748702960854224386
0.295000000000000095,-25.826939810235103323
0.296000000000000096,-25.885429151623419841
0.297000000000000097,-25.924813586038983004
0.298000000000000098,-25.945776031917482385
0.299000000000000099,-25.949034731483543226
0.300000000000000100,-25.935338261772859170
0.301000000000000101,-25.905460594422144993
0.302000000000000102,-25.860196243487951762
0.303000000000000103,-25.800355535847767641
0.304000000000000103,-25.726760034211700656
0.305000000000000104,-25.640238138457181805
0.306000000000000105,-25.541620886913893429
0.307000000000000106,-25.431737975384550055
0.308000000000000107,-25.311414008100680206
0.309000000000000108,-25.181464991486251392
0.310000000000000109,-25.042695078537114739
0.311000000000000110,-24.895893568821072961
0.312000000000000111,-24.741832166555902006
0.313000000000000111,-24.581262496927021033
0.314000000000000112,-24.414913878752752652
0.315000000000000113,-24.243491349784626721
0.316000000000000114,-24.067673939332745903
0.317000000000000115,-23.888113181519372574
0.318000000000000116,-23.705431861275801708
0.319000000000000117,-23.520222984196806237
0.320000000000000118,-23.333048960538601335
0.321000000000000119,-23.144440992980015892
0.322000000000000119,-22.954898657247657212
0.323000000000000120,-22.764889664323366247
0.324000000000000121,-22.574849792693036932
0.325000000000000122,-22.385182978948712673
0.326000000000000123,-22.196261555009350275
0.327000000000000124,-22.008426620268256357
0.328000000000000125,-21.821988537098853556
0.329000000000000126,-21.637227538342063582
0.330000000000000127,-21.454394435651714446
0.331000000000000127,-21.273711417880743824
0.332000000000000128,-21.095372929039193366
0.333000000000000129,-20.919546615742483198
0.334000000000000130,-20.746374334484279700
0.335000000000000131,-20.575973209509193396
0.336000000000000132,-20.408436732518655532
0.337000000000000133,-20.243835895915342604
0.338000000000000134,-20.082220351770963873
0.339000000000000135,-19.923619589186948531
0.340000000000000135,-19.768044123201619300
0.341000000000000136,-19.615486688879485655
0.342000000000000137,-19.465923434694001770
0.343000000000000138,-19.319315109782795759
0.344000000000000139,-19.175608240111365888
0.345000000000000140,-19.034736289026184863
0.346000000000000141,-18.896620798108312300
0.347000000000000142,-18.761172504654574311
0.348000000000000143,-18.628292432512125743
0.349000000000000143,-18.497872953374194793
0.350000000000000144,-18.369798816009037523
0.351000000000000145,-18.243948141239844318
0.352000000000000146,-18.120193380821039142
0.353000000000000147,-17.998402238664898078
0.354000000000000148,-17.878438553162926183
0.355000000000000149,-17.760163139617926475
0.356000000000000150,-17.643434592056486565
0.357000000000000151,-17.528110043926872663
0.358000000000000151,-17.414045887405791291
0.359000000000000152,-17.301098451238054565
0.360000000000000153,-17.189124637218231584
0.361000000000000154,-17.077982515591379808
0.362000000000000155,-16.967531879803498640
0.363000000000000156,-16.857634761170540827
0.364000000000000157,-16.748155904159023777
0.365000000000000158,-16.638963203082699494
0.366000000000000159,-16.529928101117111083
0.367000000000000159,-16.420925952620329724
0.368000000000000160,-16.311836349822893766
0.369000000000000161,-16.202543415013259676
0.370000000000000162,-16.092936059399416848
0.371000000000000163,-15.982908209871434124
0.372000000000000164,-15.872359004924888382
0.373000000000000165,-15.761192961033222204
0.374000000000000166,-15.649320110775960302
0.375000000000000167,-15.536656114043054799
0.376000000000000167,-15.423122343641670895
0.377000000000000168,-15.308645946632235990
0.378000000000000169,-15.193159882715329800
0.379000000000000170,-15.076602940981521428
0.380000000000000171,-14.958919736321409033
0.381000000000000172,-14.840060686775354171
0.382000000000000173,-14.719981973079939053
0.383000000000000174,-14.598645481643851340
0.384000000000000175,-14.476018732157394098
0.385000000000000175,-14.352074791010119625
0.386000000000000176,-14.226792171658527053
0.387000000000000177,-14.100154723051598893
0.388000000000000178,-13.972151507186694630
0.389000000000000179,-13.842776666830976851
0.390000000000000180,-13.712029284406392904
0.391000000000000181,-13.579913232997052219
0.392000000000000182,-13.446437020399537587
0.393000000000000183,-13.311613627096523516
0.394000000000000183,-13.175460338995236498
0.395000000000000184,-13.037998575732487438
0.396000000000000185,-12.899253715308585555
0.397000000000000186,-12.759254915773745154
0.398000000000000187,-12.618034934651710444
0.399000000000000188,-12.475629946747330834
0.400000000000000189,-12.332079360947593827
0.401000000000000190,-12.187425636588454125
0.402000000000000191,-12.041714099924584858
0.403000000000000191,-11.894992761203253551
0.404000000000000192,-11.747312132810206364
0.405000000000000193,-11.598725048921663117
0.406000000000000194,-11.449286487064672002
0.407000000000000195,-11.299053391956933368
0.408000000000000196,-11.148084501966851079
0.409000000000000197,-10.996440178505924479
0.410000000000000198,-10.844182238637568361
0.411000000000000199,-10.691373791159492157
0.412000000000000199,-10.538079076391316136
0.413000000000000200,-10.384363309874473202
0.414000000000000201,-10.230292530167892195
0.415000000000000202,-10.075933450900546262
0.416000000000000203,-9.921353317220951595
0.417000000000000204,-9.766619766762932642
0.418000000000000205,-9.611800695228385649
0.419000000000000206,-9.456964126669255677
0.420000000000000207,-9.302178088533736400
0.421000000000000207,-9.147510491526061216
0.422000000000000208,-8.993029014313286496
0.423000000000000209,-8.838800993099031444
0.424000000000000210,-8.684893316070207092
0.425000000000000211,-8.531372322710510048
0.426000000000000212,-8.378303707963009828
0.427000000000000213,-8.225752431213008364
0.428000000000000214,-8.073782630052859233
0.429000000000000214,-7.922457538780695252
0.430000000000000215,-7.771839411576865864
0.431000000000000216,-7.621989450294194057
0.432000000000000217,-7.472967736790626425
0.433000000000000218,-7.324833169726858273
0.434000000000000219,-7.177643405745494753
0.435000000000000220,-7.031454804943082948
0.436000000000000221,-6.886322380541622934
0.437000000000000222,-6.742299752662153978
0.438000000000000222,-6.599439106099336705
0.439000000000000223,-6.457791151992725354
0.440000000000000224,-6.317405093287861817
0.441000000000000225,-6.178328593877845165
0.442000000000000226,-6.040607751314628793
0.443000000000000227,-5.904287072977149720
0.444000000000000228,-5.769409455582950486
0.445000000000000229,-5.636016167928724840
0.446000000000000230,-5.504146836744939542
0.447000000000000230,-5.373839435549557564
0.448000000000000231,-5.245130276385856050
0.449000000000000232,-5.118054004329782636
0.450000000000000233,-4.992643594652938610
0.451000000000000234,-4.868930352527963912
0.452000000000000235,-4.746943915164279382
0.453000000000000236,-4.626712256263123990
0.454000000000000237,-4.508261692682555832
0.455000000000000238,-4.391616893204128402
0.456000000000000238,-4.276800889295193642
0.457000000000000239,-4.163835087761930787
0.458000000000000240,-4.052739285190884111
0.459000000000000241,-3.943531684077906441
0.460000000000000242,-3.836228910546457094
0.461000000000000243,-3.730846033558508967
0.462000000000000244,-3.627396585524341965
0.463000000000000245,-3.525892584219088466
0.464000000000000246,-3.426344555916910117
0.465000000000000246,-3.328761559655679658
0.466000000000000247,-3.233151212547590525
0.467000000000000248,-3.139519716053535525
0.468000000000000249,-3.047871883141804350
0.469000000000000250,-2.958211166253743141
0.470000000000000251,-2.870539686001922330
0.471000000000000252,-2.784858260528495499
0.472000000000000253,-2.701166435454301240
0.473000000000000254,-2.619462514351375226
0.474000000000000254,-2.539743589674246849
0.475000000000000255,-2.462005574087791970
0.476000000000000256,-2.386243232131710634
0.477000000000000257,-2.312450212164374186
0.478000000000000258,-2.240619078530782016
0.479000000000000259,-2.170741343902034881
0.480000000000000260,-2.102807501735871831
0.481000000000000261,-2.036807058809988913
0.482000000000000262,-1.972728567782395359
0.483000000000000262,-1.910559659734813565
0.484000000000000263,-1.850287076657644691
0.485000000000000264,-1.791896703836822979
0.486000000000000265,-1.735373602105153568
0.487000000000000266,-1.680702039922557400
0.488000000000000267,-1.627865525251586121
0.489000000000000268,-1.576846837196716145
0.490000000000000269,-1.527628057377325099
0.491000000000000270,-1.480190601006575069
0.492000000000000270,-1.434515247649664538
0.493000000000000271,-1.390582171637058995
0.494000000000000272,-1.348370972109548926
0.495000000000000273,-1.307860702673890430
0.496000000000000274,-1.269029900649176534
0.497000000000000275,-1.231856615885497774
0.498000000000000276,-1.196318439138138290
0.499000000000000277,-1.162392529981658651
0.500000000000000222,-1.130055644249787106
0.501000000000000334,-1.099284160988136083
0.502000000000000224,-1.070054108908253587
0.503000000000000336,-1.042341192332333133
0.504000000000000226,-1.016120816619565215
0.505000000000000338,-0.991368113065636658
0.506000000000000227,-0.968057963268559973
0.507000000000000339,-0.946165022954369106
0.508000000000000229,-0.925663745257817694
0.509000000000000341,-0.906528403453647713
0.510000000000000231,-0.888733113135255826
0.511000000000000343,-0.872251853838079461
0.512000000000000233,-0.857058490106142323
0.513000000000000345,-0.843126792000754577
0.514000000000000234,-0.830430455051280658
0.515000000000000346,-0.818943119648266049
0.516000000000000236,-0.808638389880268926
0.517000000000000348,-0.799489851816072128
0.518000000000000238,-0.791471091234595248
0.519000000000000350,-0.784555710805508011
0.520000000000000240,-0.778717346723878934
0.521000000000000352,-0.773929684802867390
0.522000000000000242,-0.770166476028724789
0.523000000000000353,-0.767401551583078989
0.524000000000000243,-0.765608837337542369
0.525000000000000355,-0.764762367826364309
0.526000000000000245,-0.764836299703021028
0.527000000000000357,-0.765804924687011668
0.528000000000000247,-0.767642682007466548
0.529000000000000359,-0.770324170350353499
0.530000000000000249,-0.773824159316458760
0.531000000000000361,-0.778117600397421616
0.532000000000000250,-0.783179637477427804
0.533000000000000362,-0.788985616868272510
0.534000000000000252,-0.795511096885650693
0.535000000000000364,-0.802731856974963298
0.536000000000000254,-0.810623906394536520
0.537000000000000366,-0.819163492464873633
0.538000000000000256,-0.828327108392203248
0.539000000000000368,-0.838091500674921663
0.540000000000000258,-0.848433676101508993
0.541000000000000369,-0.859330908348620914
0.542000000000000259,-0.870760744187977886
0.543000000000000371,-0.882701009310909002
0.544000000000000261,-0.895129813779260486
0.545000000000000373,-0.908025557111439063
0.546000000000000263,-0.921366933012377820
0.547000000000000375,-0.935132933756276152
0.548000000000000265,-0.949302854230700932
0.549000000000000377,-0.963856295650980299
0.550000000000000266,-0.978773168953346762
0.551000000000000378,-0.994033697875715605
0.552000000000000268,-1.009618421734478799
0.553000000000000380,-1.025508197905969254
0.554000000000000270,-1.041684204021003923
0.555000000000000382,-1.058127939880925128
0.556000000000000272,-1.074821229103432696
0.557000000000000384,-1.091746220506402576
0.558000000000000274,-1.108885389237914909
0.559000000000000385,-1.126221537660438310
0.560000000000000275,-1.143737795997167739
0.561000000000000387,-1.161417622748370126
0.562000000000000277,-1.179244804885373643
0.563000000000000389,-1.197203457829992601
0.564000000000000279,-1.215278025226714131
0.565000000000000391,-1.233453278515231899
0.566000000000000281,-1.251714316310390318
0.567000000000000393,-1.270046563596928024
0.568000000000000282,-1.288435770745867570
0.569000000000000394,-1.306868012359603703
0.570000000000000284,-1.325329685952315373
0.571000000000000396,-1.343807510472590838
0.572000000000000286,-1.362288524674575285
0.573000000000000398,-1.380760085344184152
0.574000000000000288,-1.399209865386559226
0.575000000000000400,-1.417625851781076252
0.576000000000000290,-1.435996343409666753
0.577000000000000401,-1.454309948764619609
0.578000000000000291,-1.472555583541403035
0.579000000000000403,-1.490722468122240185
0.580000000000000293,-1.508800124955878008
0.581000000000000405,-1.526778375839034307
0.582000000000000295,-1.544647339104539663
0.583000000000000407,-1.562397426721566784
0.584000000000000297,-1.580019341312639769
0.585000000000000409,-1.597504073092568477
0.586000000000000298,-1.614842896733751587
0.587000000000000410,-1.632027368162744851
0.588000000000000300,-1.649049321292299863
0.589000000000000412,-1.665900864693486749
0.590000000000000302,-1.682574378211926014
0.591000000000000414,-1.699062509532448972
0.592000000000000304,-1.715358170696012596
0.593000000000000416,-1.731454534572890891
0.594000000000000306,-1.747345031295836293
0.595000000000000417,-1.763023344656946323
0.596000000000000307,-1.778483408471651206
0.597000000000000419,-1.793719402913426020
0.598000000000000309,-1.808725750822470557
0.599000000000000421,-1.823497113991513485
0.600000000000000311,-1.838028389432013965
0.601000000000000423,-1.852314705623672397
0.602000000000000313,-1.866351418750129110
0.603000000000000425,-1.880134108923805059
0.604000000000000314,-1.893658576402434957
0.605000000000000426,-1.906920837800051727
0.606000000000000316,-1.919917122294852785
0.607000000000000428,-1.932643867836401297
0.608000000000000318,-1.945097717354564271
0.609000000000000430,-1.957275514972374397
0.610000000000000320,-1.969174302224962592
0.611000000000000432,-1.980791314286764360
0.612000000000000322,-1.992123976208834080
0.613000000000000433,-2.003169899168312895
0.614000000000000323,-2.013926876731839677
0.615000000000000435,-2.024392881134666311
0.616000000000000325,-2.034566059577123109
0.617000000000000437,-2.044444730540153188
0.618000000000000327,-2.054027380121314472
0.619000000000000439,-2.063312658392821852
0.620000000000000329,-2.072299375782981290
0.621000000000000441,-2.080986499482339713
0.622000000000000330,-2.089373149875849656
0.623000000000000442,-2.097458597002236136
0.624000000000000332,-2.105242257041639142
0.625000000000000444,-2.112723688832772506
0.626000000000000334,-2.119902590420410071
0.627000000000000446,-2.126778795634350239
0.628000000000000336,-2.133352270700639153
0.629000000000000448,-2.139623110885975343
0.630000000000000338,-2.145591537176037455
0.631000000000000449,-2.151257892988570397
0.632000000000000339,-2.156622640921841416
0.633000000000000451,-2.161686359539169544
0.634000000000000341,-2.166449740190090179
0.635000000000000453,-2.170913583868832042
0.636000000000000343,-2.175078798110400502
0.637000000000000455,-2.178946393925028424
0.638000000000000345,-2.182517482771146433
0.639000000000000457,-2.185793273567484096
0.640000000000000346,-2.188775069744514745
0.641000000000000458,-2.191464266335672928
0.642000000000000348,-2.193862347108502142
0.643000000000000460,-2.195970881736109437
0.644000000000000350,-2.197791523009047232
0.645000000000000462,-2.199326004087855502
0.646000000000000352,-2.200576135796361577
0.647000000000000464,-2.201543803955952505
0.648000000000000353,-2.202230966760792885
0.649000000000000465,-2.202639652194144482
0.650000000000000355,-2.202771955485789412
0.651000000000000467,-2.202630036610544018
0.652000000000000357,-2.202216117827928255
0.653000000000000469,-2.201532481262819196
0.654000000000000359,-2.200581466527210317
0.655000000000000471,-2.199365468382802558
0.656000000000000361,-2.197886934444471585
0.657000000000000473,-2.196148362924404740
0.658000000000000362,-2.194152300416809975
0.659000000000000474,-2.191901339722996944
