# Cu110_CS-1113-AC
# h[nm],U(h)[kJ/mol]
0.149999999999999994,148.324904596463511552
0.150999999999999995,143.354686911110121628
0.151999999999999996,139.224749542986558026
0.152999999999999997,135.278748602846604854
0.153999999999999998,131.303123419713870135
0.154999999999999999,127.280091332773821478
0.156000000000000000,123.259288828088344303
0.157000000000000001,119.297399873371020362
0.158000000000000002,115.434818555389057337
0.159000000000000002,111.690978933763972236
0.160000000000000003,108.067877296089932315
0.161000000000000004,104.556147717935502328
0.162000000000000005,101.140926025531939558
0.163000000000000006,97.806375292012148748
0.164000000000000007,94.538622785908415835
0.165000000000000008,91.327280402228780076
0.166000000000000009,88.165882494779708622
0.167000000000000010,85.051597300418606551
0.168000000000000010,81.984523417571296022
0.169000000000000011,78.966813014376143087
0.170000000000000012,76.001791342775163685
0.171000000000000013,73.093178789833046949
0.172000000000000014,70.244471336328857092
0.173000000000000015,67.458498370843514635
0.174000000000000016,64.737151893261184910
0.175000000000000017,62.081266037403018743
0.176000000000000018,59.490618218978930543
0.177000000000000018,56.964020939135366461
0.178000000000000019,54.499474552756133505
0.179000000000000020,52.094354728659197917
0.180000000000000021,49.745612826856202560
0.181000000000000022,47.449972245780550395
0.182000000000000023,45.204108451243371292
0.183000000000000024,43.004804585692667729
0.184000000000000025,40.849078113140386392
0.185000000000000026,38.734276826758851087
0.186000000000000026,36.658144746446382101
0.187000000000000027,34.618860019246213255
0.188000000000000028,32.615047986381945577
0.189000000000000029,30.645773186443314273
0.190000000000000030,28.710514314684729698
0.191000000000000031,26.809126137462357065
0.192000000000000032,24.941792143265622883
0.193000000000000033,23.108971361467251171
0.194000000000000034,21.311342349483446412
0.195000000000000034,19.549746880393787052
0.196000000000000035,17.825135388328522623
0.197000000000000036,16.138515771612009786
0.198000000000000037,14.490906730019172954
0.199000000000000038,12.883296432860708691
0.200000000000000039,11.316606984513859047
0.201000000000000040,9.791664875343711216
0.202000000000000041,8.309177377883518290
0.203000000000000042,6.869714667898871419
0.204000000000000042,5.473697313507777551
0.205000000000000043,4.121388678078249157
0.206000000000000044,2.812891719024533721
0.207000000000000045,1.548149629690445339
0.208000000000000046,0.326949760223144981
0.209000000000000047,-0.851069738979824186
0.210000000000000048,-1.986411085287387746
0.211000000000000049,-3.079706344053492639
0.212000000000000050,-4.131705680849725226
0.213000000000000050,-5.143264799758773265
0.214000000000000051,-6.115331933503361128
0.215000000000000052,-7.048934702287813714
0.216000000000000053,-7.945167110201891703
0.217000000000000054,-8.805176902020498630
0.218000000000000055,-9.630153460064494908
0.219000000000000056,-10.421316381040002241
0.220000000000000057,-11.179904836810431235
0.221000000000000058,-11.907167791041942451
0.222000000000000058,-12.604355115648072427
0.223000000000000059,-13.272709626847221998
0.224000000000000060,-13.913460040283553099
0.225000000000000061,-14.527814827814870213
0.226000000000000062,-15.116956944970056043
0.227000000000000063,-15.682039387430171118
0.228000000000000064,-16.224181526879700499
0.229000000000000065,-16.744466170900970781
0.230000000000000066,-17.243937287936947911
0.231000000000000066,-17.723598336438680434
0.232000000000000067,-18.184411136865968217
0.233000000000000068,-18.627295225971412407
0.234000000000000069,-19.053127634536998869
0.235000000000000070,-19.462743032239139040
0.236000000000000071,-19.856934186407841025
0.237000000000000072,-20.236452684956830694
0.238000000000000073,-20.602009877550720773
0.239000000000000073,-20.954277993023389115
0.240000000000000074,-21.293891395069596939
0.241000000000000075,-21.621447942211624138
0.242000000000000076,-21.937510421929616200
0.243000000000000077,-22.242608032584612943
0.244000000000000078,-22.537237890314418820
0.245000000000000079,-22.821866541415069207
0.246000000000000080,-23.096931463814829755
0.247000000000000081,-23.362842544090451469
0.248000000000000081,-23.619983519060127719
0.249000000000000082,-23.868713373315689097
0.250000000000000111,-24.109367686132536335
0.251000000000000112,-24.342259923025277857
0.252000000000000113,-24.567682668816537728
0.253000000000000114,-24.785908800460852319
0.254000000000000115,-24.997192599039216532
0.255000000000000115,-25.201770801319156590
0.256000000000000116,-25.399863592083466557
0.257000000000000117,-25.591675539079624002
0.258000000000000118,-25.777396472948641559
0.259000000000000119,-25.957202314874166404
0.260000000000000120,-26.131255854962137875
0.261000000000000121,-26.299707484534430080
0.262000000000000122,-26.462695885609615942
0.263000000000000123,-26.620348680862434776
0.264000000000000123,-26.772783047312923799
0.265000000000000124,-26.920106296905935039
0.266000000000000125,-27.062416427013221920
0.267000000000000126,-27.199802643729366736
0.268000000000000127,-27.332345860650782754
0.269000000000000128,-27.460119175626335419
0.270000000000000129,-27.583188327758854541
0.271000000000000130,-27.701612136720932256
0.272000000000000131,-27.815442926231934706
0.273000000000000131,-27.924726933329271361
0.274000000000000132,-28.029504704858414499
0.275000000000000133,-28.129811482406523737
0.276000000000000134,-28.225677576714105044
0.277000000000000135,-28.317128732420474790
0.278000000000000136,-28.404186483834063637
0.279000000000000137,-28.486868502265188852
0.280000000000000138,-28.565188935321430108
0.281000000000000139,-28.639158738441086172
0.282000000000000139,-28.708785998830212094
0.283000000000000140,-28.774076251871889554
0.284000000000000141,-28.835032789993864100
0.285000000000000142,-28.891656963909735367
0.286000000000000143,-28.943948476091502897
0.287000000000000144,-28.991905666283866339
0.288000000000000145,-29.035525788835855110
0.289000000000000146,-29.074805281598127493
0.290000000000000147,-29.109740026118608114
0.291000000000000147,-29.140325598859277534
0.292000000000000148,-29.166557513156920578
0.293000000000000149,-29.188431451654743398
0.294000000000000150,-29.205943488943610475
0.295000000000000151,-29.219090304167842476
0.296000000000000152,-29.227869383370283174
0.297000000000000153,-29.232279211376134498
0.298000000000000154,-29.232319453041355928
0.299000000000000155,-29.227991123721238864
0.300000000000000155,-29.219296748845373202
0.301000000000000156,-29.206240512517702257
0.302000000000000157,-29.188828395093469936
0.303000000000000158,-29.167068299718103219
0.304000000000000159,-29.140970167846518279
0.305000000000000160,-29.110546083794115901
0.306000000000000161,-29.075810368403200101
0.307000000000000162,-29.036779661939682740
0.308000000000000163,-28.993472996365028393
0.309000000000000163,-28.945911857157057057
0.310000000000000164,-28.894120234880695364
0.311000000000000165,-28.838124666734536561
0.312000000000000166,-28.777954268323764353
0.313000000000000167,-28.713640755930960324
0.314000000000000168,-28.645218459576632597
0.315000000000000169,-28.572724327179479076
0.316000000000000170,-28.496197920142055438
0.317000000000000171,-28.415681400701952697
0.318000000000000171,-28.331219511400469457
0.319000000000000172,-28.242859547031429202
0.320000000000000173,-28.150651319440861187
0.321000000000000174,-28.054647115554917747
0.322000000000000175,-27.954901649018701448
0.323000000000000176,-27.851472005831432455
0.324000000000000177,-27.744417584365272944
0.325000000000000178,-27.633800030155232008
0.326000000000000179,-27.519683165846551276
0.327000000000000179,-27.402132916682781172
0.328000000000000180,-27.281217231914460797
0.329000000000000181,-27.157006002503504050
0.330000000000000182,-27.029570975491175489
0.331000000000000183,-26.898985665392238786
0.332000000000000184,-26.765325262968381992
0.333000000000000185,-26.628666541726254025
0.334000000000000186,-26.489087762475708843
0.335000000000000187,-26.346668576273707174
0.336000000000000187,-26.201489926069136516
0.337000000000000188,-26.053633947351890754
0.338000000000000189,-25.903183868099159071
0.339000000000000190,-25.750223908299272324
0.340000000000000191,-25.594839179321255074
0.341000000000000192,-25.437115583387040374
0.342000000000000193,-25.277139713389232156
0.343000000000000194,-25.114998753286389643
0.344000000000000195,-24.950780379293995281
0.345000000000000195,-24.784572662077639649
0.346000000000000196,-24.616463970141747808
0.347000000000000197,-24.446542874595355244
0.348000000000000198,-24.274898055463815183
0.349000000000000199,-24.101618209703421059
0.350000000000000200,-23.926791961064008518
0.351000000000000201,-23.750507771932909407
0.352000000000000202,-23.572853857282275669
0.353000000000000203,-23.393918100830749296
0.354000000000000203,-23.213787973519554697
0.355000000000000204,-23.032550454392438866
0.356000000000000205,-22.850291953959185776
0.357000000000000206,-22.667098240112160568
0.358000000000000207,-22.483054366655874645
0.359000000000000208,-22.298244604500915500
0.360000000000000209,-22.112752375564234342
0.361000000000000210,-21.926660189409915347
0.362000000000000210,-21.740049582656133964
0.363000000000000211,-21.553001061166778385
0.364000000000000212,-21.365594045038704962
0.365000000000000213,-21.177906816388688327
0.366000000000000214,-20.990016469937962995
0.367000000000000215,-20.801998866385623899
0.368000000000000216,-20.613928588556813537
0.369000000000000217,-20.425878900305900032
0.370000000000000218,-20.237921708150061306
0.371000000000000218,-20.050127525603567591
0.372000000000000219,-19.862565440179114518
0.373000000000000220,-19.675303083018071959
0.374000000000000221,-19.488406601108195559
0.375000000000000222,-19.301940632043361745
0.376000000000000223,-19.115968281277247343
0.377000000000000224,-18.930551101819776960
0.378000000000000225,-18.745749076322489657
0.379000000000000226,-18.561620601496848337
0.380000000000000226,-18.378222474807511588
0.381000000000000227,-18.195609883380257088
0.382000000000000228,-18.013836395063499651
0.383000000000000229,-17.832953951580286400
0.384000000000000230,-17.653012863706738500
0.385000000000000231,-17.474061808412212571
0.386000000000000232,-17.296147827895360649
0.387000000000000233,-17.119316330449855457
0.388000000000000234,-16.943611093093227993
0.389000000000000234,-16.769074265892083275
0.390000000000000235,-16.595746377916519521
0.391000000000000236,-16.423666344757371860
0.392000000000000237,-16.252871477539251543
0.393000000000000238,-16.083397493363566610
0.394000000000000239,-15.915278527115418683
0.395000000000000240,-15.748547144569386091
0.396000000000000241,-15.583234356729704473
0.397000000000000242,-15.419369635340839153
0.398000000000000242,-15.256980929506074318
0.399000000000000243,-15.096094683351690691
0.400000000000000244,-14.936735854676019386
0.401000000000000245,-14.778927934523732546
0.402000000000000246,-14.622692967626369054
0.403000000000000247,-14.468051573651710129
0.404000000000000248,-14.315022969205838166
0.405000000000000249,-14.163624990532870385
0.406000000000000250,-14.013874116858591634
0.407000000000000250,-13.865785494325937321
0.408000000000000251,-13.719372960471114098
0.409000000000000252,-13.574649069191181638
0.410000000000000253,-13.431625116154654265
0.411000000000000254,-13.290311164608800354
0.412000000000000255,-13.150716071538150587
0.413000000000000256,-13.012847514130687188
0.414000000000000257,-12.876712016509159753
0.415000000000000258,-12.742314976686964556
0.416000000000000258,-12.609660693708935497
0.417000000000000259,-12.478752394939213843
0.418000000000000260,-12.349592263459719277
0.419000000000000261,-12.222181465543972223
0.420000000000000262,-12.096520178172772475
0.421000000000000263,-11.972607616559383104
0.422000000000000264,-11.850442061653259529
0.423000000000000265,-11.730020887592823797
0.424000000000000266,-11.611340589079254926
0.425000000000000266,-11.494396808644140151
0.426000000000000267,-11.379184363785649126
0.427000000000000268,-11.265697273948816814
0.428000000000000269,-11.153928787326924166
0.429000000000000270,-11.043871407462212630
0.430000000000000271,-10.935516919625165144
0.431000000000000272,-10.828856416953041020
0.432000000000000273,-10.723880326329290114
0.433000000000000274,-10.620578433986665345
0.434000000000000274,-10.518939910817843852
0.435000000000000275,-10.418953337378653146
0.436000000000000276,-10.320606728569742927
0.437000000000000277,-10.223887557983648122
0.438000000000000278,-10.128782781905304233
0.439000000000000279,-10.035278862954797319
0.440000000000000280,-9.943361793362072376
0.441000000000000281,-9.853017117864368402
0.442000000000000282,-9.764229956217846507
0.443000000000000282,-9.676985025315646638
0.444000000000000283,-9.591266660905624519
0.445000000000000284,-9.507058838901569331
0.446000000000000285,-9.424345196282418513
0.447000000000000286,-9.343109051575057222
0.448000000000000287,-9.263333424916336156
0.449000000000000288,-9.185001057691270177
0.450000000000000289,-9.108094431744472530
0.451000000000000290,-9.032595788162776529
0.452000000000000290,-8.958487145627492154
0.453000000000000291,-8.885750318335226439
0.454000000000000292,-8.814366933486825317
0.455000000000000293,-8.744318448344374772
0.456000000000000294,-8.675586166856840364
0.457000000000000295,-8.608151255855123196
0.458000000000000296,-8.541994760818042209
0.459000000000000297,-8.477097621210878842
0.460000000000000298,-8.413440685398692054
0.461000000000000298,-8.351004725136881746
0.462000000000000299,-8.289770449641892469
0.463000000000000300,-8.229718519245135866
0.464000000000000301,-8.170829558633709411
0.465000000000000302,-8.113084169681645363
0.466000000000000303,-8.056462943875667193
0.467000000000000304,-8.000946474339750480
0.468000000000000305,-7.946515367463073964
0.469000000000000306,-7.893150254135965938
0.470000000000000306,-7.840831800598893508
0.471000000000000307,-7.789540718909452544
0.472000000000000308,-7.739257777032851671
0.473000000000000309,-7.689963808561131486
0.474000000000000310,-7.641639722066775775
0.475000000000000311,-7.594266510096460365
0.476000000000000312,-7.547825257810768740
0.477000000000000313,-7.502297151275678644
0.478000000000000314,-7.457663485412008519
0.479000000000000314,-7.413905671608864267
0.480000000000000315,-7.371005245007191675
0.481000000000000316,-7.328943871459850712
0.482000000000000317,-7.287703354174277948
0.483000000000000318,-7.247265640044266100
0.484000000000000319,-7.207612825677077062
0.485000000000000320,-7.168727163122400547
0.486000000000000321,-7.130591065309459964
0.487000000000000322,-7.093187111198727912
0.488000000000000322,-7.056498050654634646
0.489000000000000323,-7.020506809045746976
0.490000000000000324,-6.985196491578706812
0.491000000000000325,-6.950550387372399719
0.492000000000000326,-6.916551973278626697
0.493000000000000327,-6.883184917455656304
0.494000000000000328,-6.850433082700919662
0.495000000000000329,-6.818280529549089586
0.496000000000000330,-6.786711519141722881
0.497000000000000330,-6.755710515874682187
0.498000000000000331,-6.725262189829328108
0.499000000000000332,-6.695351418993615411
0.500000000000000333,-6.665963291279022762
0.501000000000000334,-6.637083106339214389
0.502000000000000335,-6.608696377196298322
0.503000000000000336,-6.580788831680467688
0.504000000000000337,-6.553346413688700522
0.505000000000000338,-6.526355284268140267
0.506000000000000338,-6.499801822529718720
0.507000000000000339,-6.473672626397480201
0.508000000000000340,-6.447954513198993709
0.509000000000000341,-6.422634520102166178
0.510000000000000342,-6.397699904403654436
0.511000000000000343,-6.373138143674010436
0.512000000000000344,-6.348936935764627698
0.513000000000000345,-6.325084198681400594
0.514000000000000346,-6.301568070330042737
0.515000000000000346,-6.278376908137737189
0.516000000000000347,-6.255499288555880000
0.517000000000000348,-6.232924006448549825
0.518000000000000349,-6.210640074371051256
0.519000000000000350,-6.188636721743149494
0.520000000000000351,-6.166903393921181475
0.521000000000000352,-6.145429751173344890
0.522000000000000353,-6.124205667562251598
0.523000000000000353,-6.103221229738849729
0.524000000000000354,-6.082466735651673062
0.525000000000000355,-6.061932693175239528
0.526000000000000356,-6.041609818661417997
0.527000000000000357,-6.021489035417484814
0.528000000000000358,-6.001561472114387286
0.529000000000000359,-5.981818461128816544
0.530000000000000360,-5.962251536822472886
0.531000000000000361,-5.942852433761869335
0.532000000000000361,-5.923613084881941049
0.533000000000000362,-5.904525619596616259
0.534000000000000363,-5.885582361859469813
0.535000000000000364,-5.866775828177398289
0.536000000000000365,-5.848098725580319623
0.537000000000000366,-5.829543949549673698
0.538000000000000367,-5.811104581908499433
0.539000000000000368,-5.792773888675824878
0.540000000000000369,-5.774545317887867846
0.541000000000000369,-5.756412497388692096
0.542000000000000370,-5.738369232592686053
0.543000000000000371,-5.720409504221263930
0.544000000000000372,-5.702527466016134916
0.545000000000000373,-5.684717442431320045
0.546000000000000374,-5.666973926306082099
0.547000000000000375,-5.649291576520892200
0.548000000000000376,-5.631665215638470556
0.549000000000000377,-5.614089827531793198
0.550000000000000377,-5.596560555000984039
0.551000000000000378,-5.579072697380975221
0.552000000000000379,-5.561621708141613496
0.553000000000000380,-5.544203192481961473
0.554000000000000381,-5.526812904920426206
0.555000000000000382,-5.509446746882320056
0.556000000000000383,-5.492100764286291792
0.557000000000000384,-5.474771145131225758
0.558000000000000385,-5.457454217084880987
0.559000000000000385,-5.440146445075756176
0.560000000000000386,-5.422844428889344925
0.561000000000000387,-5.405544900770172134
0.562000000000000388,-5.388244723030688021
0.563000000000000389,-5.370940885668261444
0.564000000000000390,-5.353630503991302803
0.565000000000000391,-5.336310816255611655
0.566000000000000392,-5.318979181311947357
0.567000000000000393,-5.301633076265786393
0.568000000000000393,-5.284270094150154584
0.569000000000000394,-5.266887941612444557
0.570000000000000395,-5.249484436616058680
0.571000000000000396,-5.232057506157604010
0.572000000000000397,-5.214605184000491001
0.573000000000000398,-5.197125608425562149
0.574000000000000399,-5.179617019999469107
0.575000000000000400,-5.162077759361443086
0.576000000000000401,-5.144506265029024306
0.577000000000000401,-5.126901071223392670
0.578000000000000402,-5.109260805714760600
0.579000000000000403,-5.091584187688354746
0.580000000000000404,-5.073870025631515901
0.581000000000000405,-5.056117215242272422
0.582000000000000406,-5.038324737359856975
0.583000000000000407,-5.020491655917532547
0.584000000000000408,-5.002617115918100765
0.585000000000000409,-4.984700341432381165
0.586000000000000409,-4.966740633621022027
0.587000000000000410,-4.948737368779874579
0.588000000000000411,-4.930689996409197917
0.589000000000000412,-4.912598037306947774
0.590000000000000413,-4.894461081686307224
0.591000000000000414,-4.876278787317699148
0.592000000000000415,-4.858050877695410996
0.593000000000000416,-4.839777140228971319
0.594000000000000417,-4.821457424459415719
0.595000000000000417,-4.803091640300580778
0.596000000000000418,-4.784679756305394882
0.597000000000000419,-4.766221797957403972
0.598000000000000420,-4.747717845987428298
0.599000000000000421,-4.729168034715470981
0.600000000000000422,-4.710572550417874815
0.601000000000000423,-4.691931629719729990
0.602000000000000424,-4.673245558012507850
0.603000000000000425,-4.654514667896934910
0.604000000000000425,-4.635739337651013869
0.605000000000000426,-4.616919989723174744
0.606000000000000427,-4.598057089250515261
0.607000000000000428,-4.579151142601949331
