# Cu110_CS-13420-AC
# h[nm],U(h)[kJ/mol]
0.149999999999999994,98.487787556700695291
0.150999999999999995,95.560395599742534500
0.151999999999999996,92.718737842440688723
0.152999999999999997,89.918825009437071571
0.153999999999999998,87.170853253011031825
0.154999999999999999,84.494479376633123024
0.156000000000000000,81.902183231986299461
0.157000000000000001,79.396132259393681352
0.158000000000000002,76.970549011246475857
0.159000000000000002,74.615493267737576844
0.160000000000000003,72.320207549247371048
0.161000000000000004,70.075388025636826228
0.162000000000000005,67.874347365707961899
0.163000000000000006,65.713292909774651207
0.164000000000000007,63.591013017170133992
0.165000000000000008,61.508242202669180188
0.166000000000000009,59.466916537840987189
0.167000000000000010,57.469464304839355862
0.168000000000000010,55.518217430352841291
0.169000000000000011,53.614982421353019504
0.170000000000000012,51.760776239518193620
0.171000000000000013,49.955711320698341638
0.172000000000000014,48.199002381319097310
0.173000000000000015,46.489063225166923132
0.174000000000000016,44.823662190360082036
0.175000000000000017,43.200108285858981105
0.176000000000000018,41.615445029021294943
0.177000000000000018,40.066634485719930581
0.178000000000000019,38.550719349073339970
0.179000000000000020,37.064955657863976057
0.180000000000000021,35.606912738369274507
0.181000000000000022,34.174540082907235217
0.182000000000000023,32.766203178564595078
0.183000000000000024,31.380691851281916627
0.184000000000000025,30.017205604638924399
0.185000000000000026,28.675320830909878822
0.186000000000000026,27.354944773672475122
0.187000000000000027,26.056260835815418631
0.188000000000000028,24.779669349187791738
0.189000000000000029,23.525727331289029820
0.190000000000000030,22.295090113154024891
0.191000000000000031,21.088457078814165868
0.192000000000000032,19.906523145008346631
0.193000000000000033,18.749937053488835659
0.194000000000000034,17.619267061376749695
0.195000000000000034,16.514974204305651995
0.196000000000000035,15.437392973725119205
0.197000000000000036,14.386718990838456733
0.198000000000000037,13.363003069573853310
0.199000000000000038,12.366150932357472314
0.200000000000000039,11.395927766987382412
0.201000000000000040,10.451966782032698688
0.202000000000000041,9.533780923520925654
0.203000000000000042,8.640776949350492231
0.204000000000000042,7.772271112704137508
0.205000000000000043,6.927505775410052635
0.206000000000000044,6.105666351240666145
0.207000000000000045,5.305898062982262964
0.208000000000000046,4.527322082015612814
0.209000000000000047,3.769050702165780642
0.210000000000000048,3.030201278457969050
0.211000000000000049,2.309908734525462748
0.212000000000000050,1.607336508652828400
0.213000000000000050,0.921685867156545768
0.214000000000000051,0.252203564716073081
0.215000000000000052,-0.401812125613781213
0.216000000000000053,-1.041006954416554775
0.217000000000000054,-1.665967723245712850
0.218000000000000055,-2.277220688765388523
0.219000000000000056,-2.875231219394742688
0.220000000000000057,-3.460404569707628220
0.221000000000000058,-4.033087632071785222
0.222000000000000058,-4.593571523266148482
0.223000000000000059,-5.142094865438861184
0.224000000000000060,-5.678847625164714863
0.225000000000000061,-6.203975380964044106
0.226000000000000062,-6.717583897944757965
0.227000000000000063,-7.219743897768667651
0.228000000000000064,-7.710495922516085621
0.229000000000000065,-8.189855201881366398
0.230000000000000066,-8.657816444172787840
0.231000000000000066,-9.114358482566965236
0.232000000000000067,-9.559448718770177322
0.233000000000000068,-9.993047316505970556
0.234000000000000069,-10.415111106949442643
0.235000000000000070,-10.825597177271571780
0.236000000000000071,-11.224466121773737370
0.237000000000000072,-11.611684942646038010
0.238000000000000073,-11.987229594150159429
0.239000000000000073,-12.351087170008900884
0.240000000000000074,-12.703257738995072046
0.241000000000000075,-13.043755838173103356
0.242000000000000076,-13.372611636996287743
0.243000000000000077,-13.689871788540035169
0.244000000000000078,-13.995599986604151610
0.245000000000000079,-14.289877249294590911
0.246000000000000080,-14.572801951048607094
0.247000000000000081,-14.844489625950572531
0.248000000000000081,-15.105072565648049121
0.249000000000000082,-15.354699235271940694
0.250000000000000111,-15.593533530538717713
0.251000000000000112,-15.821753898712007214
0.252000000000000113,-16.039552345371483000
0.253000000000000114,-16.247133348015346144
0.254000000000000115,-16.444712696451372125
0.255000000000000115,-16.632516278739522875
0.256000000000000116,-16.810778830171340559
0.257000000000000117,-16.979742661433014916
0.258000000000000118,-17.139656380725373452
0.259000000000000119,-17.290773623227003952
0.260000000000000120,-17.433351799904997392
0.261000000000000121,-17.567650876315759945
0.262000000000000122,-17.693932190712647667
0.263000000000000123,-17.812457319495329955
0.264000000000000123,-17.923486996810428451
0.265000000000000124,-18.027280093948157003
0.266000000000000125,-18.124092663083622767
0.267000000000000126,-18.214177048885645149
0.268000000000000127,-18.297781070564894890
0.269000000000000128,-18.375147276056956969
0.270000000000000129,-18.446512269235121551
0.271000000000000130,-18.512106110322701369
0.272000000000000131,-18.572151789022058210
0.273000000000000131,-18.626864769297714730
0.274000000000000132,-18.676452604239365485
0.275000000000000133,-18.721114618985858158
0.276000000000000134,-18.761041659308951068
0.277000000000000135,-18.796415903132874803
0.278000000000000136,-18.827410731999020044
0.279000000000000137,-18.854190659269967512
0.280000000000000138,-18.876911311700137475
0.281000000000000139,-18.895719460877863582
0.282000000000000139,-18.910753100961649409
0.283000000000000140,-18.922141569088065438
0.284000000000000141,-18.930005704816341705
0.285000000000000142,-18.934458044992688031
0.286000000000000143,-18.935603050460944274
0.287000000000000144,-18.933537361112790620
0.288000000000000145,-18.928350075858677570
0.289000000000000146,-18.920123054203870083
0.290000000000000147,-18.908931236233854634
0.291000000000000147,-18.894842977943717699
0.292000000000000148,-18.877920398987548367
0.293000000000000149,-18.858219740071987758
0.294000000000000150,-18.835791727372928506
0.295000000000000151,-18.810681941512520154
0.296000000000000152,-18.782931188794584898
0.297000000000000153,-18.752575872558566061
0.298000000000000154,-18.719648362673595443
0.299000000000000155,-18.684177361354663560
0.300000000000000155,-18.646188263640645744
0.301000000000000156,-18.605703511028533370
0.302000000000000157,-18.562742936908914970
0.303000000000000158,-18.517324102593484270
0.304000000000000159,-18.469462622866593904
0.305000000000000160,-18.419172480127375735
0.306000000000000161,-18.366466326318924729
0.307000000000000162,-18.311355771963576444
0.308000000000000163,-18.253851661740128520
0.309000000000000163,-18.193964336148820138
0.310000000000000164,-18.131703878913647543
0.311000000000000165,-18.067080349867904232
0.312000000000000166,-18.000104003159730581
0.313000000000000167,-17.930785490697683571
0.314000000000000168,-17.859136050833903653
0.315000000000000169,-17.785167682353350216
0.316000000000000170,-17.708893303902666361
0.317000000000000171,-17.630326899051045331
0.318000000000000171,-17.549483647228711902
0.319000000000000172,-17.466380040836654075
0.320000000000000173,-17.381033988863322293
0.321000000000000174,-17.293464907381739692
0.322000000000000175,-17.203693797333080795
0.323000000000000176,-17.111743310030718135
0.324000000000000177,-17.017637800842901896
0.325000000000000178,-16.921403371531543058
0.326000000000000179,-16.823067901741275421
0.327000000000000179,-16.722661070144759776
0.328000000000000180,-16.620214365759807151
0.329000000000000181,-16.515761089960303565
0.330000000000000182,-16.409336349705352376
0.331000000000000183,-16.300977042513039805
0.332000000000000184,-16.190721833702539811
0.333000000000000185,-16.078611126425244038
0.334000000000000186,-15.964687024999472342
0.335000000000000187,-15.848993292055942206
0.336000000000000187,-15.731575299992289985
0.337000000000000188,-15.612479977224021255
0.338000000000000189,-15.491755749708158163
0.339000000000000190,-15.369452478202489942
0.340000000000000191,-15.245621391709837766
0.341000000000000192,-15.120315017542518277
0.342000000000000193,-14.993587108426197574
0.343000000000000194,-14.865492567047642325
0.344000000000000195,-14.736087368433578249
0.345000000000000195,-14.605428480532481217
0.346000000000000196,-14.473573783353334221
0.347000000000000197,-14.340581986999321629
0.348000000000000198,-14.206512548917094918
0.349000000000000199,-14.071425590665251448
0.350000000000000200,-13.935381814489209873
0.351000000000000201,-13.798442419972463568
0.352000000000000202,-13.660669021018069458
0.353000000000000203,-13.522123563397835611
0.354000000000000203,-13.382868243090641158
0.355000000000000204,-13.242965425615739861
0.356000000000000205,-13.102477566551684163
0.357000000000000206,-12.961467133416624264
0.358000000000000207,-12.819996529071033819
0.359000000000000208,-12.678128016790342514
0.360000000000000209,-12.535923647141025583
0.361000000000000210,-12.393445186780812861
0.362000000000000210,-12.250754049290980774
0.363000000000000211,-12.107911228136714499
0.364000000000000212,-11.964977231839847960
0.365000000000000213,-11.822012021437178220
0.366000000000000214,-11.679074950287040124
0.367000000000000215,-11.536224706276657415
0.368000000000000216,-11.393519256473288337
0.369000000000000217,-11.251015794252989366
0.370000000000000218,-11.108770688932370518
0.371000000000000218,-10.966839437920393507
0.372000000000000219,-10.825276621399822830
0.373000000000000220,-10.684135859540631941
0.374000000000000221,-10.543469772241078175
0.375000000000000222,-10.403329941385623059
0.376000000000000223,-10.263766875603346662
0.377000000000000224,-10.124829977504829159
0.378000000000000225,-9.986567513370582461
0.379000000000000226,-9.849026585259355926
0.380000000000000226,-9.712253105500586514
0.381000000000000227,-9.576291773531014684
0.382000000000000228,-9.441186055032449786
0.383000000000000229,-9.306978163323966768
0.384000000000000230,-9.173709042959179882
0.385000000000000231,-9.041418355476704249
0.386000000000000232,-8.910144467249503819
0.387000000000000233,-8.779924439376822320
0.388000000000000234,-8.650794019560743564
0.389000000000000234,-8.522787635907986825
0.390000000000000235,-8.395938392595946098
0.391000000000000236,-8.270278067341624961
0.392000000000000237,-8.145837110610475662
0.393000000000000238,-8.022644646502374854
0.394000000000000239,-7.900728475250891059
0.395000000000000240,-7.780115077272164115
0.396000000000000241,-7.660829618699523280
0.397000000000000242,-7.542895958339966178
0.398000000000000242,-7.426336655989020485
0.399000000000000243,-7.311172982040778479
0.400000000000000244,-7.197424928330249827
0.401000000000000245,-7.085111220146153244
0.402000000000000246,-6.974249329352590010
0.403000000000000247,-6.864855488558935015
0.404000000000000248,-6.756944706278429358
0.405000000000000249,-6.650530783016596281
0.406000000000000250,-6.545626328231809232
0.407000000000000250,-6.442242778111489265
0.408000000000000251,-6.340390414108428629
0.409000000000000252,-6.240078382183174455
0.410000000000000253,-6.141314712699402989
0.411000000000000254,-6.044106340920800235
0.412000000000000255,-5.948459128059073286
0.413000000000000256,-5.854377882824275403
0.414000000000000257,-5.761866383429804728
0.415000000000000258,-5.670927400006095631
0.416000000000000258,-5.581562717378227845
0.417000000000000259,-5.493773158164257708
0.418000000000000260,-5.407558606152450764
0.419000000000000261,-5.322918029917018679
0.420000000000000262,-5.239849506633494691
0.421000000000000263,-5.158350246056256694
0.422000000000000264,-5.078416614622122793
0.423000000000000265,-5.000044159645362640
0.424000000000000266,-4.923227633571067408
0.425000000000000266,-4.847961018254846266
0.426000000000000267,-4.774237549238579348
0.427000000000000268,-4.702049739993081623
0.428000000000000269,-4.631389406099954087
0.429000000000000270,-4.562247689346244250
0.430000000000000271,-4.494615081706743176
0.431000000000000272,-4.428481449190170949
0.432000000000000273,-4.363836055526556734
0.433000000000000274,-4.300667585674555760
0.434000000000000274,-4.238964169128428772
0.435000000000000275,-4.178713403005760441
0.436000000000000276,-4.119902374898030573
0.437000000000000277,-4.062517685467232909
0.438000000000000278,-4.006545470772929995
0.439000000000000279,-3.951971424315119830
0.440000000000000280,-3.898780818779246538
0.441000000000000281,-3.846958527470781597
0.442000000000000282,-3.796489045427769327
0.443000000000000282,-3.747356510200481328
0.444000000000000283,-3.699544722288519161
0.445000000000000284,-3.653037165226282745
0.446000000000000285,-3.607817025308685199
0.447000000000000286,-3.563867210949966502
0.448000000000000287,-3.521170371668816301
0.449000000000000288,-3.479708916694296050
0.450000000000000289,-3.439465033187299348
0.451000000000000290,-3.400420704073310763
0.452000000000000290,-3.362557725482697268
0.453000000000000291,-3.325857723795511589
0.454000000000000292,-3.290302172288349425
0.455000000000000293,-3.255872407381358524
0.456000000000000294,-3.222549644484170805
0.457000000000000295,-3.190314993439875124
0.458000000000000296,-3.159149473566866817
0.459000000000000297,-3.129034028298705472
0.460000000000000298,-3.099949539422707456
0.461000000000000298,-3.071876840918332796
0.462000000000000299,-3.044796732396948258
0.463000000000000300,-3.018689992144796719
0.464000000000000301,-2.993537389771518953
0.465000000000000302,-2.969319698466835522
0.466000000000000303,-2.946017706868321095
0.467000000000000304,-2.923612230543537915
0.468000000000000305,-2.902084123090120205
0.469000000000000306,-2.881414286857572726
0.470000000000000306,-2.861583683294894431
0.471000000000000307,-2.842573342928309543
0.472000000000000308,-2.824364374973668212
0.473000000000000309,-2.806937976588194328
0.474000000000000310,-2.790275441766521425
0.475000000000000311,-2.774358169886114389
0.476000000000000312,-2.759167673907309215
0.477000000000000313,-2.744685588233311879
0.478000000000000314,-2.730893676235741641
0.479000000000000314,-2.717773837451311625
0.480000000000000315,-2.705308114455352353
0.481000000000000316,-2.693478699418088151
0.482000000000000317,-2.682267940349460478
0.483000000000000318,-2.671658347038591064
0.484000000000000319,-2.661632596693816133
0.485000000000000320,-2.652173539289473414
0.486000000000000321,-2.643264202625495329
0.487000000000000322,-2.634887797106009621
0.488000000000000322,-2.627027720243097608
0.489000000000000323,-2.619667560891934421
0.490000000000000324,-2.612791103223496503
0.491000000000000325,-2.606382330441047834
0.492000000000000326,-2.600425428246562642
0.493000000000000327,-2.594904788063326695
0.494000000000000328,-2.589805010020815423
0.495000000000000329,-2.585110905708014606
0.496000000000000330,-2.580807500701278734
0.497000000000000330,-2.576880036872764457
0.498000000000000331,-2.573313974485511579
0.499000000000000332,-2.570094994081071338
0.500000000000000333,-2.567208998165682488
0.501000000000000334,-2.564642112700798560
0.502000000000000335,-2.562380688403811391
0.503000000000000336,-2.560411301864696121
0.504000000000000337,-2.558720756484269554
0.505000000000000338,-2.557296083239664952
0.506000000000000338,-2.556124541282560614
0.507000000000000339,-2.555193618375639186
0.508000000000000340,-2.554491031172642312
0.509000000000000341,-2.554004725347363891
0.510000000000000342,-2.553722875576780460
0.511000000000000343,-2.553633885383479907
0.512000000000000344,-2.553726386842451568
0.513000000000000345,-2.553989240157208407
0.514000000000000346,-2.554411533110161781
0.515000000000000346,-2.554982580392004987
0.516000000000000347,-2.555691922814851580
0.517000000000000348,-2.556529326413785164
0.518000000000000349,-2.557484781441288213
0.519000000000000350,-2.558548501259046759
0.520000000000000351,-2.559710921131505668
0.521000000000000352,-2.560962696925384918
0.522000000000000353,-2.562294703719377065
0.523000000000000353,-2.563698034328095954
0.524000000000000354,-2.565163997744277946
0.525000000000000355,-2.566684117503143625
0.526000000000000356,-2.568250129972709850
0.527000000000000357,-2.569853982573819362
0.528000000000000358,-2.571487831933495283
0.529000000000000359,-2.573144041975159890
0.530000000000000360,-2.574815181949206888
0.531000000000000361,-2.576494024407274708
0.532000000000000361,-2.578173543123515099
0.533000000000000362,-2.579846910966046458
0.534000000000000363,-2.581507497721728051
0.535000000000000364,-2.583148867877245181
0.536000000000000365,-2.584764778359494475
0.537000000000000366,-2.586349176238099457
0.538000000000000367,-2.587896196392846626
0.539000000000000368,-2.589400159148766534
0.540000000000000369,-2.590855567881433785
0.541000000000000369,-2.592257106595080796
0.542000000000000370,-2.593599637475961117
0.543000000000000371,-2.594878198423349769
0.544000000000000372,-2.596088000560530240
0.545000000000000373,-2.597224425727966413
0.546000000000000374,-2.598283023960857641
0.547000000000000375,-2.599259510953162877
0.548000000000000376,-2.600149765510149535
0.549000000000000377,-2.600949826991379776
0.550000000000000377,-2.601655892746060239
0.551000000000000378,-2.602264315542581752
0.552000000000000379,-2.602771600994001400
0.553000000000000380,-2.603174404981163370
0.554000000000000381,-2.603469531075091936
0.555000000000000382,-2.603653927960262404
0.556000000000000383,-2.603724686860211524
0.557000000000000384,-2.603679038966988379
0.558000000000000385,-2.603514352875820670
0.559000000000000385,-2.603228132026372599
0.560000000000000386,-2.602818012151812077
0.561000000000000387,-2.602281758737016393
0.562000000000000388,-2.601617264487018133
0.563000000000000389,-2.600822546806882407
0.564000000000000390,-2.599895745294040328
0.565000000000000391,-2.598835119244173431
0.566000000000000392,-2.597639045171590944
0.567000000000000393,-2.596306014345048041
0.568000000000000393,-2.594834630339911907
0.569000000000000394,-2.593223606607521159
0.570000000000000395,-2.591471764062543315
0.571000000000000396,-2.589578028689091926
0.572000000000000397,-2.587541429166348106
0.573000000000000398,-2.585361094514357028
0.574000000000000399,-2.583036251760644220
0.575000000000000400,-2.580566223628286693
0.576000000000000401,-2.577950426245974480
0.577000000000000401,-2.575188366880657220
0.578000000000000402,-2.572279641693227425
0.579000000000000403,-2.569223933517734260
0.580000000000000404,-2.566021009664595898
0.581000000000000405,-2.562670719748167958
0.582000000000000406,-2.559172993539086782
0.583000000000000407,-2.555527838841725519
0.584000000000000408,-2.551735339397092961
0.585000000000000409,-2.547795652811426947
0.586000000000000409,-2.543709008510834479
0.587000000000000410,-2.539475705722137100
0.588000000000000411,-2.535096111480180436
0.589000000000000412,-2.530570658661808636
0.590000000000000413,-2.525899844046633369
0.591000000000000414,-2.521084226404798123
0.592000000000000415,-2.516124424611831945
0.593000000000000416,-2.511021115790688540
0.594000000000000417,-2.505775033481094649
0.595000000000000417,-2.500386965836250308
0.596000000000000418,-2.494857753846905446
0.597000000000000419,-2.489188289592913161
0.598000000000000420,-2.483379514522184639
0.599000000000000421,-2.477432417757112759
0.600000000000000422,-2.471348034428410223
0.601000000000000423,-2.465127444036327553
0.602000000000000424,-2.458771768839215888
0.603000000000000425,-2.452282172269370175
0.604000000000000425,-2.445659857376053736
0.605000000000000426,-2.438906065295637582
0.606000000000000427,-2.432022073748762558
0.607000000000000428,-2.425009195564348019
0.608000000000000429,-2.417868777230431920
0.609000000000000430,-2.410602197471565677
0.610000000000000431,-2.403210865852774880
