# Cu110_CS-13867413-AC
# h[nm],U(h)[kJ/mol]
0.200000000000000011,107.963250064757630753
0.201000000000000012,101.846781429058125923
0.202000000000000013,98.077103351388188912
0.203000000000000014,95.392908263899840904
0.204000000000000015,93.080157683782545064
0.205000000000000016,90.773663868376345931
0.206000000000000016,88.321288057588304810
0.207000000000000017,85.693002675112865063
0.208000000000000018,82.921698477219280221
0.209000000000000019,80.066116443099730304
0.210000000000000020,77.188912887947566333
0.211000000000000021,74.344830048577037473
0.212000000000000022,71.575401952944545769
0.213000000000000023,68.907699183042495861
0.214000000000000024,66.355400373618351750
0.215000000000000024,63.921045199853395502
0.216000000000000025,61.598728407896906845
0.217000000000000026,59.376779165921917070
0.218000000000000027,57.240166519869248418
0.219000000000000028,55.172504056843976628
0.220000000000000029,53.157613032003027342
0.221000000000000030,51.180656630403404961
0.222000000000000031,49.228888644724428048
0.223000000000000032,47.292074932673749288
0.224000000000000032,45.362650854189070060
0.225000000000000033,43.435676258910795866
0.226000000000000034,41.508644162936107591
0.227000000000000035,39.581191859811866607
0.228000000000000036,37.654755089594708295
0.229000000000000037,35.732197840293494551
0.230000000000000038,33.817442865097525839
0.231000000000000039,31.915121334958818977
0.232000000000000040,30.030254328127561791
0.233000000000000040,28.167974105563040155
0.234000000000000041,26.333289290195402543
0.235000000000000042,24.530895078136843779
0.236000000000000043,22.765027361452379040
0.237000000000000044,21.039358028632921815
0.238000000000000045,19.356927625487070799
0.239000000000000046,17.720110907277309309
0.240000000000000047,16.130610503382808218
0.241000000000000048,14.589473870126344224
0.242000000000000048,13.097128858249201144
0.243000000000000049,11.653433512197066690
0.244000000000000050,10.257736102244605192
0.245000000000000051,8.908941829899980291
0.246000000000000052,7.605583112356410602
0.247000000000000053,6.345890820199534765
0.248000000000000054,5.127864297194791199
0.249000000000000055,3.949338419665466837
0.250000000000000056,2.808046347601057757
0.251000000000000056,1.701676975272342629
0.252000000000000057,0.627926403349737483
0.253000000000000058,-0.415456973157664611
0.254000000000000059,-1.430633935446985916
0.255000000000000060,-2.419642451807453742
0.256000000000000061,-3.384372054470207836
0.257000000000000062,-4.326544284849932254
0.258000000000000063,-5.247698816040498926
0.259000000000000064,-6.149184793999834753
0.260000000000000064,-7.032156894126278424
0.261000000000000065,-7.897575564576979623
0.262000000000000066,-8.746210918597773443
0.263000000000000067,-9.578649742441534443
0.264000000000000068,-10.395305100538498877
0.265000000000000069,-11.196428043103791694
0.266000000000000070,-11.982120951253332208
0.267000000000000071,-12.752352089149971093
0.268000000000000071,-13.506970970161640722
0.269000000000000072,-14.245724183172256971
0.270000000000000073,-14.968271364944342849
0.271000000000000074,-15.674201043891741847
0.272000000000000075,-16.363046119060491890
0.273000000000000076,-17.034298774967236767
0.274000000000000077,-17.687424667784682697
0.275000000000000078,-18.321876250878968762
0.276000000000000079,-18.937105137690970480
0.277000000000000079,-19.532573427290905954
0.278000000000000080,-20.107763942571544646
0.279000000000000081,-20.662189352993610925
0.280000000000000082,-21.195400173110289899
0.281000000000000083,-21.706991644872982050
0.282000000000000084,-22.196609526077821783
0.283000000000000085,-22.663954819396547435
0.284000000000000086,-23.108787486403620903
0.285000000000000087,-23.530929199028129517
0.286000000000000087,-23.930265187097795376
0.287000000000000088,-24.306745245272015410
0.288000000000000089,-24.660383965850247279
0.289000000000000090,-24.991260265856620748
0.290000000000000091,-25.299516277594932490
0.291000000000000092,-25.585355671693662316
0.292000000000000093,-25.849041480653077940
0.293000000000000094,-26.090893489199551425
0.294000000000000095,-26.311285255463424448
0.295000000000000095,-26.510640824237384550
0.296000000000000096,-26.689431190439631081
0.297000000000000097,-26.848170567491980165
0.298000000000000098,-26.987412511704640394
0.299000000000000099,-27.107745950009860536
0.300000000000000100,-27.209791154565436955
0.301000000000000101,-27.294195703911945827
0.302000000000000102,-27.361630466558562347
0.303000000000000103,-27.412785639133367965
0.304000000000000103,-27.448366867593883001
0.305000000000000104,-27.469091476482908831
0.306000000000000105,-27.475684827853040559
0.307000000000000106,-27.468876828286322933
0.308000000000000107,-27.449398599419204459
0.309000000000000108,-27.417979324552028686
0.310000000000000109,-27.375343281285825725
0.311000000000000110,-27.322207067686587578
0.312000000000000111,-27.259277027231963331
0.313000000000000111,-27.187246875742157926
0.314000000000000112,-27.106795531634780616
0.315000000000000113,-27.018585149165460280
0.316000000000000114,-26.923259352817176193
0.317000000000000115,-26.821441669672672958
0.318000000000000116,-26.713734155439436080
0.319000000000000117,-26.600716208785922134
0.320000000000000118,-26.482943567782136540
0.321000000000000119,-26.360947481508652857
0.322000000000000119,-26.235234049295428349
0.323000000000000120,-26.106283719566846457
0.324000000000000121,-25.974550939892594670
0.325000000000000122,-25.840463949566281343
0.326000000000000123,-25.704424705846470545
0.327000000000000124,-25.566808934888918259
0.328000000000000125,-25.427966298367515208
0.329000000000000126,-25.288220666814755333
0.330000000000000127,-25.147870490804894672
0.331000000000000127,-25.007189261247003031
0.332000000000000128,-24.866426050242814938
0.333000000000000129,-24.725806124191716862
0.334000000000000130,-24.585531621084424359
0.335000000000000131,-24.445782284214701008
0.336000000000000132,-24.306716244847478947
0.337000000000000133,-24.168470846709997346
0.338000000000000134,-24.031163505513834622
0.339000000000000135,-23.894892597067602935
0.340000000000000135,-23.759738367898293632
0.341000000000000136,-23.625763862661319337
0.342000000000000137,-23.493015862982169040
0.343000000000000138,-23.361525832733825325
0.344000000000000139,-23.231310865111566955
0.345000000000000140,-23.102374627219116832
0.346000000000000141,-22.974708298224040703
0.347000000000000142,-22.848291497476939327
0.348000000000000143,-22.723093199314824631
0.349000000000000143,-22.599072631584256499
0.350000000000000144,-22.476180155223516977
0.351000000000000145,-22.354358122534318198
0.352000000000000146,-22.233541712051852812
0.353000000000000147,-22.113659738187234183
0.354000000000000148,-21.994635434068261048
0.355000000000000149,-21.876387206242377204
0.356000000000000150,-21.758829360130469865
0.357000000000000151,-21.641872795331288160
0.358000000000000151,-21.525425670073435214
0.359000000000000152,-21.409394034296806097
0.360000000000000153,-21.293682431016513590
0.361000000000000154,-21.178194465781036371
0.362000000000000155,-21.062833344183054862
0.363000000000000156,-20.947502377515721861
0.364000000000000157,-20.832105456790102949
0.365000000000000158,-20.716547495442018345
0.366000000000000159,-20.600734841156867816
0.367000000000000159,-20.484575657333078169
0.368000000000000160,-20.367980274785871586
0.369000000000000161,-20.250861514365244176
0.370000000000000162,-20.133134981225769167
0.371000000000000163,-20.014719331541222402
0.372000000000000164,-19.895536512504147453
0.373000000000000165,-19.775511976491255695
0.374000000000000166,-19.654574870308518797
0.375000000000000167,-19.532658200457042597
0.376000000000000167,-19.409698975381807884
0.377000000000000168,-19.285638325681031091
0.378000000000000169,-19.160421603263966261
0.379000000000000170,-19.033998460451357460
0.380000000000000171,-18.906322910013404481
0.381000000000000172,-18.777353367138189810
0.382000000000000173,-18.647052674316867638
0.383000000000000174,-18.515388110122927401
0.384000000000000175,-18.382331382850040313
0.385000000000000175,-18.247858609958306886
0.386000000000000176,-18.111950284261148170
0.387000000000000177,-17.974591227765593260
0.388000000000000178,-17.835770534057559189
0.389000000000000179,-17.695481500100520122
0.390000000000000180,-17.553721548291999710
0.391000000000000181,-17.410492139596538408
0.392000000000000182,-17.265798678547632505
0.393000000000000183,-17.119650410883760827
0.394000000000000183,-16.972060314555850624
0.395000000000000184,-16.823044984815265224
0.396000000000000185,-16.672624514062736267
0.397000000000000186,-16.520822367110000073
0.398000000000000187,-16.367665252476893301
0.399000000000000188,-16.213182990317996257
0.400000000000000189,-16.057408377544224010
0.401000000000000190,-15.900377050676283375
0.402000000000000191,-15.742127346939160049
0.403000000000000191,-15.582700164078497451
0.404000000000000192,-15.422138819353298445
0.405000000000000193,-15.260488908131943475
0.406000000000000194,-15.097798162492960472
0.407000000000000195,-14.934116310206196232
0.408000000000000196,-14.769494934445200229
0.409000000000000197,-14.603987334557539057
0.410000000000000198,-14.437648388196411275
0.411000000000000199,-14.270534415093976577
0.412000000000000199,-14.102703042734978212
0.413000000000000200,-13.934213074168349422
0.414000000000000201,-13.765124358173471464
0.415000000000000202,-13.595497661978665604
0.416000000000000203,-13.425394546710617050
0.417000000000000204,-13.254877245734894231
0.418000000000000205,-13.084008546031180131
0.419000000000000206,-12.912851672729862784
0.420000000000000207,-12.741470176920895341
0.421000000000000207,-12.569927826831385431
0.422000000000000208,-12.398288502453347348
0.423000000000000209,-12.226616093690509501
0.424000000000000210,-12.054974402079583484
0.425000000000000211,-11.883427046129627414
0.426000000000000212,-11.712037370311964679
0.427000000000000213,-11.540868357722031234
0.428000000000000214,-11.369982546424939329
0.429000000000000214,-11.199441949486738324
0.430000000000000215,-11.029307978684780522
0.431000000000000216,-10.859641371882595706
0.432000000000000217,-10.690502124046494359
0.433000000000000218,-10.521949421874721153
0.434000000000000219,-10.354041582002944111
0.435000000000000220,-10.186835992744223134
0.436000000000000221,-10.020389059315736091
0.437000000000000222,-9.854756152499737354
0.438000000000000222,-9.689991560681573191
0.439000000000000223,-9.526148445203350690
0.440000000000000224,-9.363278798968165617
0.441000000000000225,-9.201433408226264987
0.442000000000000226,-9.040661817472029682
0.443000000000000227,-8.881012297377221643
0.444000000000000228,-8.722531815684508416
0.445000000000000229,-8.565266010982682587
0.446000000000000230,-8.409259169283577862
0.447000000000000230,-8.254554203319397487
0.448000000000000231,-8.101192634477779819
0.449000000000000232,-7.949214577291288109
0.450000000000000233,-7.798658726397372121
0.451000000000000234,-7.649562345884302950
0.452000000000000235,-7.501961260938614373
0.453000000000000236,-7.355889851709304317
0.454000000000000237,-7.211381049304653956
0.455000000000000238,-7.068466333837362114
0.456000000000000238,-6.927175734434740662
0.457000000000000239,-6.787537831130846300
0.458000000000000240,-6.649579758558869180
0.459000000000000241,-6.513327211362138769
0.460000000000000242,-6.378804451244187490
0.461000000000000243,-6.246034315578432583
0.462000000000000244,-6.115038227500138035
0.463000000000000245,-5.985836207403783860
0.464000000000000246,-5.858446885771249057
0.465000000000000246,-5.732887517256938459
0.466000000000000247,-5.609173995957874581
0.467000000000000248,-5.487320871798179844
0.468000000000000249,-5.367341367959256537
0.469000000000000250,-5.249247399288181626
0.470000000000000251,-5.133049591619020191
0.471000000000000252,-5.018757301942972759
0.472000000000000253,-4.906378639365568617
0.473000000000000254,-4.795920486790312687
0.474000000000000254,-4.687388523270385576
0.475000000000000255,-4.580787246971551596
0.476000000000000256,-4.476119998691237001
0.477000000000000257,-4.373388985880683144
0.478000000000000258,-4.272595307118541186
0.479000000000000259,-4.173738976986370197
0.480000000000000260,-4.076818951298092131
0.481000000000000261,-3.981833152637099804
0.482000000000000262,-3.888778496156806597
0.483000000000000262,-3.797650915601664678
0.484000000000000263,-3.708445389507769363
0.485000000000000264,-3.621155967543556731
0.486000000000000265,-3.535775796952991268
0.487000000000000266,-3.452297149065016502
0.488000000000000267,-3.370711445834742470
0.489000000000000268,-3.291009286383592247
0.490000000000000269,-3.213180473506660029
0.491000000000000270,-3.137214040117718206
0.492000000000000270,-3.063098275603073795
0.493000000000000271,-2.990820752057554266
0.494000000000000272,-2.920368350376773670
0.495000000000000273,-2.851727286181536591
0.496000000000000274,-2.784883135551539546
0.497000000000000275,-2.719820860546541930
0.498000000000000276,-2.656524834494919940
0.499000000000000277,-2.594978867030297565
0.500000000000000222,-2.535166228858412030
0.501000000000000334,-2.477069676237434681
0.502000000000000224,-2.420671475156210395
0.503000000000000336,-2.365953425195614024
0.504000000000000226,-2.312896883059928133
0.505000000000000338,-2.261482785765305703
0.506000000000000227,-2.211691673474373676
0.507000000000000339,-2.163503711965879095
0.508000000000000229,-2.116898714730278908
0.509000000000000341,-2.071856164682136736
0.510000000000000231,-2.028355235481861474
0.511000000000000343,-1.986374812459304140
0.512000000000000233,-1.945893513133338804
0.513000000000000345,-1.906889707321622662
0.514000000000000234,-1.869341536836088169
0.515000000000000346,-1.833226934759679683
0.516000000000000236,-1.798523644301347257
0.517000000000000348,-1.765209237226217143
0.518000000000000238,-1.733261131858961024
0.519000000000000350,-1.702656610658681569
0.520000000000000240,-1.673372837364398791
0.521000000000000352,-1.645386873710557918
0.522000000000000242,-1.618675695712637808
0.523000000000000353,-1.593216209523332427
0.524000000000000243,-1.568985266860281724
0.525000000000000355,-1.545959680006675718
0.526000000000000245,-1.524116236386657164
0.527000000000000357,-1.503431712717515190
0.528000000000000247,-1.483882888741449690
0.529000000000000359,-1.465446560539543253
0.530000000000000249,-1.448099553431396291
0.531000000000000361,-1.431818734463746079
0.532000000000000250,-1.416581024492046925
0.533000000000000362,-1.402363409858931043
0.534000000000000252,-1.389142953673942804
0.535000000000000364,-1.376896806699157594
0.536000000000000254,-1.365602217845315547
0.537000000000000366,-1.355236544283529465
0.538000000000000256,-1.345777261177737438
0.539000000000000368,-1.337201971043102677
0.540000000000000258,-1.329488412735988501
0.541000000000000369,-1.322614470080987870
0.542000000000000259,-1.316558180140826151
0.543000000000000371,-1.311297741134957118
0.544000000000000261,-1.306811520012862715
0.545000000000000373,-1.303078059688028478
0.546000000000000263,-1.300076085938787207
0.547000000000000375,-1.297784513982218613
0.548000000000000265,-1.296182454727351052
0.549000000000000377,-1.295249220713988958
0.550000000000000266,-1.294964331743475805
0.551000000000000378,-1.295307520207856111
0.552000000000000268,-1.296258736123750532
0.553000000000000380,-1.297798151877401107
0.554000000000000270,-1.299906166687323950
0.555000000000000382,-1.302563410790971599
0.556000000000000272,-1.305750749361846541
0.557000000000000384,-1.309449286163397508
0.558000000000000274,-1.313640366946234206
0.559000000000000385,-1.318305582594835323
0.560000000000000275,-1.323426772030227294
0.561000000000000387,-1.328986024874855065
0.562000000000000277,-1.334965683885865229
0.563000000000000389,-1.341348347163113353
0.564000000000000279,-1.348116870137928913
0.565000000000000391,-1.355254367348860622
0.566000000000000281,-1.362744214010285893
0.567000000000000393,-1.370570047380055501
0.568000000000000282,-1.378715767931944169
0.569000000000000394,-1.387165540338838765
0.570000000000000284,-1.395903794272352894
0.571000000000000396,-1.404915225024729875
0.572000000000000286,-1.414184793958511488
0.573000000000000398,-1.423697728789598882
0.574000000000000288,-1.433439523709144181
0.575000000000000400,-1.443395939349777723
0.576000000000000290,-1.453553002601265742
0.577000000000000401,-1.463897006281078772
0.578000000000000291,-1.474414508664821266
0.579000000000000403,-1.485092332881647215
0.580000000000000293,-1.495917566179633784
0.581000000000000405,-1.506877559066027050
0.582000000000000295,-1.517959924327012766
0.583000000000000407,-1.529152535931923795
0.584000000000000297,-1.540443527826254710
0.585000000000000409,-1.551821292618259074
0.586000000000000298,-1.563274480163288960
0.587000000000000410,-1.574791996050488141
0.588000000000000300,-1.586362999995835299
0.589000000000000412,-1.597976904145906207
0.590000000000000302,-1.609623371296242222
0.591000000000000414,-1.621292313028493526
0.592000000000000304,-1.632973887770007959
0.593000000000000416,-1.644658498779855149
0.594000000000000306,-1.656336792064879049
0.595000000000000417,-1.667999654229480599
0.596000000000000307,-1.679638210262530240
0.597000000000000419,-1.691243821265043135
0.598000000000000309,-1.702808082121857636
0.599000000000000421,-1.714322819120555508
0.600000000000000311,-1.725780087520948358
0.601000000000000423,-1.737172169078140316
0.602000000000000313,-1.748491569522181432
0.603000000000000425,-1.759731015997326065
0.604000000000000314,-1.770883454463688222
0.605000000000000426,-1.781942047064123402
0.606000000000000316,-1.792900169459000548
0.607000000000000428,-1.803751408131493816
0.608000000000000318,-1.814489557665988073
0.609000000000000430,-1.825108618002025951
0.610000000000000320,-1.835602791666155253
0.611000000000000432,-1.845966480984137847
0.612000000000000322,-1.856194285275585498
0.613000000000000433,-1.866280998033373661
0.614000000000000323,-1.876221604089837403
0.615000000000000435,-1.886011276771858647
0.616000000000000325,-1.895645375046729031
0.617000000000000437,-1.905119440660837382
0.618000000000000327,-1.914429195272887796
0.619000000000000439,-1.923570537583512152
0.620000000000000329,-1.932539540462972383
0.621000000000000441,-1.941332448078606943
0.622000000000000330,-1.949945673023620429
0.623000000000000442,-1.958375793448779989
0.624000000000000332,-1.966619550198416277
0.625000000000000444,-1.974673843952302832
0.626000000000000334,-1.982535732374607118
0.627000000000000446,-1.990202427271380969
0.628000000000000336,-1.997671291757750378
0.629000000000000448,-2.004939837436090055
0.630000000000000338,-2.012005721586255014
0.631000000000000449,-2.018866744369105071
0.632000000000000339,-2.025520846044257528
0.633000000000000451,-2.031966104203184909
0.634000000000000341,-2.038200731018529055
0.635000000000000453,-2.044223070510730711
0.636000000000000343,-2.050031595832577214
0.637000000000000455,-2.055624906572869115
0.638000000000000345,-2.061001726079631169
0.639000000000000457,-2.066160898803939272
0.640000000000000346,-2.071101387664872728
0.641000000000000458,-2.075822271436410293
0.642000000000000348,-2.080322742156792692
0.643000000000000460,-2.084602102561090131
0.644000000000000350,-2.088659763537429992
0.645000000000000462,-2.092495241607516654
0.646000000000000352,-2.096108156431859992
0.647000000000000464,-2.099498228340296091
0.648000000000000353,-2.102665275888122132
0.649000000000000465,-2.105609213438361049
0.650000000000000355,-2.108330048770469922
0.651000000000000467,-2.110827880715870908
0.652000000000000357,-2.113102896820656440
0.653000000000000469,-2.115155371035692955
0.654000000000000359,-2.116985661434512167
0.655000000000000471,-2.118594207959106690
0.656000000000000361,-2.119981530193959074
0.657000000000000473,-2.121148225168452139
0.658000000000000362,-2.122094965187858229
0.659000000000000474,-2.122822495693034828
