# Cu110_HUMICACID-NEUTRAL-AC
# h[nm],U(h)[kJ/mol]
0.149999999999999994,177.144020969640308749
0.150999999999999995,174.235607824856572279
0.151999999999999996,169.527461052921097462
0.152999999999999997,164.500406692424320454
0.153999999999999998,159.665864212271827682
0.154999999999999999,155.101553087152581156
0.156000000000000000,150.730274035724249870
0.157000000000000001,146.451565517094479674
0.158000000000000002,142.193273354649505791
0.159000000000000002,137.922768456293397321
0.160000000000000003,133.640437543714426738
0.161000000000000004,129.367599438587319582
0.162000000000000005,125.134785374687865556
0.163000000000000006,120.972789349432019890
0.164000000000000007,116.907011344915048312
0.165000000000000008,112.954716108525417440
0.166000000000000009,109.124490803868596345
0.167000000000000010,105.417144652620351053
0.168000000000000010,101.827395547054706526
0.169000000000000011,98.345842093762428249
0.170000000000000012,94.960875922351263512
0.171000000000000013,91.660324950604319838
0.172000000000000014,88.432724998435986663
0.173000000000000015,85.268194146658501609
0.174000000000000016,82.158935003611517800
0.175000000000000017,79.099419603671933032
0.176000000000000018,76.086325252206705727
0.177000000000000018,73.118291992418662062
0.178000000000000019,70.195567448066412908
0.179000000000000020,67.319595678753287871
0.180000000000000021,64.492595653567292402
0.181000000000000022,61.717163595836666445
0.182000000000000023,58.995922809569812273
0.183000000000000024,56.331235269505825158
0.184000000000000025,53.724981528163631594
0.185000000000000026,51.178409430409317338
0.186000000000000026,48.692047649329786907
0.187000000000000027,46.265677000082675363
0.188000000000000028,43.898350640106272635
0.189000000000000029,41.588453399724230053
0.190000000000000030,39.333790387856282678
0.191000000000000031,37.131695482816652998
0.192000000000000032,34.979151172899534572
0.193000000000000033,32.872912308538744242
0.194000000000000034,30.809627548338646363
0.195000000000000034,28.785953532641467945
0.196000000000000035,26.798658031623283193
0.197000000000000036,24.844709441706530839
0.198000000000000037,22.921351012885228471
0.199000000000000038,21.026159062711492709
0.200000000000000039,19.157085163300543229
0.201000000000000040,17.312482877018460670
0.202000000000000041,15.491120071625871901
0.203000000000000042,13.692178177627928548
0.204000000000000042,11.915239972909512645
0.205000000000000043,10.160267607121735267
0.206000000000000044,8.427572625703755094
0.207000000000000045,6.717779735463051516
0.208000000000000046,5.031785983991321487
0.209000000000000047,3.370716916369763450
0.210000000000000048,1.735881135743135628
0.211000000000000049,0.128724539092688411
0.212000000000000050,-1.449214665880724340
0.213000000000000050,-2.996349225619626910
0.214000000000000051,-4.511083616808456931
0.215000000000000052,-5.991851723386687922
0.216000000000000053,-7.437150954673609426
0.217000000000000054,-8.845572483345865322
0.218000000000000055,-10.215827407075730449
0.219000000000000056,-11.546768748390519477
0.220000000000000057,-12.837409303477864242
0.221000000000000058,-14.086935432377401867
0.222000000000000058,-15.294716950791649168
0.223000000000000059,-16.460313338353305568
0.224000000000000060,-17.583476520565064050
0.225000000000000061,-18.664150512838244111
0.226000000000000062,-19.702468236235468169
0.227000000000000063,-20.698745826835327932
0.228000000000000064,-21.653474765234076216
0.229000000000000065,-22.567312150709977203
0.230000000000000066,-23.441069437057922897
0.231000000000000066,-24.275699935064849910
0.232000000000000067,-25.072285370952652528
0.233000000000000068,-25.832021771708259195
0.234000000000000069,-26.556204927797306681
0.235000000000000070,-27.246215661983445244
0.236000000000000071,-27.903505110428341141
0.237000000000000072,-28.529580199428835385
0.238000000000000073,-29.125989478474366479
0.239000000000000073,-29.694309448132891305
0.240000000000000074,-30.236131499883992291
0.241000000000000075,-30.753049564634522994
0.242000000000000076,-31.246648547450682543
0.243000000000000077,-31.718493608148055074
0.244000000000000078,-32.170120330877622905
0.245000000000000079,-32.603025810784266980
0.246000000000000080,-33.018660672209634299
0.247000000000000081,-33.418422020759905422
0.248000000000000081,-33.803647320828474676
0.249000000000000082,-34.175609180810248233
0.250000000000000111,-34.535511020210307720
0.251000000000000112,-34.884483586061158178
0.252000000000000113,-35.223582280448951565
0.253000000000000114,-35.553785256417725691
0.254000000000000115,-35.875992235999561331
0.255000000000000115,-36.191024001506193031
0.256000000000000116,-36.499622509440108331
0.257000000000000117,-36.802451575347326695
0.258000000000000118,-37.100098077559152898
0.259000000000000119,-37.393073627979191542
0.260000000000000120,-37.681816658785912466
0.261000000000000121,-37.966694875069450177
0.262000000000000122,-38.248008024939267102
0.263000000000000123,-38.525990940461113610
0.264000000000000123,-38.800816804854676434
0.265000000000000124,-39.072600603650741391
0.266000000000000125,-39.341402719924751352
0.267000000000000126,-39.607232636246649804
0.268000000000000127,-39.870052708580182355
0.269000000000000128,-40.129781979989516572
0.270000000000000129,-40.386300004642997408
0.271000000000000130,-40.639450655212769448
0.272000000000000131,-40.889045889335214667
0.273000000000000131,-41.134869453300311193
0.274000000000000132,-41.376680503562788260
0.275000000000000133,-41.614217129002689433
0.276000000000000134,-41.847199759093960836
0.277000000000000135,-42.075334445262299710
0.278000000000000136,-42.298316004720405203
0.279000000000000137,-42.515831017954909044
0.280000000000000138,-42.727560672803683417
0.281000000000000139,-42.933183449702909229
0.282000000000000139,-43.132377644201440603
0.283000000000000140,-43.324823724235635325
0.284000000000000141,-43.510206520933955687
0.285000000000000142,-43.688217252881166530
0.286000000000000143,-43.858555384818529888
0.287000000000000144,-44.020930322694916015
0.288000000000000145,-44.175062947818716452
0.289000000000000146,-44.320686993595423075
0.290000000000000147,-44.457550268977890084
0.291000000000000147,-44.585415733309162079
0.292000000000000148,-44.704062427708748828
0.293000000000000149,-44.813286268544516133
0.294000000000000150,-44.912900708854316179
0.295000000000000151,-45.002737273833879783
0.296000000000000152,-45.082645976700440826
0.297000000000000153,-45.152495621376459667
0.298000000000000154,-45.212173998522757756
0.299000000000000155,-45.261587981486925969
0.300000000000000155,-45.300663528729060658
0.301000000000000156,-45.329345599243268339
0.302000000000000157,-45.347597987418296839
0.303000000000000158,-45.355403083673927256
0.304000000000000159,-45.352761567078104576
0.305000000000000160,-45.339692035994978880
0.306000000000000161,-45.316230582640145030
0.307000000000000162,-45.282430317229220407
0.308000000000000163,-45.238360847201064985
0.309000000000000163,-45.184107716782946795
0.310000000000000164,-45.119771811940658779
0.311000000000000165,-45.045468735526021931
0.312000000000000166,-44.961328157200341593
0.313000000000000167,-44.867493142473904300
0.314000000000000168,-44.764119464963201267
0.315000000000000169,-44.651374905729099396
0.316000000000000170,-44.529438543322349631
0.317000000000000171,-44.398500037928371853
0.318000000000000171,-44.258758912772762528
0.319000000000000172,-44.110423835723793218
0.320000000000000173,-43.953711903806329531
0.321000000000000174,-43.788847933128501211
0.322000000000000175,-43.616063756513185012
0.323000000000000176,-43.435597530926564502
0.324000000000000177,-43.247693056601271167
0.325000000000000178,-43.052599109566465074
0.326000000000000179,-42.850568789119023450
0.327000000000000179,-42.641858881599254971
0.328000000000000180,-42.426729241673228898
0.329000000000000181,-42.205442192170309568
0.330000000000000182,-41.978261943377169985
0.331000000000000183,-41.745454032554142998
0.332000000000000184,-41.507284784308339454
0.333000000000000185,-41.264020792337007038
0.334000000000000186,-41.015928422940760356
0.335000000000000187,-40.763273340598992434
0.336000000000000187,-40.506320055801829483
0.337000000000000188,-40.245331495239611286
0.338000000000000189,-39.980568594367170476
0.339000000000000190,-39.712289912280837711
0.340000000000000191,-39.440751268774263849
0.341000000000000192,-39.166205403374021898
0.342000000000000193,-38.888901656094773784
0.343000000000000194,-38.609085669601228119
0.344000000000000195,-38.326999112413218995
0.345000000000000195,-38.042879422748590912
0.346000000000000196,-37.756959572558024263
0.347000000000000197,-37.469467851272455050
0.348000000000000198,-37.180627668753679416
0.349000000000000199,-36.890657376912820098
0.350000000000000200,-36.599770109439177190
0.351000000000000201,-36.308173639063916482
0.352000000000000202,-36.016070251767416721
0.353000000000000203,-35.723656637328154773
0.354000000000000203,-35.431123795601038751
0.355000000000000204,-35.138656957907279832
0.356000000000000205,-34.846435522914447347
0.357000000000000206,-34.554633006383568272
0.358000000000000207,-34.263417004160622525
0.359000000000000208,-33.972949167793345282
0.360000000000000209,-33.683385192157501820
0.361000000000000210,-33.394874814484019510
0.362000000000000210,-33.107561824185133048
0.363000000000000211,-32.821584082886715805
0.364000000000000212,-32.537073554084557259
0.365000000000000213,-32.254156341852436185
0.366000000000000214,-31.972952738042984322
0.367000000000000215,-31.693577277434211936
0.368000000000000216,-31.416138800289001409
0.369000000000000217,-31.140740521808094599
0.370000000000000218,-30.867480107972816938
0.371000000000000218,-30.596449757287825122
0.372000000000000219,-30.327736287950408212
0.373000000000000220,-30.061421229988063430
0.374000000000000221,-29.797580921922435238
0.375000000000000222,-29.536286611532894142
0.376000000000000223,-29.277604560310145132
0.377000000000000224,-29.021596151205535818
0.378000000000000225,-28.768317999298176346
0.379000000000000226,-28.517822065017632838
0.380000000000000226,-28.270155769576387428
0.381000000000000227,-28.025362112280980398
0.382000000000000228,-27.783479789407216742
0.383000000000000229,-27.544543314339364315
0.384000000000000230,-27.308583138688323544
0.385000000000000231,-27.075625774118940114
0.386000000000000232,-26.845693914630288646
0.387000000000000233,-26.618806559047406779
0.388000000000000234,-26.394979133496253354
0.389000000000000234,-26.174223613647519926
0.390000000000000235,-25.956548646527284774
0.391000000000000236,-25.741959671705910040
0.392000000000000237,-25.530459041687883825
0.393000000000000238,-25.322046141338415026
0.394000000000000239,-25.116717506192635767
0.395000000000000240,-24.914466939505651055
0.396000000000000241,-24.715285627911494970
0.397000000000000242,-24.519162255569717956
0.398000000000000242,-24.326083116688327124
0.399000000000000243,-24.136032226320992322
0.400000000000000244,-23.948991429345763748
0.401000000000000245,-23.764940507541503223
0.402000000000000246,-23.583857284686128963
0.403000000000000247,-23.405717729609168742
0.404000000000000248,-23.230496057138637411
0.405000000000000249,-23.058164826889548493
0.406000000000000250,-22.888695039848222734
0.407000000000000250,-22.722056232713317314
0.408000000000000251,-22.558216569960467979
0.409000000000000252,-22.397142933603973347
0.410000000000000253,-22.238801010633544308
0.411000000000000254,-22.083155378110692624
0.412000000000000255,-21.930169585913159125
0.413000000000000256,-21.779806237121508872
0.414000000000000257,-21.632027066045587560
0.415000000000000258,-21.486793013893411342
0.416000000000000258,-21.344064302088433749
0.417000000000000259,-21.203800503245158637
0.418000000000000260,-21.065960609816244187
0.419000000000000261,-20.930503100427376495
0.420000000000000262,-20.797386003919406505
0.421000000000000263,-20.666566961119791301
0.422000000000000264,-20.538003284367636780
0.423000000000000265,-20.411652014819438250
0.424000000000000266,-20.287469977564647650
0.425000000000000266,-20.165413834581588759
0.426000000000000267,-20.045440135566721551
0.427000000000000268,-19.927505366671553588
0.428000000000000269,-19.811565997182722043
0.429000000000000270,-19.697578524182514315
0.430000000000000271,-19.585499515227759559
0.431000000000000272,-19.475285649086462314
0.432000000000000273,-19.366893754572053865
0.433000000000000274,-19.260280847516167313
0.434000000000000274,-19.155404165921300574
0.435000000000000275,-19.052221203335342636
0.436000000000000276,-18.950689740490393120
0.437000000000000277,-18.850767875248440220
0.438000000000000278,-18.752414050896952347
0.439000000000000279,-18.655587082837467250
0.440000000000000280,-18.560246183710159329
0.441000000000000281,-18.466350986997667860
0.442000000000000282,-18.373861569151262785
0.443000000000000282,-18.282738470281945098
0.444000000000000283,-18.192942713459558490
0.445000000000000284,-18.104435822662058087
0.446000000000000285,-18.017179839416943565
0.447000000000000286,-17.931137338176988294
0.448000000000000287,-17.846271440470946601
0.449000000000000288,-17.762545827870649617
0.450000000000000289,-17.679924753814393767
0.451000000000000290,-17.598373054326639675
0.452000000000000290,-17.517856157673286077
0.453000000000000291,-17.438340092990831209
0.454000000000000292,-17.359791497927975712
0.455000000000000293,-17.282177625336466065
0.456000000000000294,-17.205466349048322172
0.457000000000000295,-17.129626168775249795
0.458000000000000296,-17.054626214165612197
0.459000000000000297,-16.980436248053628390
0.460000000000000298,-16.907026668934591385
0.461000000000000298,-16.834368512699374065
0.462000000000000299,-16.762433453660580795
0.463000000000000300,-16.691193804901956810
0.464000000000000301,-16.620622517982123867
0.465000000000000302,-16.550693182022683914
0.466000000000000303,-16.481380022210142755
0.467000000000000304,-16.412657897740270840
0.468000000000000305,-16.344502299232875231
0.469000000000000306,-16.276889345644033114
0.470000000000000306,-16.209795780702314971
0.471000000000000307,-16.143198968894399314
0.472000000000000308,-16.077076891025349425
0.473000000000000309,-16.011408139377422799
0.474000000000000310,-15.946171912490921585
0.475000000000000311,-15.881348009589988379
0.476000000000000312,-15.816916824675223197
0.477000000000000313,-15.752859340304373958
0.478000000000000314,-15.689157121081908741
0.479000000000000314,-15.625792306877306359
0.480000000000000315,-15.562747605791319216
0.481000000000000316,-15.500006286888915241
0.482000000000000317,-15.437552172716753063
0.483000000000000318,-15.375369631622557876
0.484000000000000319,-15.313443569893166796
0.485000000000000320,-15.251759423727154541
0.486000000000000321,-15.190303151057765518
0.487000000000000322,-15.129061223240739764
0.488000000000000322,-15.068020616621609520
0.489000000000000323,-15.007168803996098205
0.490000000000000324,-14.946493745976795253
0.491000000000000325,-14.885983882278850388
0.492000000000000326,-14.825628122936706177
0.493000000000000327,-14.765415839463582159
0.494000000000000328,-14.705336855964764808
0.495000000000000329,-14.645381440215412994
0.496000000000000330,-14.585540294712847853
0.497000000000000330,-14.525804547713310200
0.498000000000000331,-14.466165744262067250
0.499000000000000332,-14.406615837226004473
0.500000000000000333,-14.347147178336877360
0.501000000000000334,-14.287752509253218491
0.502000000000000335,-14.228424952648467183
0.503000000000000336,-14.169158003332620765
0.504000000000000337,-14.109945519413926718
0.505000000000000338,-14.050781713507342729
0.506000000000000338,-13.991661143995631988
0.507000000000000339,-13.932578706348929032
0.508000000000000340,-13.873529624508103453
0.509000000000000341,-13.814509442337140399
0.510000000000000342,-13.755514015149088891
0.511000000000000343,-13.696539501310288856
0.512000000000000344,-13.637582353926807954
0.513000000000000345,-13.578639312617212909
0.514000000000000346,-13.519707395375217374
0.515000000000000346,-13.460783890525496176
0.516000000000000347,-13.401866348775905990
0.517000000000000348,-13.342952575368997259
0.518000000000000349,-13.284040622335302473
0.519000000000000350,-13.225128780851065358
0.520000000000000351,-13.166215573702407582
0.521000000000000352,-13.107299747858103700
0.522000000000000353,-13.048380267152666079
0.523000000000000353,-12.989456305081310106
0.524000000000000354,-12.930527237708506760
0.525000000000000355,-12.871592636691014278
0.526000000000000356,-12.812652262416742488
0.527000000000000357,-12.753706057260313145
0.528000000000000358,-12.694754138956049871
0.529000000000000359,-12.635796794089145578
0.530000000000000360,-12.576834471705348406
0.531000000000000361,-12.517867777039716870
0.532000000000000361,-12.458897465364497492
0.533000000000000362,-12.399924435956400259
0.534000000000000363,-12.340949726183168877
0.535000000000000364,-12.281974505709388978
0.536000000000000365,-12.223000070821296248
0.537000000000000366,-12.164027838870351772
0.538000000000000367,-12.105059342835012615
0.539000000000000368,-12.046096226000475582
0.540000000000000369,-11.987140236755498890
0.541000000000000369,-11.928193223505981990
0.542000000000000370,-11.869257129704298137
0.543000000000000371,-11.810333988993749088
0.544000000000000372,-11.751425920467259090
0.545000000000000373,-11.692535124039331151
0.546000000000000374,-11.633663875930320586
0.547000000000000375,-11.574814524261967108
0.548000000000000376,-11.515989484763213824
0.549000000000000377,-11.457191236585018146
0.550000000000000377,-11.398422318223028427
0.551000000000000378,-11.339685323547028517
0.552000000000000379,-11.280982897935745157
0.553000000000000380,-11.222317734515817378
0.554000000000000381,-11.163692570503551238
0.555000000000000382,-11.105110183648282174
0.556000000000000383,-11.046573388775620117
0.557000000000000384,-10.988085034429639464
0.558000000000000385,-10.929647999612189579
0.559000000000000385,-10.871265190618185414
0.560000000000000386,-10.812939537965208459
0.561000000000000387,-10.754673993416123068
0.562000000000000388,-10.696471527093130760
0.563000000000000389,-10.638335124681789878
0.564000000000000390,-10.580267784723524471
0.565000000000000391,-10.522272515995096498
0.566000000000000392,-10.464352334973570535
0.567000000000000393,-10.406510263385207793
0.568000000000000393,-10.348749325836806179
0.569000000000000394,-10.291072547527910785
0.570000000000000395,-10.233482952042576741
0.571000000000000396,-10.175983559218822805
0.572000000000000397,-10.118577383094645938
0.573000000000000398,-10.061267429928822281
0.574000000000000399,-10.004056696295137385
0.575000000000000400,-9.946948167248454098
0.576000000000000401,-9.889944814561218323
0.577000000000000401,-9.833049595028928280
0.578000000000000402,-9.776265448842970329
0.579000000000000403,-9.719595298029544139
0.580000000000000404,-9.663042044953119358
0.581000000000000405,-9.606608570883016895
0.582000000000000406,-9.550297734621675971
0.583000000000000407,-9.494112371193235589
0.584000000000000408,-9.438055290591028879
0.585000000000000409,-9.382129276582571009
0.586000000000000409,-9.326337085570694185
0.587000000000000410,-9.270681445509534768
0.588000000000000411,-9.215165054873924788
0.589000000000000412,-9.159790581680992361
0.590000000000000413,-9.104560662562553475
0.591000000000000414,-9.049477901887085451
0.592000000000000415,-8.994544870930038627
0.593000000000000416,-8.939764107091082934
0.594000000000000417,-8.885138113157220019
0.595000000000000417,-8.830669356610558296
0.596000000000000418,-8.776360268979260582
0.597000000000000419,-8.722213245230964418
0.598000000000000420,-8.668230643207033737
0.599000000000000421,-8.614414783096822958
0.600000000000000422,-8.560767946950662122
0.601000000000000423,-8.507292378230548735
0.602000000000000424,-8.453990281397386397
0.603000000000000425,-8.400863821533725684
0.604000000000000425,-8.347915124000978793
