# Cu110_BSAI26
# h[nm],U(h)[kJ/mol]
0.149999999999999994,104.306206412129540695
0.150999999999999995,98.649958331488818430
0.151999999999999996,95.215918036345655651
0.152999999999999997,92.254493956405156041
0.153999999999999998,89.130521534501113479
0.154999999999999999,85.734103907135207123
0.156000000000000000,82.161036455076668972
0.157000000000000001,78.552613843237580227
0.158000000000000002,75.025852345040533464
0.159000000000000002,71.652002502199465539
0.160000000000000003,68.458433436367641889
0.161000000000000004,65.439790642328290460
0.162000000000000005,62.570969418536606099
0.163000000000000006,59.818390585515281543
0.164000000000000007,57.148303101280035321
0.165000000000000008,54.532021317825616791
0.166000000000000009,51.948556216776708538
0.167000000000000010,49.385290129486222099
0.168000000000000010,46.837341706127212149
0.169000000000000011,44.306174265549927327
0.170000000000000012,41.797875323143003357
0.171000000000000013,39.321410239416138666
0.172000000000000014,36.887044170012707411
0.173000000000000015,34.505039659375576377
0.174000000000000016,32.184672685962290473
0.175000000000000017,29.933565363057539344
0.176000000000000018,27.757305320281410843
0.177000000000000018,25.659306328551746645
0.178000000000000019,23.640858565626537313
0.179000000000000020,21.701317141162949298
0.180000000000000021,19.838381774913035116
0.181000000000000022,18.048427065907940658
0.182000000000000023,16.326850305808164876
0.183000000000000024,14.668411379702238406
0.184000000000000025,13.067546384811205229
0.185000000000000026,11.518642846406553559
0.186000000000000026,10.016269662309230881
0.187000000000000027,8.555359127569825972
0.188000000000000028,7.131341625555251085
0.189000000000000029,5.740235916084012402
0.190000000000000030,4.378699526442813017
0.191000000000000031,3.044044686983142345
0.192000000000000032,1.734225677126079335
0.193000000000000033,0.447803478190407556
0.194000000000000034,-0.816106628677527923
0.195000000000000034,-2.057899338420663415
0.196000000000000035,-3.277550872894439582
0.197000000000000036,-4.474693855166878009
0.198000000000000037,-5.648692222677913044
0.199000000000000038,-6.798713546405416253
0.200000000000000039,-7.923796735557381510
0.201000000000000040,-9.022913664225843178
0.202000000000000041,-10.095023748498732630
0.203000000000000042,-11.139120925548555263
0.204000000000000042,-12.154272839972049880
0.205000000000000043,-13.139652329779405449
0.206000000000000044,-14.094561529550560408
0.207000000000000045,-15.018449077260816793
0.208000000000000046,-15.910921030693421230
0.209000000000000047,-16.771746176007333418
0.210000000000000048,-17.600856451639003808
0.211000000000000049,-18.398343221693444605
0.212000000000000050,-19.164450120263278876
0.213000000000000050,-19.899563157061383123
0.214000000000000051,-20.604198730119833272
0.215000000000000052,-21.278990137202679733
0.216000000000000053,-21.924673117503271413
0.217000000000000054,-22.542070892056869980
0.218000000000000055,-23.132079107465933987
0.219000000000000056,-23.695651024882753433
0.220000000000000057,-24.233783236171838382
0.221000000000000058,-24.747502132834853228
0.222000000000000058,-25.237851301376721835
0.223000000000000059,-25.705879971773818227
0.224000000000000060,-26.152632603823555257
0.225000000000000061,-26.579139659461883838
0.226000000000000062,-26.986409577542996630
0.227000000000000063,-27.375421940888010397
0.228000000000000064,-27.747121803344942492
0.229000000000000065,-28.102415126825910363
0.230000000000000066,-28.442165264423824311
0.231000000000000066,-28.767190415370208711
0.232000000000000067,-29.078261970378360246
0.233000000000000068,-29.376103661429652902
0.234000000000000069,-29.661391427926684372
0.235000000000000070,-29.934753910994498227
0.236000000000000071,-30.196773489225101628
0.237000000000000072,-30.447987772023417108
0.238000000000000073,-30.688891470641795678
0.239000000000000073,-30.919938571735421817
0.240000000000000074,-31.141544743610722890
0.241000000000000075,-31.354089911076176378
0.242000000000000076,-31.557920940772554275
0.243000000000000077,-31.753354384916782749
0.244000000000000078,-31.940679237416588876
0.245000000000000079,-32.120159662207278473
0.246000000000000080,-32.292037659344444478
0.247000000000000081,-32.456535639799284354
0.248000000000000081,-32.613858884995529763
0.249000000000000082,-32.764197871867949630
0.250000000000000111,-32.907730448589816774
0.251000000000000112,-33.044623850097380569
0.252000000000000113,-33.175036546132353976
0.253000000000000114,-33.299119917727431073
0.254000000000000115,-33.417019760890127600
0.255000000000000115,-33.528877618704640895
0.256000000000000116,-33.634831945190015290
0.257000000000000117,-33.735019106046436832
0.258000000000000118,-33.829574222906728664
0.259000000000000119,-33.918631868916236272
0.260000000000000120,-34.002326624410571299
0.261000000000000121,-34.080793502170116938
0.262000000000000122,-34.154168252230952874
0.263000000000000123,-34.222587556540588594
0.264000000000000123,-34.286189123890501662
0.265000000000000124,-34.345111695554557230
0.266000000000000125,-34.399494971933719967
0.267000000000000126,-34.449479470270418346
0.268000000000000127,-34.495206323170954477
0.269000000000000128,-34.536817027272931568
0.270000000000000129,-34.574453150935326562
0.271000000000000130,-34.608256009323305591
0.272000000000000131,-34.638366314719597483
0.273000000000000131,-34.664923809330993265
0.274000000000000132,-34.688066887280719186
0.275000000000000133,-34.707932211895275998
0.276000000000000134,-34.724654333811983520
0.277000000000000135,-34.738365314860104149
0.278000000000000136,-34.749194362108042355
0.279000000000000137,-34.757267475925694100
0.280000000000000138,-34.762707115388792545
0.281000000000000139,-34.765631883854609896
0.282000000000000139,-34.766156237065708012
0.283000000000000140,-34.764390215695080144
0.284000000000000141,-34.760439203830479471
0.285000000000000142,-34.754403714510999635
0.286000000000000143,-34.746379203072883968
0.287000000000000144,-34.736455908736786569
0.288000000000000145,-34.724718724572653628
0.289000000000000146,-34.711247095711073030
0.290000000000000147,-34.696114945431808962
0.291000000000000147,-34.679390628547885456
0.292000000000000148,-34.661136911318308762
0.293000000000000149,-34.641410976961637402
0.294000000000000150,-34.620264455704507611
0.295000000000000151,-34.597743478184419530
0.296000000000000152,-34.573888750930898084
0.297000000000000153,-34.548735652573256516
0.298000000000000154,-34.522314349365892383
0.299000000000000155,-34.494649928579896425
0.300000000000000155,-34.465762548283315425
0.301000000000000156,-34.435667602019627509
0.302000000000000157,-34.404375896892688047
0.303000000000000158,-34.371893843577346672
0.304000000000000159,-34.338223656794141903
0.305000000000000160,-34.303363564815931852
0.306000000000000161,-34.267308026609818228
0.307000000000000162,-34.230047955260943127
0.308000000000000163,-34.191570946372749518
0.309000000000000163,-34.151861510191160676
0.310000000000000164,-34.110901306257005672
0.311000000000000165,-34.068669379450561507
0.312000000000000166,-34.025142396354432606
0.313000000000000167,-33.980294880924404310
0.314000000000000168,-33.934099448523049602
0.315000000000000169,-33.886527037435790533
0.316000000000000170,-33.837547137055466351
0.317000000000000171,-33.787128011985274156
0.318000000000000171,-33.735236921375296504
0.319000000000000172,-33.681840332870862653
0.320000000000000173,-33.626904130612309984
0.321000000000000174,-33.570393816786634034
0.322000000000000175,-33.512274706289574056
0.323000000000000176,-33.452512114112892050
0.324000000000000177,-33.391071535126151559
0.325000000000000178,-33.327918815973532674
0.326000000000000179,-33.263020318856504787
0.327000000000000179,-33.196343077019236034
0.328000000000000180,-33.127854941798787536
0.329000000000000181,-33.057524721143728641
0.330000000000000182,-32.985322309544059749
0.331000000000000183,-32.911218809352590142
0.332000000000000184,-32.835186643511519833
0.333000000000000185,-32.757199659730630970
0.334000000000000186,-32.677233226191773952
0.335000000000000187,-32.595264318882470889
0.336000000000000187,-32.511271600685176963
0.337000000000000188,-32.425235492371406565
0.338000000000000189,-32.337138235670337849
0.339000000000000190,-32.246963948599550065
0.340000000000000191,-32.154698673260995179
0.341000000000000192,-32.060330416320709901
0.342000000000000193,-31.963849182401855131
0.343000000000000194,-31.865247000631995888
0.344000000000000195,-31.764517944594153676
0.345000000000000195,-31.661658145938787356
0.346000000000000196,-31.556665801919315584
0.347000000000000197,-31.449541177118742752
0.348000000000000198,-31.340286599637959597
0.349000000000000199,-31.228906452018257767
0.350000000000000200,-31.115407157171649288
0.351000000000000201,-30.999797159592304752
0.352000000000000202,-30.882086902121393734
0.353000000000000203,-30.762288798535507794
0.354000000000000203,-30.640417202226508664
0.355000000000000204,-30.516488371236221155
0.356000000000000205,-30.390520429906331401
0.357000000000000206,-30.262533327398415395
0.358000000000000207,-30.132548793333540971
0.359000000000000208,-30.000590290795805970
0.360000000000000209,-29.866682966937570853
0.361000000000000210,-29.730853601417418730
0.362000000000000210,-29.593130552895399177
0.363000000000000211,-29.453543703802903764
0.364000000000000212,-29.312124403596961031
0.365000000000000213,-29.168905410701501779
0.366000000000000214,-29.023920833330400626
0.367000000000000215,-28.877206069379166564
0.368000000000000216,-28.728797745564815358
0.369000000000000217,-28.578733655984997597
0.370000000000000218,-28.427052700260183826
0.371000000000000218,-28.273794821414544032
0.372000000000000219,-28.119000943643207791
0.373000000000000220,-27.962712910106642283
0.374000000000000221,-27.804973420884255830
0.375000000000000222,-27.645825971212538263
0.376000000000000223,-27.485314790125386253
0.377000000000000224,-27.323484779607035478
0.378000000000000225,-27.160381454360951636
0.379000000000000226,-26.996050882290838047
0.380000000000000226,-26.830539625783860203
0.381000000000000227,-26.663894683878361036
0.382000000000000228,-26.496163435393480512
0.383000000000000229,-26.327393583090401563
0.384000000000000230,-26.157633098929910176
0.385000000000000231,-25.986930170484971114
0.386000000000000232,-25.815333148560888787
0.387000000000000233,-25.642890496071014894
0.388000000000000234,-25.469650738210098950
0.389000000000000234,-25.295662413962922699
0.390000000000000235,-25.120974028980583626
0.391000000000000236,-24.945634009852788893
0.392000000000000237,-24.769690659799557864
0.393000000000000238,-24.593192115802207098
0.394000000000000239,-24.416186307188937121
0.395000000000000240,-24.238720915687029134
0.396000000000000241,-24.060843336950007654
0.397000000000000242,-23.882600643564437348
0.398000000000000242,-23.704039549538400422
0.399000000000000243,-23.525206376270283215
0.400000000000000244,-23.346147019993630067
0.401000000000000245,-23.166906920691754834
0.402000000000000246,-22.987531032472581671
0.403000000000000247,-22.808063795392300221
0.404000000000000248,-22.628549108714349103
0.405000000000000249,-22.449030305587971412
0.406000000000000250,-22.269550129128774074
0.407000000000000250,-22.090150709882355073
0.408000000000000251,-21.910873544649977163
0.409000000000000252,-21.731759476654325169
0.410000000000000253,-21.552848677021717805
0.411000000000000254,-21.374180627556160772
0.412000000000000255,-21.195794104779558609
0.413000000000000256,-21.017727165211375961
0.414000000000000257,-20.840017131860090416
0.415000000000000258,-20.662700581898498342
0.416000000000000258,-20.485813335493602949
0.417000000000000259,-20.309390445761881239
0.418000000000000260,-20.133466189819973380
0.419000000000000261,-19.958074060900333535
0.420000000000000262,-19.783246761501498412
0.421000000000000263,-19.609016197542000981
0.422000000000000264,-19.435413473487010094
0.423000000000000265,-19.262468888416513835
0.424000000000000266,-19.090211933004262335
0.425000000000000266,-18.918671287376156442
0.426000000000000267,-18.747874819817120340
0.427000000000000268,-18.577849586295901219
0.428000000000000269,-18.408621830776816353
0.429000000000000270,-18.240216986288459111
0.430000000000000271,-18.072659676718789257
0.431000000000000272,-17.905973719307183956
0.432000000000000273,-17.740182127803812762
0.433000000000000274,-17.575307116267275376
0.434000000000000274,-17.411370103471853099
0.435000000000000275,-17.248391717896097930
0.436000000000000276,-17.086391803265183142
0.437000000000000277,-16.925389424619350365
0.438000000000000278,-16.765402874882063600
0.439000000000000279,-16.606449681901459314
0.440000000000000280,-16.448546615939211080
0.441000000000000281,-16.291709697581936211
0.442000000000000282,-16.135954206050314497
0.443000000000000282,-15.981294687881923977
0.444000000000000283,-15.827744965964418711
0.445000000000000284,-15.675318148896138837
0.446000000000000285,-15.524026640651712228
0.447000000000000286,-15.373882150531382962
0.448000000000000287,-15.224895703372421707
0.449000000000000288,-15.077077650002712161
0.450000000000000289,-14.930437677916222228
0.451000000000000290,-14.784984822151235662
0.452000000000000290,-14.640727476352751069
0.453000000000000291,-14.497673404000767761
0.454000000000000292,-14.355829749787222482
0.455000000000000293,-14.215203051124380096
0.456000000000000294,-14.075799249768646604
0.457000000000000295,-13.937623703543906117
0.458000000000000296,-13.800681198149154838
0.459000000000000297,-13.664975959036093300
0.460000000000000298,-13.530511663342199569
0.461000000000000298,-13.397291451866284007
0.462000000000000299,-13.265317941073101693
0.463000000000000300,-13.134593235114872201
0.464000000000000301,-13.005118937857663042
0.465000000000000302,-12.876896164901348030
0.466000000000000303,-12.749925555582091619
0.467000000000000304,-12.624207284946994179
0.468000000000000305,-12.499741075691105152
0.469000000000000306,-12.376526210047089194
0.470000000000000306,-12.254561541618830489
0.471000000000000307,-12.133845507150088139
0.472000000000000308,-12.014376138220493218
0.473000000000000309,-11.896151072860778442
0.474000000000000310,-11.779167567080303769
0.475000000000000311,-11.663422506299720993
0.476000000000000312,-11.548912416682721727
0.477000000000000313,-11.435633476360180794
0.478000000000000314,-11.323581526541534714
0.479000000000000314,-11.212752082507758900
0.480000000000000315,-11.103140344480895152
0.481000000000000316,-10.994741208365685026
0.482000000000000317,-10.887549276358722494
0.483000000000000318,-10.781558867421280112
0.484000000000000319,-10.676764027611968189
0.485000000000000320,-10.573158540275951367
0.486000000000000321,-10.470735936087464779
0.487000000000000322,-10.369489502942846215
0.488000000000000322,-10.269412295701416227
0.489000000000000323,-10.170497145772067427
0.490000000000000324,-10.072736670543273263
0.491000000000000325,-9.976123282654805635
0.492000000000000326,-9.880649199109468483
0.493000000000000327,-9.786306450223586140
0.494000000000000328,-9.693086888414885749
0.495000000000000329,-9.600982196826997495
0.496000000000000330,-9.509983897789641816
0.497000000000000330,-9.420083361113997356
0.498000000000000331,-9.331271812222727391
0.499000000000000332,-9.243540340114659415
0.500000000000000333,-9.156879905163719968
0.501000000000000334,-9.071281346752437358
0.502000000000000335,-8.986735390740108187
0.503000000000000336,-8.903232656766112640
0.504000000000000337,-8.820763665388721364
0.505000000000000338,-8.739318845060118690
0.506000000000000338,-8.658888538938406043
0.507000000000000339,-8.579463011537349360
0.508000000000000340,-8.501032455214911465
0.509000000000000341,-8.423586996501651214
0.510000000000000342,-8.347116702270088950
0.511000000000000343,-8.271611585746345696
0.512000000000000344,-8.197061612365359906
0.513000000000000345,-8.123456705471177486
0.514000000000000346,-8.050786751863714841
0.515000000000000346,-7.979041607193626540
0.516000000000000347,-7.908211101206871874
0.517000000000000348,-7.838285042840764660
0.518000000000000349,-7.769253225173052613
0.519000000000000350,-7.701105430226076187
0.520000000000000351,-7.633831433627682017
0.521000000000000352,-7.567421009130842258
0.522000000000000353,-7.501863932993929396
0.523000000000000353,-7.437149988223519692
0.524000000000000354,-7.373268968681917279
0.525000000000000355,-7.310210683061197479
0.526000000000000356,-7.247964958726005769
0.527000000000000357,-7.186521645427137450
0.528000000000000358,-7.125870618887897301
0.529000000000000359,-7.066001784265570684
0.530000000000000360,-7.006905079489908594
0.531000000000000361,-6.948570478480948331
0.532000000000000361,-6.890987994248197523
0.533000000000000362,-6.834147681873406377
0.534000000000000363,-6.778039641379125513
0.535000000000000364,-6.722654020485070880
0.536000000000000365,-6.667981017254655640
0.537000000000000366,-6.614010882633721167
0.538000000000000367,-6.560733922883636993
0.539000000000000368,-6.508140501911034548
0.540000000000000369,-6.456221043496161549
0.541000000000000369,-6.404966033422125449
0.542000000000000370,-6.354366021507149576
0.543000000000000371,-6.304411623541834153
0.544000000000000372,-6.255093523133720801
0.545000000000000373,-6.206402473461112734
0.546000000000000374,-6.158329298938250318
0.547000000000000375,-6.110864896793931855
0.548000000000000376,-6.064000238565671275
0.549000000000000377,-6.017726371511303185
0.550000000000000377,-5.972034419940083438
0.551000000000000378,-5.926915586465362651
0.552000000000000379,-5.882361153180649005
0.553000000000000380,-5.838362482761126238
0.554000000000000381,-5.794911019492453796
0.555000000000000382,-5.751998290228858224
0.556000000000000383,-5.709615905282221959
0.557000000000000384,-5.667755559244232799
0.558000000000000385,-5.626409031743204281
0.559000000000000385,-5.585568188137559176
0.560000000000000386,-5.545224980147571259
0.561000000000000387,-5.505371446427279380
0.562000000000000388,-5.465999713078196542
0.563000000000000389,-5.427101994106496186
0.564000000000000390,-5.388670591825444944
0.565000000000000391,-5.350697897204623743
0.566000000000000392,-5.313176390167607011
0.567000000000000393,-5.276098639839679194
0.568000000000000393,-5.239457304747141997
0.569000000000000394,-5.203245132969733788
0.570000000000000395,-5.167454962247739481
0.571000000000000396,-5.132079720045149784
0.572000000000000397,-5.097112423570451689
0.573000000000000398,-5.062546179756361120
0.574000000000000399,-5.028374185200009450
0.575000000000000400,-4.994589726064836199
0.576000000000000401,-4.961186177945619669
0.577000000000000401,-4.928157005697954673
0.578000000000000402,-4.895495763233406628
0.579000000000000403,-4.863196093281656474
0.580000000000000404,-4.831251727120898565
0.581000000000000405,-4.799656484277628365
0.582000000000000406,-4.768404272197049210
0.583000000000000407,-4.737489085885278506
0.584000000000000408,-4.706905007524438744
0.585000000000000409,-4.676646206061763067
0.586000000000000409,-4.646706936773811414
0.587000000000000410,-4.617081540806829310
0.588000000000000411,-4.587764444694312438
0.589000000000000412,-4.558750159852756667
0.590000000000000413,-4.530033282056585620
0.591000000000000414,-4.501608490893240777
0.592000000000000415,-4.473470549199343615
0.593000000000000416,-4.445614302478851698
0.594000000000000417,-4.418034678304088914
0.595000000000000417,-4.390726685700590437
0.596000000000000418,-4.363685414516448979
0.597000000000000419,-4.336906034777198826
0.598000000000000420,-4.310383796026846071
0.599000000000000421,-4.284114026655955421
0.600000000000000422,-4.258092133217489916
0.601000000000000423,-4.232313599731178044
0.602000000000000424,-4.206773986977098367
0.603000000000000425,-4.181468931779197540
0.604000000000000425,-4.156394146279430046
0.605000000000000426,-4.131545417203152049
0.606000000000000427,-4.106918605116471888
