# Cu110_BSAI28
# h[nm],U(h)[kJ/mol]
0.149999999999999994,128.876694513309729473
0.150999999999999995,122.289253245002740300
0.151999999999999996,118.337188266905258160
0.152999999999999997,114.921384326020273647
0.153999999999999998,111.293451513765802474
0.154999999999999999,107.335405966782218457
0.156000000000000000,103.171372053063237217
0.157000000000000001,98.974747611883813647
0.158000000000000002,94.885629165777416461
0.159000000000000002,90.986650804907895917
0.160000000000000003,87.306716233253382597
0.161000000000000004,83.835471524885932126
0.162000000000000005,80.539536650348537705
0.163000000000000006,77.376341419505848762
0.164000000000000007,74.304129900879587467
0.165000000000000008,71.288117569700034437
0.166000000000000009,68.303432710876265332
0.167000000000000010,65.335682072569582601
0.168000000000000010,62.379958003238343167
0.169000000000000011,59.438975262858072313
0.170000000000000012,56.520862296019160453
0.171000000000000013,53.636972597991203315
0.172000000000000014,50.799945176008094450
0.173000000000000015,48.022135380578042430
0.174000000000000016,45.314458372297679034
0.175000000000000017,42.685633772572565192
0.176000000000000018,40.141786933866903553
0.177000000000000018,37.686344929023974260
0.178000000000000019,35.320159415127292846
0.179000000000000020,33.041790286852247505
0.180000000000000021,30.847890566350610442
0.181000000000000022,28.733642064665900762
0.182000000000000023,26.693201397679114706
0.183000000000000024,24.720125862052505283
0.184000000000000025,22.807757788790127051
0.185000000000000026,20.949553911221542535
0.186000000000000026,19.139352846165387234
0.187000000000000027,17.371578977859108761
0.188000000000000028,15.641384937253031140
0.189000000000000029,13.944737624817182819
0.190000000000000030,12.278454501234456586
0.191000000000000031,10.640197842734018252
0.192000000000000032,9.028434995609533331
0.193000000000000033,7.442372522344248509
0.194000000000000034,5.881871645340079446
0.195000000000000034,4.347351678256112351
0.196000000000000035,2.839687283369116244
0.197000000000000036,1.360104480609835020
0.198000000000000037,-0.089920583120642661
0.199000000000000038,-1.508756975478195983
0.200000000000000039,-2.894706115838392879
0.201000000000000040,-4.246079122318525023
0.202000000000000041,-5.561263418314110751
0.203000000000000042,-6.838778186382779900
0.204000000000000042,-8.077318699838297533
0.205000000000000043,-9.275789914363356203
0.206000000000000044,-10.433329970702427403
0.207000000000000045,-11.549324453833005322
0.208000000000000046,-12.623412383397441872
0.209000000000000047,-13.655484984195570775
0.210000000000000048,-14.645678313505815282
0.211000000000000049,-15.594360812679180839
0.212000000000000050,-16.502116811866589074
0.213000000000000050,-17.369726956068724633
0.214000000000000051,-18.198146444241650954
0.215000000000000052,-18.988481886346569638
0.216000000000000053,-19.741967490546663555
0.217000000000000054,-20.459941197965243020
0.218000000000000055,-21.143821288531434277
0.219000000000000056,-21.795083890789232584
0.220000000000000057,-22.415241742898775357
0.221000000000000058,-23.005824472660208357
0.222000000000000058,-23.568360592081376126
0.223000000000000059,-24.104361337248530361
0.224000000000000060,-24.615306427233242914
0.225000000000000061,-25.102631766420397952
0.226000000000000062,-25.567719072734714558
0.227000000000000063,-26.011887379407301779
0.228000000000000064,-26.436386329684172125
0.229000000000000065,-26.842391161704643565
0.230000000000000066,-27.230999264087152767
0.231000000000000066,-27.603228170969892119
0.232000000000000067,-27.960014857766815055
0.233000000000000068,-28.302216195145916799
0.234000000000000069,-28.630610418164202713
0.235000000000000070,-28.945899469586265695
0.236000000000000071,-29.248712080692108373
0.237000000000000072,-29.539607458909149074
0.238000000000000073,-29.819079458985640940
0.239000000000000073,-30.087561122807663594
0.240000000000000074,-30.345429482042568736
0.241000000000000075,-30.593010527293738932
0.242000000000000076,-30.830584257148551330
0.243000000000000077,-31.058389730198012302
0.244000000000000078,-31.276630052639443846
0.245000000000000079,-31.485477243312164575
0.246000000000000080,-31.685076926856432067
0.247000000000000081,-31.875552814047239281
0.248000000000000081,-32.057010936177093186
0.249000000000000082,-32.229543607606828459
0.250000000000000111,-32.393233097245932584
0.251000000000000112,-32.548154995751538365
0.252000000000000113,-32.694381270653636307
0.253000000000000114,-32.831983006425254246
0.254000000000000115,-32.961032830748770550
0.255000000000000115,-33.081607031896986371
0.256000000000000116,-33.193787375286348151
0.257000000000000117,-33.297662629897786246
0.258000000000000118,-33.393329817432785944
0.259000000000000119,-33.480895198816561731
0.260000000000000120,-33.560475014010897610
0.261000000000000121,-33.632195992092093206
0.262000000000000122,-33.696195649224229385
0.263000000000000123,-33.752622392544644470
0.264000000000000123,-33.801635448114190297
0.265000000000000124,-33.843404630999799565
0.266000000000000125,-33.878109975282157507
0.267000000000000126,-33.905941241343846571
0.268000000000000127,-33.927097317221011963
0.269000000000000128,-33.941785530117485337
0.270000000000000129,-33.950220883405947347
0.271000000000000130,-33.952625233598539012
0.272000000000000131,-33.949226420874211385
0.273000000000000131,-33.940257365821011604
0.274000000000000132,-33.925955144100662153
0.275000000000000133,-33.906560049784864930
0.276000000000000134,-33.882314657156385351
0.277000000000000135,-33.853462889824847082
0.278000000000000136,-33.820249105083767915
0.279000000000000137,-33.782917200539380076
0.280000000000000138,-33.741709749177893229
0.281000000000000139,-33.696867168212015997
0.282000000000000139,-33.648626926260966741
0.283000000000000140,-33.597222792676440406
0.284000000000000141,-33.542884132128769181
0.285000000000000142,-33.485835246916757058
0.286000000000000143,-33.426294768860330464
0.287000000000000144,-33.364475102076660562
0.288000000000000145,-33.300581917430619683
0.289000000000000146,-33.234813698983522556
0.290000000000000147,-33.167361342343525621
0.291000000000000147,-33.098407804442665281
0.292000000000000148,-33.028127803929073991
0.293000000000000149,-32.956687571064989584
0.294000000000000150,-32.884244645762201742
0.295000000000000151,-32.810947722162310924
0.296000000000000152,-32.736936537978593265
0.297000000000000153,-32.662341806657408938
0.298000000000000154,-32.587285190286515046
0.299000000000000155,-32.511879311075759347
0.300000000000000155,-32.436227799156725382
0.301000000000000156,-32.360425374393379627
0.302000000000000157,-32.284557959861714949
0.303000000000000158,-32.208702824640909057
0.304000000000000159,-32.132928753560562996
0.305000000000000160,-32.057296241565801154
0.306000000000000161,-31.981857710392489480
0.307000000000000162,-31.906657745288178774
0.308000000000000163,-31.831733349566775360
0.309000000000000163,-31.757114214847739220
0.310000000000000164,-31.682823004900559027
0.311000000000000165,-31.608875651091079106
0.312000000000000166,-31.535281657508921427
0.313000000000000167,-31.462044413940208898
0.314000000000000168,-31.389161514939850406
0.315000000000000169,-31.316625083348753833
0.316000000000000170,-31.244422096695199542
0.317000000000000171,-31.172534715012933049
0.318000000000000171,-31.100940608703457002
0.319000000000000172,-31.029613285163797798
0.320000000000000173,-30.958522412993762174
0.321000000000000174,-30.887634142688490613
0.322000000000000175,-30.816911422812165000
0.323000000000000176,-30.746314310735805009
0.324000000000000177,-30.675800277108258740
0.325000000000000178,-30.605324503310963991
0.326000000000000179,-30.534840171227983774
0.327000000000000179,-30.464298744738169233
0.328000000000000180,-30.393650242410664930
0.329000000000000181,-30.322843500954643758
0.330000000000000182,-30.251826429040704625
0.331000000000000183,-30.180546251175133676
0.332000000000000184,-30.108949741367553088
0.333000000000000185,-30.036983446389143637
0.334000000000000186,-29.964593898471584055
0.335000000000000187,-29.891727817346129825
0.336000000000000187,-29.818332301568979403
0.337000000000000188,-29.744355009121374422
0.338000000000000189,-29.669744327313274823
0.339000000000000190,-29.594449532055669749
0.340000000000000191,-29.518420936600200832
0.341000000000000192,-29.441610029875977972
0.342000000000000193,-29.363969604580564265
0.343000000000000194,-29.285453875208315111
0.344000000000000195,-29.206018586220800159
0.345000000000000195,-29.125621110585075968
0.346000000000000196,-29.044220538923109842
0.347000000000000197,-28.961777759531013743
0.348000000000000198,-28.878255529540457047
0.349000000000000199,-28.793618537506240784
0.350000000000000200,-28.707833457713270775
0.351000000000000201,-28.620868996504253090
0.352000000000000202,-28.532695930935581430
0.353000000000000203,-28.443287140073543640
0.354000000000000203,-28.352617629246147146
0.355000000000000204,-28.260664547567632354
0.356000000000000205,-28.167407199053720035
0.357000000000000206,-28.072827047644949516
0.358000000000000207,-27.976907716453535357
0.359000000000000208,-27.879634981547678052
0.360000000000000209,-27.780996760582770122
0.361000000000000210,-27.680983096585627834
0.362000000000000210,-27.579586137192638517
0.363000000000000211,-27.476800109637132152
0.364000000000000212,-27.372621291775800501
0.365000000000000213,-27.267047979436519256
0.366000000000000214,-27.160080450363853544
0.367000000000000215,-27.051720925030402043
0.368000000000000216,-26.941973524575075771
0.369000000000000217,-26.830844226120852625
0.370000000000000218,-26.718340815716793202
0.371000000000000218,-26.604472839140516527
0.372000000000000219,-26.489251550788765144
0.373000000000000220,-26.372689860875432544
0.374000000000000221,-26.254802281147295417
0.375000000000000222,-26.135604869319241317
0.376000000000000223,-26.015115172422166978
0.377000000000000224,-25.893352169247926042
0.378000000000000225,-25.770336212067057602
0.379000000000000226,-25.646088967786585755
0.380000000000000226,-25.520633358706966476
0.381000000000000227,-25.393993503028251979
0.382000000000000228,-25.266194655248447987
0.383000000000000229,-25.137263146587951468
0.384000000000000230,-25.007226325566719538
0.385000000000000231,-24.876112498853210298
0.386000000000000232,-24.743950872496100146
0.387000000000000233,-24.610771493643095909
0.388000000000000234,-24.476605192843557290
0.389000000000000234,-24.341483527025395972
0.390000000000000235,-24.205438723229157461
0.391000000000000236,-24.068503623176734862
0.392000000000000237,-23.930711628745036990
0.393000000000000238,-23.792096648409682302
0.394000000000000239,-23.652693044717398863
0.395000000000000240,-23.512535582840627058
0.396000000000000241,-23.371659380262492789
0.397000000000000242,-23.230099857634691318
0.398000000000000242,-23.087892690846885557
0.399000000000000243,-22.945073764340470746
0.400000000000000244,-22.801679125695791583
0.401000000000000245,-22.657744941517648840
0.402000000000000246,-22.513307454639399197
0.403000000000000247,-22.368402942662530819
0.404000000000000248,-22.223067677844962731
0.405000000000000249,-22.077337888347649653
0.406000000000000250,-21.931249720845915618
0.407000000000000250,-21.784839204508994470
0.408000000000000251,-21.638142216348207114
0.409000000000000252,-21.491194447931636802
0.410000000000000253,-21.344031373460445877
0.411000000000000254,-21.196688219199891989
0.412000000000000255,-21.049199934255518940
0.413000000000000256,-20.901601162683423496
0.414000000000000257,-20.753926216920962844
0.415000000000000258,-20.606209052523130509
0.416000000000000258,-20.458483244187942063
0.417000000000000259,-20.310781963052310317
0.418000000000000260,-20.163137955239420762
0.419000000000000261,-20.015583521636315822
0.420000000000000262,-19.868150498880101651
0.421000000000000263,-19.720870241529816269
0.422000000000000264,-19.573773605399996001
0.423000000000000265,-19.426890932031362524
0.424000000000000266,-19.280252034273491546
0.425000000000000266,-19.133886182953066424
0.426000000000000267,-18.987822094601632728
0.427000000000000268,-18.842087920215714547
0.428000000000000269,-18.696711235021858499
0.429000000000000270,-18.551719029219309931
0.430000000000000271,-18.407137699672134090
0.431000000000000272,-18.262993042522975173
0.432000000000000273,-18.119310246700266021
0.433000000000000274,-17.976113888290822018
0.434000000000000274,-17.833427925749500531
0.435000000000000275,-17.691275695918061928
0.436000000000000276,-17.549679910825211948
0.437000000000000277,-17.408662655239787398
0.438000000000000278,-17.268245384949864274
0.439000000000000279,-17.128448925740144659
0.440000000000000280,-16.989293473040525839
0.441000000000000281,-16.850798592219113914
0.442000000000000282,-16.712983219493306564
0.443000000000000282,-16.575865663432551855
0.444000000000000283,-16.439463607027335001
0.445000000000000284,-16.303794110298934328
0.446000000000000285,-16.168873613425017055
0.447000000000000286,-16.034717940356824073
0.448000000000000287,-15.901342302903639592
0.449000000000000288,-15.768761305261412176
0.450000000000000289,-15.636988948962155632
0.451000000000000290,-15.506038638221857795
0.452000000000000290,-15.375923185664822412
0.453000000000000291,-15.246654818402841869
0.454000000000000292,-15.118245184448444007
0.455000000000000293,-14.990705359441554023
0.456000000000000294,-14.864045853669855646
0.457000000000000295,-14.738276619363375630
0.458000000000000296,-14.613407058244428427
0.459000000000000297,-14.489446029314819953
0.460000000000000298,-14.366401856862259123
0.461000000000000298,-14.244282338669046695
0.462000000000000299,-14.123094754406185558
0.463000000000000300,-14.002845874196742315
0.464000000000000301,-13.883541967332945433
0.465000000000000302,-13.765188811131860547
0.466000000000000303,-13.647791699914995078
0.467000000000000304,-13.531355454097791835
0.468000000000000305,-13.415884429375514841
0.469000000000000306,-13.301382525992247352
0.470000000000000306,-13.187853198080748740
0.471000000000000307,-13.075299463060616745
0.472000000000000308,-12.963723911083624429
0.473000000000000309,-12.853128714514635789
0.474000000000000310,-12.743515637437729637
0.475000000000000311,-12.634886045176990876
0.476000000000000312,-12.527240913822582868
0.477000000000000313,-12.420580839752155100
0.478000000000000314,-12.314906049139128896
0.479000000000000314,-12.210216407439135722
0.480000000000000315,-12.106511428846351563
0.481000000000000316,-12.003790285712268471
0.482000000000000317,-11.902051817919291565
0.483000000000000318,-11.801294542202290572
0.484000000000000319,-11.701516661411512032
0.485000000000000320,-11.602716073710586997
0.486000000000000321,-11.504890381703678059
0.487000000000000322,-11.408036901486211079
0.488000000000000322,-11.312152671613940669
0.489000000000000323,-11.217234461985473359
0.490000000000000324,-11.123278782633546413
0.491000000000000325,-11.030281892420799039
0.492000000000000326,-10.938239807635872225
0.493000000000000327,-10.847148310486341316
0.494000000000000328,-10.757002957484669281
0.495000000000000329,-10.667799087724251450
0.496000000000000330,-10.579531831042313428
0.497000000000000330,-10.492196116067216138
0.498000000000000331,-10.405786678147343594
0.499000000000000332,-10.320298067159681565
0.500000000000000333,-10.235724655195685528
0.501000000000000334,-10.152060644122826716
0.502000000000000335,-10.069300073020105657
0.503000000000000336,-9.987436825486090797
0.504000000000000337,-9.906464636818228087
0.505000000000000338,-9.826377101062339747
0.506000000000000338,-9.747167677931470209
0.507000000000000339,-9.668829699593192828
0.508000000000000340,-9.591356377324942173
0.509000000000000341,-9.514740808036931341
0.510000000000000342,-9.438975980662227983
0.511000000000000343,-9.364054782413997913
0.512000000000000344,-9.289970004909786638
0.513000000000000345,-9.216714350163012881
0.514000000000000346,-9.144280436441880155
0.515000000000000346,-9.072660803996026146
0.516000000000000347,-9.001847920651311341
0.517000000000000348,-8.931834187273496539
0.518000000000000349,-8.862611943101089906
0.519000000000000350,-8.794173470948496885
0.520000000000000351,-8.726511002280007645
0.521000000000000352,-8.659616722155638158
0.522000000000000353,-8.593482774049821415
0.523000000000000353,-8.528101264543879623
0.524000000000000354,-8.463464267893609616
0.525000000000000355,-8.399563830472899895
0.526000000000000356,-8.336391975094821660
0.527000000000000357,-8.273940705211449753
0.528000000000000358,-8.212202008993623181
0.529000000000000359,-8.151167863292254623
0.530000000000000360,-8.090830237482466103
0.531000000000000361,-8.031181097192078511
0.532000000000000361,-7.972212407916002164
0.533000000000000362,-7.913916138518023224
0.534000000000000363,-7.856284264621618441
0.535000000000000364,-7.799308771891356074
0.536000000000000365,-7.742981659206577660
0.537000000000000366,-7.687294941728969988
0.538000000000000367,-7.632240653865690838
0.539000000000000368,-7.577810852129839070
0.540000000000000369,-7.523997617899828683
0.541000000000000369,-7.470793060079531145
0.542000000000000370,-7.418189317660835336
0.543000000000000371,-7.366178562190373036
0.544000000000000372,-7.314753000142192541
0.545000000000000373,-7.263904875198112343
0.546000000000000374,-7.213626470437489502
0.547000000000000375,-7.163910110438152401
0.548000000000000376,-7.114748163290360417
0.549000000000000377,-7.066133042525383878
0.550000000000000377,-7.018057208960529536
0.551000000000000378,-6.970513172462382556
0.552000000000000379,-6.923493493629966800
0.553000000000000380,-6.876990785399553552
0.554000000000000381,-6.830997714572792923
0.555000000000000382,-6.785507003270053517
0.556000000000000383,-6.740511430310384355
0.557000000000000384,-6.696003832520081467
0.558000000000000385,-6.651977105971303317
0.559000000000000385,-6.608424207152552299
0.560000000000000386,-6.565338154072558829
0.561000000000000387,-6.522712027299259141
0.562000000000000388,-6.480538970935491250
0.563000000000000389,-6.438812193532911010
0.564000000000000390,-6.397524968945852208
0.565000000000000391,-6.356670637126547341
0.566000000000000392,-6.316242604863355758
0.567000000000000393,-6.276234346463490432
0.568000000000000393,-6.236639404381703500
0.569000000000000394,-6.197451389796467147
0.570000000000000395,-6.158663983135136633
0.571000000000000396,-6.120270934549425945
0.572000000000000397,-6.082266064342759293
0.573000000000000398,-6.044643263350780060
0.574000000000000399,-6.007396493276492500
0.575000000000000400,-5.970519786981310695
0.576000000000000401,-5.934007248733394135
0.577000000000000401,-5.897853054414619933
0.578000000000000402,-5.862051451687378290
0.579000000000000403,-5.826596760122558116
0.580000000000000404,-5.791483371289954718
0.581000000000000405,-5.756705748812274592
0.582000000000000406,-5.722258428383986129
0.583000000000000407,-5.688136017756184160
0.584000000000000408,-5.654333196688630991
0.585000000000000409,-5.620844716870098345
0.586000000000000409,-5.587665401808138199
0.587000000000000410,-5.554790146689368768
0.588000000000000411,-5.522213918211352990
0.589000000000000412,-5.489931754387104235
0.590000000000000413,-5.457938764323245096
0.591000000000000414,-5.426230127972867301
0.592000000000000415,-5.394801095864004026
0.593000000000000416,-5.363646988804740445
0.594000000000000417,-5.332763197565856039
0.595000000000000417,-5.302145182542005841
0.596000000000000418,-5.271788473392168939
0.597000000000000419,-5.241688668660476225
0.598000000000000420,-5.211841435378042675
0.599000000000000421,-5.182242508646835333
0.600000000000000422,-5.152887691206262666
0.601000000000000423,-5.123772852983361936
0.602000000000000424,-5.094893930627320877
0.603000000000000425,-5.066246927029124159
0.604000000000000425,-5.037827910827048505
0.605000000000000426,-5.009633015898721453
0.606000000000000427,-4.981658440840513791
