# Cu110_BSAIV7
# h[nm],U(h)[kJ/mol]
0.149999999999999994,174.942331112903502799
0.150999999999999995,167.536657008936003876
0.151999999999999996,162.505916915521112287
0.152999999999999997,158.030617170481320954
0.153999999999999998,153.446441876039870067
0.154999999999999999,148.631334500076548011
0.156000000000000000,143.674962185558541705
0.157000000000000001,138.714189770645532462
0.158000000000000002,133.862093738088276496
0.159000000000000002,129.186506352909930229
0.160000000000000003,124.712236795961558755
0.161000000000000004,120.432471265694204021
0.162000000000000005,116.321776581199515022
0.163000000000000006,112.347210262712820850
0.164000000000000007,108.476328842403702879
0.165000000000000008,104.682076739793359366
0.166000000000000009,100.945077163221299088
0.167000000000000010,97.254017474459843129
0.168000000000000010,93.604799673219332590
0.169000000000000011,89.999017258581105239
0.170000000000000012,86.442182884774325657
0.171000000000000013,82.941998996329971305
0.172000000000000014,79.506850963218226980
0.173000000000000015,76.144614151572909577
0.174000000000000016,72.861802441399589725
0.175000000000000017,69.663042876175168772
0.176000000000000018,66.550835347179670975
0.177000000000000018,63.525543363354373128
0.178000000000000019,60.585558335034932043
0.179000000000000020,57.727582320539795546
0.180000000000000021,54.946980416494923816
0.181000000000000022,52.238162094105419442
0.182000000000000023,49.594959498037056278
0.183000000000000024,47.010979164106103667
0.184000000000000025,44.479911242161449536
0.185000000000000026,41.995786846082673094
0.186000000000000026,39.553179486468515336
0.187000000000000027,37.147350686909362594
0.188000000000000028,34.774342931655546352
0.189000000000000029,32.431025174089249674
0.190000000000000030,30.115097403941824439
0.191000000000000031,27.825061381591893905
0.192000000000000032,25.560164746875543074
0.193000000000000033,23.320325429968246311
0.194000000000000034,21.106042747659120806
0.195000000000000034,18.918300855516754666
0.196000000000000035,16.758469422510156477
0.197000000000000036,14.628205560081507741
0.198000000000000037,12.529360217882445028
0.199000000000000038,10.463891485841577023
0.200000000000000039,8.433786538579662206
0.201000000000000040,6.440993336318771689
0.202000000000000041,4.487362662340468766
0.203000000000000042,2.574600631481913204
0.204000000000000042,0.704231444014870478
0.205000000000000043,-1.122430121227115496
0.206000000000000044,-2.904297188910040628
0.207000000000000045,-4.640521103427762029
0.208000000000000046,-6.330494527855909936
0.209000000000000047,-7.973848317521938789
0.210000000000000048,-9.570443165493996318
0.211000000000000049,-11.120356992503896976
0.212000000000000050,-12.623869005827547340
0.213000000000000050,-14.081441286621029008
0.214000000000000051,-15.493698688522655971
0.215000000000000052,-16.861407746519230244
0.216000000000000053,-18.185455207921005893
0.217000000000000054,-19.466826709860832523
0.218000000000000055,-20.706586042450926044
0.219000000000000056,-21.905855355441854471
0.220000000000000057,-23.065796590295036594
0.221000000000000058,-24.187594349909502967
0.222000000000000058,-25.272440355425342062
0.223000000000000059,-26.321519583807933884
0.224000000000000060,-27.335998131348105744
0.225000000000000061,-28.317012806629549004
0.226000000000000062,-29.265662421618024780
0.227000000000000063,-30.183000720915849513
0.228000000000000064,-31.070030866418655080
0.229000000000000065,-31.927701377094670931
0.230000000000000066,-32.756903410826595291
0.231000000000000066,-33.558469266672815934
0.232000000000000067,-34.333171980971108894
0.233000000000000068,-35.081725888909623734
0.234000000000000069,-35.804788024034060356
0.235000000000000070,-36.502960231189298668
0.236000000000000071,-37.176791873189401372
0.237000000000000072,-37.826783017692896749
0.238000000000000073,-38.453387997987668712
0.239000000000000073,-39.057019249362717517
0.240000000000000074,-39.638051331202781569
0.241000000000000075,-40.196825053654706039
0.242000000000000076,-40.733651636495110893
0.243000000000000077,-41.248816836515644013
0.244000000000000078,-41.742584988203688567
0.245000000000000079,-42.215202910627120048
0.246000000000000080,-42.666903641151904480
0.247000000000000081,-43.097909963870208117
0.248000000000000081,-43.508437707347383139
0.249000000000000082,-43.898698792488232812
0.250000000000000111,-44.268904016956284408
0.251000000000000112,-44.619265567654984750
0.252000000000000113,-44.949999257305520928
0.253000000000000114,-45.261326485138305031
0.254000000000000115,-45.553475925187640883
0.255000000000000115,-45.826684948652975038
0.256000000000000116,-46.081200789304389787
0.257000000000000117,-46.317281462990592900
0.258000000000000118,-46.535196453986493736
0.259000000000000119,-46.735227182232144116
0.260000000000000120,-46.917667266494547107
0.261000000000000121,-47.082822599162980737
0.262000000000000122,-47.231011248800491842
0.263000000000000123,-47.362563206748731659
0.264000000000000123,-47.477819994050072694
0.265000000000000124,-47.577134144738806754
0.266000000000000125,-47.660868581188182702
0.267000000000000126,-47.729395896705014479
0.268000000000000127,-47.783097559964758716
0.269000000000000128,-47.822363055192859349
0.270000000000000129,-47.847588971246501899
0.271000000000000130,-47.859178051948504162
0.272000000000000131,-47.857538219187851780
0.273000000000000131,-47.843081579443477835
0.274000000000000132,-47.816223423519623736
0.275000000000000133,-47.777381228415592318
0.276000000000000134,-47.726973669394077149
0.277000000000000135,-47.665419649474294772
0.278000000000000136,-47.593137352759079306
0.279000000000000137,-47.510543327218854870
0.280000000000000138,-47.418051601801778361
0.281000000000000139,-47.316072842021426936
0.282000000000000139,-47.205013547496641024
0.283000000000000140,-47.085275294279703928
0.284000000000000141,-46.957254024214456933
0.285000000000000142,-46.821339383012997359
0.286000000000000143,-46.677914108229813905
0.287000000000000144,-46.527353467843312274
0.288000000000000145,-46.370024749730120561
0.289000000000000146,-46.206286801929728369
0.290000000000000147,-46.036489623252286663
0.291000000000000147,-45.860974003471646654
0.292000000000000148,-45.680071212075105791
0.293000000000000149,-45.494102734301051782
0.294000000000000150,-45.303380052990938509
0.295000000000000151,-45.108204474606530709
0.296000000000000152,-44.908866997616179617
0.297000000000000153,-44.705648221334797654
0.298000000000000154,-44.498818293205822272
0.299000000000000155,-44.288636892441878956
0.300000000000000155,-44.075353247888571673
0.301000000000000156,-43.859206187943826194
0.302000000000000157,-43.640424220349267159
0.303000000000000158,-43.419225639671068961
0.304000000000000159,-43.195818660301782188
0.305000000000000160,-42.970401572841026905
0.306000000000000161,-42.743162921750503358
0.307000000000000162,-42.514281702227094684
0.308000000000000163,-42.283927574290956386
0.309000000000000163,-42.052261092150359900
0.310000000000000164,-41.819433946971670935
0.311000000000000165,-41.585589221256697101
0.312000000000000166,-41.350861653107088500
0.313000000000000167,-41.115377908734771495
0.314000000000000168,-40.879256861660472566
0.315000000000000169,-40.642609877125735807
0.316000000000000170,-40.405541100328989046
0.317000000000000171,-40.168147747180526608
0.318000000000000171,-39.930520396356001811
0.319000000000000172,-39.692743281512171905
0.320000000000000173,-39.454894582610599230
0.321000000000000174,-39.217046715376248756
0.322000000000000175,-38.979266617997325284
0.323000000000000176,-38.741616034248963274
0.324000000000000177,-38.504151792298728196
0.325000000000000178,-38.266926078522914167
0.326000000000000179,-38.029986705733037411
0.327000000000000179,-37.793377375277167118
0.328000000000000180,-37.557137932544819137
0.329000000000000181,-37.321304615464761412
0.330000000000000182,-37.085910295641618006
0.331000000000000183,-36.850984711832516894
0.332000000000000184,-36.616554695515453943
0.333000000000000185,-36.382644388349724807
0.334000000000000186,-36.149275451373888757
0.335000000000000187,-35.916467265828565303
0.336000000000000187,-35.684237125531602430
0.337000000000000188,-35.452600420768291656
0.338000000000000189,-35.221570813694413005
0.339000000000000190,-34.991160405279984502
0.340000000000000191,-34.761379893850246958
0.341000000000000192,-34.532238725307010441
0.342000000000000193,-34.303745235135735925
0.343000000000000194,-34.075906782326697453
0.344000000000000195,-33.848729875356127650
0.345000000000000195,-33.622220290391283015
0.346000000000000196,-33.396383181898045223
0.347000000000000197,-33.171223185842769965
0.348000000000000198,-32.946744515691698041
0.349000000000000199,-32.722951051420878343
0.350000000000000200,-32.499846421757723647
0.351000000000000201,-32.277434079882212359
0.352000000000000202,-32.055717372820751621
0.353000000000000203,-31.834699604770186454
0.354000000000000203,-31.614384094592061558
0.355000000000000204,-31.394774227719057791
0.356000000000000205,-31.175873502716648034
0.357000000000000206,-30.957685572742320801
0.358000000000000207,-30.740214282144130209
0.359000000000000208,-30.523463698438582981
0.360000000000000209,-30.307438139905151786
0.361000000000000210,-30.092142199031776784
0.362000000000000210,-29.877580762042043716
0.363000000000000211,-29.663759024730449454
0.364000000000000212,-29.450682504827682351
0.365000000000000213,-29.238357051112576102
0.366000000000000214,-29.026788849482340282
0.367000000000000215,-28.815984426186627587
0.368000000000000216,-28.605950648425409355
0.369000000000000217,-28.396694722504207675
0.370000000000000218,-28.188224189734256697
0.371000000000000218,-27.980546920258166921
0.372000000000000219,-27.773671104975779400
0.373000000000000220,-27.567605245737752284
0.374000000000000221,-27.362358143968219082
0.375000000000000222,-27.157938887870489708
0.376000000000000223,-26.954356838364027737
0.377000000000000224,-26.751621613893483698
0.378000000000000225,-26.549743074244457119
0.379000000000000226,-26.348731303493860167
0.380000000000000226,-26.148596592216780010
0.381000000000000227,-25.949349419064539291
0.382000000000000228,-25.751000431823673154
0.383000000000000229,-25.553560428058212040
0.384000000000000230,-25.357040335432440514
0.385000000000000231,-25.161451191805575434
0.386000000000000232,-24.966804125183443830
0.387000000000000233,-24.773110333607501587
0.388000000000000234,-24.580381065055625811
0.389000000000000234,-24.388627597424616056
0.390000000000000235,-24.197861218658243132
0.391000000000000236,-24.008093207081167009
0.392000000000000237,-23.819334811993286394
0.393000000000000238,-23.631597234575359323
0.394000000000000239,-23.444891609151873979
0.395000000000000240,-23.259228984853415056
0.396000000000000241,-23.074620307716685375
0.397000000000000242,-22.891076403256363392
0.398000000000000242,-22.708607959539811816
0.399000000000000243,-22.527225510791744512
0.400000000000000244,-22.346939421552768579
0.401000000000000245,-22.167759871413146300
0.402000000000000246,-21.989696840339330919
0.403000000000000247,-21.812760094608456996
0.404000000000000248,-21.636959173363564446
0.405000000000000249,-21.462303375799404392
0.406000000000000250,-21.288801748986458051
0.407000000000000250,-21.116463076338767735
0.408000000000000251,-20.945295866728805834
0.409000000000000252,-20.775308344251079973
0.410000000000000253,-20.606508438633809988
0.411000000000000254,-20.438903776296875492
0.412000000000000255,-20.272501672052328558
0.413000000000000256,-20.107309121442426658
0.414000000000000257,-19.943332793708655970
0.415000000000000258,-19.780579025384408709
0.416000000000000258,-19.619053814502109390
0.417000000000000259,-19.458762815405357571
0.418000000000000260,-19.299711334155141174
0.419000000000000261,-19.141904324518456804
0.420000000000000262,-18.985346384527083785
0.421000000000000263,-18.830041753593434350
0.422000000000000264,-18.675994310169649282
0.423000000000000265,-18.523207569935806305
0.424000000000000266,-18.371684684502632479
0.425000000000000266,-18.221428440613472333
0.426000000000000267,-18.072441259830117843
0.427000000000000268,-17.924725198686800809
0.428000000000000269,-17.778281949296392384
0.429000000000000270,-17.633112840392655585
0.430000000000000271,-17.489218838792240263
0.431000000000000272,-17.346600551260252132
0.432000000000000273,-17.205258226762730089
0.433000000000000274,-17.065191759089980650
0.434000000000000274,-16.926400689834114388
0.435000000000000275,-16.788884211704722560
0.436000000000000276,-16.652641172166489980
0.437000000000000277,-16.517670077382543781
0.438000000000000278,-16.383969096447867031
0.439000000000000279,-16.251536065897070671
0.440000000000000280,-16.120368494470817211
0.441000000000000281,-15.990463568125928617
0.442000000000000282,-15.861818155274059805
0.443000000000000282,-15.734428812234062534
0.444000000000000283,-15.608291788883875029
0.445000000000000284,-15.483403034497564832
0.446000000000000285,-15.359758203753576922
0.447000000000000286,-15.237352662901111344
0.448000000000000287,-15.116181496070774770
0.449000000000000288,-14.996239511717238457
0.450000000000000289,-14.877521249180958307
0.451000000000000290,-14.760020985356973711
0.452000000000000290,-14.643732741458961755
0.453000000000000291,-14.528650289866936518
0.454000000000000292,-14.414767161047659982
0.455000000000000293,-14.302076650536864832
0.456000000000000294,-14.190571825973020026
0.457000000000000295,-14.080245534172499688
0.458000000000000296,-13.971090408236520375
0.459000000000000297,-13.863098874680650496
0.460000000000000298,-13.756263160577708149
0.461000000000000298,-13.650575300705671822
0.462000000000000299,-13.546027144692217803
0.463000000000000300,-13.442610364148000812
0.464000000000000301,-13.340316459781174530
0.465000000000000302,-13.239136768485877838
0.466000000000000303,-13.139062470397821158
0.467000000000000304,-13.040084595910292009
0.468000000000000305,-12.942194032644632529
0.469000000000000306,-12.845381532368870481
0.470000000000000306,-12.749637717859265251
0.471000000000000307,-12.654953089699107593
0.472000000000000308,-12.561318033010090645
0.473000000000000309,-12.468722824111267755
0.474000000000000310,-12.377157637101257492
0.475000000000000311,-12.286612550359505391
0.476000000000000312,-12.197077552962857894
0.477000000000000313,-12.108542551013442790
0.478000000000000314,-12.020997373874863001
0.479000000000000314,-11.934431780313422777
0.480000000000000315,-11.848835464541320306
0.481000000000000316,-11.764198062159511693
0.482000000000000317,-11.680509155997430781
0.483000000000000318,-11.597758281847607265
0.484000000000000319,-11.515934934093007058
0.485000000000000320,-11.435028571225473115
0.486000000000000321,-11.355028621253456578
0.487000000000000322,-11.275924486997784157
0.488000000000000322,-11.197705551274065527
0.489000000000000323,-11.120361181960898733
0.490000000000000324,-11.043880736952768729
0.491000000000000325,-10.968253568997083036
0.492000000000000326,-10.893469030414573595
0.493000000000000327,-10.819516477702888935
0.494000000000000328,-10.746385276022900612
0.495000000000000329,-10.674064803567668847
0.496000000000000330,-10.602544455814049584
0.497000000000000330,-10.531813649657028265
0.498000000000000331,-10.461861827427004101
0.499000000000000332,-10.392678460790495620
0.500000000000000333,-10.324253054534473506
0.501000000000000334,-10.256575150235157423
0.502000000000000335,-10.189634329811664060
0.503000000000000336,-10.123420218965513584
0.504000000000000337,-10.057922490506561175
0.505000000000000338,-9.993130867566478059
0.506000000000000338,-9.929035126700641811
0.507000000000000339,-9.865625100879537257
0.508000000000000340,-9.802890682370820841
0.509000000000000341,-9.740821825513210186
0.510000000000000342,-9.679408549383428095
0.511000000000000343,-9.618640940357598978
0.512000000000000344,-9.558509154568307409
0.513000000000000345,-9.499003420258855357
0.514000000000000346,-9.440114040036160503
0.515000000000000346,-9.381831393023661647
0.516000000000000347,-9.324145936915861910
0.517000000000000348,-9.267048209936126213
0.518000000000000349,-9.210528832699111490
0.519000000000000350,-9.154578509979662826
0.520000000000000351,-9.099188032389715630
0.521000000000000352,-9.044348277964870064
0.522000000000000353,-8.990050213662344802
0.523000000000000353,-8.936284896771921282
0.524000000000000354,-8.883043476241800462
0.525000000000000355,-8.830317193920787844
0.526000000000000356,-8.778097385718812262
0.527000000000000357,-8.726375482687377172
0.528000000000000358,-8.675143012021688804
0.529000000000000359,-8.624391597986255320
0.530000000000000360,-8.574112962765664037
0.531000000000000361,-8.524298927242316637
0.532000000000000361,-8.474941411702801020
0.533000000000000362,-8.426032436474715226
0.534000000000000363,-8.377564122495623877
0.535000000000000364,-8.329528691815880848
0.536000000000000365,-8.281918468037023473
0.537000000000000366,-8.234725876687498669
0.538000000000000367,-8.187943445537285925
0.539000000000000368,-8.141563804853314323
0.540000000000000369,-8.095579687597055596
0.541000000000000369,-8.049983929566232987
0.542000000000000370,-8.004769469482081234
0.543000000000000371,-7.959929349023828316
0.544000000000000372,-7.915456712812106943
0.545000000000000373,-7.871344808342710664
0.546000000000000374,-7.827586985872386549
0.547000000000000375,-7.784176698258134408
0.548000000000000376,-7.741107500751641446
0.549000000000000377,-7.698373050750250357
0.550000000000000377,-7.655967107505965430
0.551000000000000378,-7.613883531794016335
0.552000000000000379,-7.572116285542402458
0.553000000000000380,-7.530659431423787353
0.554000000000000381,-7.489507132411150181
0.555000000000000382,-7.448653651298710265
0.556000000000000383,-7.408093350189180804
0.557000000000000384,-7.367820689949001967
0.558000000000000385,-7.327830229632620096
0.559000000000000385,-7.288116625877222532
0.560000000000000386,-7.248674632269091589
0.561000000000000387,-7.209499098682899287
0.562000000000000388,-7.170584970595085039
0.563000000000000389,-7.131927288372504670
0.564000000000000390,-7.093521186537524947
0.565000000000000391,-7.055361893010703156
0.566000000000000392,-7.017444728332131731
0.567000000000000393,-6.979765104862579506
0.568000000000000393,-6.942318525965409215
0.569000000000000394,-6.905100585170392158
0.570000000000000395,-6.868106965320436075
0.571000000000000396,-6.831333437702069133
0.572000000000000397,-6.794775861160893271
0.573000000000000398,-6.758430181202685461
0.574000000000000399,-6.722292429081292653
0.575000000000000400,-6.686358720874037154
0.576000000000000401,-6.650625256545607655
0.577000000000000401,-6.615088319001300121
0.578000000000000402,-6.579744273130328835
0.579000000000000403,-6.544589564840104678
0.580000000000000404,-6.509620720082274659
0.581000000000000405,-6.474834343871203934
0.582000000000000406,-6.440227119295703240
0.583000000000000407,-6.405795806524707814
0.584000000000000408,-6.371537241807588181
0.585000000000000409,-6.337448336469805987
0.586000000000000409,-6.303526075904518855
0.587000000000000410,-6.269767518560838582
0.588000000000000411,-6.236169794929305787
0.589000000000000412,-6.202730106525200071
0.590000000000000413,-6.169445724870260328
0.591000000000000414,-6.136313990473384550
0.592000000000000415,-6.103332311810862443
0.593000000000000416,-6.070498164306609823
0.594000000000000417,-6.037809089312967004
0.595000000000000417,-6.005262693092584314
0.596000000000000418,-5.972856645801678965
0.597000000000000419,-5.940588680475433314
0.598000000000000420,-5.908456592015627784
0.599000000000000421,-5.876458236181207440
0.600000000000000422,-5.844591528582006035
0.601000000000000423,-5.812854443676135574
0.602000000000000424,-5.781245013771328267
0.603000000000000425,-5.749761328030674967
0.604000000000000425,-5.718401531483012334
0.605000000000000426,-5.687163824038369953
0.606000000000000427,-5.656046459508806024
