# Cu110_BSAIV8
# h[nm],U(h)[kJ/mol]
0.149999999999999994,126.504697256230400626
0.150999999999999995,120.118494929725741827
0.151999999999999996,115.593824486038286636
0.152999999999999997,111.574557772176788717
0.153999999999999998,107.539641351415781401
0.154999999999999999,103.371300449506108521
0.156000000000000000,99.117563844180125443
0.157000000000000001,94.870727972835254604
0.158000000000000002,90.712383708134026961
0.159000000000000002,86.694604478880705756
0.160000000000000003,82.839128340675756590
0.161000000000000004,79.144113535016941796
0.162000000000000005,75.592841943544755168
0.163000000000000006,72.161624607136161558
0.164000000000000007,68.825822265759242669
0.165000000000000008,65.563791258122520844
0.166000000000000009,62.359001365713915277
0.167000000000000010,59.200740281167874457
0.168000000000000010,56.083840804807969960
0.169000000000000011,53.007816022209645723
0.170000000000000012,49.975708453312009283
0.171000000000000013,46.992875928875605496
0.172000000000000014,44.065862129801352864
0.173000000000000015,41.201438480132082987
0.174000000000000016,38.405857456169847808
0.175000000000000017,35.684324236147560327
0.176000000000000018,33.040671867532729777
0.177000000000000018,30.477212396347237444
0.178000000000000019,27.994730414217578129
0.179000000000000020,25.592584253980636078
0.180000000000000021,23.268881980978171953
0.181000000000000022,21.020703119975838291
0.182000000000000023,18.844341785689334046
0.183000000000000024,16.735551880884507625
0.184000000000000025,14.689779843776154422
0.185000000000000026,12.702374791177453162
0.186000000000000026,10.768769668454938326
0.187000000000000027,8.884630126077050605
0.188000000000000028,7.045970301826680604
0.189000000000000029,5.249236543610657613
0.190000000000000030,3.491361428949615320
0.191000000000000031,1.769791302841780212
0.192000000000000032,0.082491046907559346
0.193000000000000033,-1.572070012927795579
0.194000000000000034,-3.194947184918138561
0.195000000000000034,-4.786760797371588438
0.196000000000000035,-6.347744521881783619
0.197000000000000036,-7.877798641835115134
0.198000000000000037,-9.376545686991761386
0.199000000000000038,-10.843386276282217295
0.200000000000000039,-12.277553421129487887
0.201000000000000040,-13.678163926726725208
0.202000000000000041,-15.044265879643855754
0.203000000000000042,-16.374881521592300260
0.204000000000000042,-17.669045078812963823
0.205000000000000043,-18.925835344282965877
0.206000000000000044,-20.144402997325922655
0.207000000000000045,-21.323992794942377316
0.208000000000000046,-22.463960884669159412
0.209000000000000047,-23.563787573836364686
0.210000000000000048,-24.623085948679054979
0.211000000000000049,-25.641606772797565839
0.212000000000000050,-26.619240111702161755
0.213000000000000050,-27.556014132107332415
0.214000000000000051,-28.452091514441171682
0.215000000000000052,-29.307763897527358665
0.216000000000000053,-30.123444748053827880
0.217000000000000054,-30.899661016387177881
0.218000000000000055,-31.637043906311202335
0.219000000000000056,-32.336319050837673217
0.220000000000000057,-32.998296350561432178
0.221000000000000058,-33.623859696040121037
0.222000000000000058,-34.213956762110846910
0.223000000000000059,-34.769589030426608645
0.224000000000000060,-35.291802167183611516
0.225000000000000061,-35.781676856245113072
0.226000000000000062,-36.240320163765765926
0.227000000000000063,-36.668857489017206319
0.228000000000000064,-37.068425137364116040
0.229000000000000065,-37.440163535149679319
0.230000000000000066,-37.785211092477723582
0.231000000000000066,-38.104698708367948257
0.232000000000000067,-38.399744903323252743
0.233000000000000068,-38.671451556794394833
0.234000000000000069,-38.920900221161005561
0.235000000000000070,-39.149148979476144916
0.236000000000000071,-39.357229811155761467
0.237000000000000072,-39.546146427858673178
0.238000000000000073,-39.716872540827523608
0.239000000000000073,-39.870350520792179339
0.240000000000000074,-40.007490412036268879
0.241000000000000075,-40.129169263262937761
0.242000000000000076,-40.236230739355775654
0.243000000000000077,-40.329484979916216503
0.244000000000000078,-40.409708672477677283
0.245000000000000079,-40.477645310476830787
0.246000000000000080,-40.534005608336343585
0.247000000000000081,-40.579468048328422469
0.248000000000000081,-40.614679536197613174
0.249000000000000082,-40.640256144787954895
0.250000000000000111,-40.656783927115540678
0.251000000000000112,-40.664819782426938843
0.252000000000000113,-40.664892360774416602
0.253000000000000114,-40.657502993500997945
0.254000000000000115,-40.643126638763185099
0.255000000000000115,-40.622212832813978878
0.256000000000000116,-40.595186639227961223
0.257000000000000117,-40.562449589572921127
0.258000000000000118,-40.524380610220433141
0.259000000000000119,-40.481336931049142436
0.260000000000000120,-40.433654972732760768
0.261000000000000121,-40.381651210126371154
0.262000000000000122,-40.325623009979807421
0.263000000000000123,-40.265849441820336096
0.264000000000000123,-40.202592061369131216
0.265000000000000124,-40.136095666293030604
0.266000000000000125,-40.066589024455502965
0.267000000000000126,-39.994285575122617615
0.268000000000000127,-39.919384103812738829
0.269000000000000128,-39.842069391656337984
0.270000000000000129,-39.762512840263035230
0.271000000000000130,-39.680873073183292377
0.272000000000000131,-39.597296515106549464
0.273000000000000131,-39.511917949962402474
0.274000000000000132,-39.424861059091341531
0.275000000000000133,-39.336238940630714467
0.276000000000000134,-39.246154611224014275
0.277000000000000135,-39.154701491110976974
0.278000000000000136,-39.061963873595878738
0.279000000000000137,-38.968017379822910584
0.280000000000000138,-38.872929399715566490
0.281000000000000139,-38.776759519861286662
0.282000000000000139,-38.679559939046626482
0.283000000000000140,-38.581375872071745903
0.284000000000000141,-38.482245942399778471
0.285000000000000142,-38.382202564124611399
0.286000000000000143,-38.281272313673248675
0.287000000000000144,-38.179476291594589554
0.288000000000000145,-38.076830474728545539
0.289000000000000146,-37.973346058994010832
0.290000000000000147,-37.869029792986005134
0.291000000000000147,-37.763884302528268222
0.292000000000000148,-37.657908406288889580
0.293000000000000149,-37.551097422533182169
0.294000000000000150,-37.443443467059204011
0.295000000000000151,-37.334935742338181797
0.296000000000000152,-37.225560817862131557
0.297000000000000153,-37.115302901686746395
0.298000000000000154,-37.004144103146181521
0.299000000000000155,-36.892064686709751697
0.300000000000000155,-36.779043316945987385
0.301000000000000156,-36.665057294559460388
0.302000000000000157,-36.550082783467189529
0.303000000000000158,-36.434095028886353873
0.304000000000000159,-36.317068566411265351
0.305000000000000160,-36.198977422065986786
0.306000000000000161,-36.079795303329028400
0.307000000000000162,-35.959495781137938764
0.308000000000000163,-35.838052462893394079
0.309000000000000163,-35.715439156496003648
0.310000000000000164,-35.591630025462507092
0.311000000000000165,-35.466599735181787878
0.312000000000000166,-35.340323590386063302
0.313000000000000167,-35.212777663925997729
0.314000000000000168,-35.083938916953464116
0.315000000000000169,-34.953785310628759930
0.316000000000000170,-34.822295909483528931
0.317000000000000171,-34.689450976582598685
0.318000000000000171,-34.555232060641166925
0.319000000000000172,-34.419622075265550620
0.320000000000000173,-34.282605370496263220
0.321000000000000174,-34.144167796842992857
0.322000000000000175,-34.004296762010497446
0.323000000000000176,-33.862981280523214878
0.324000000000000177,-33.720212016463861460
0.325000000000000178,-33.575981319548745319
0.326000000000000179,-33.430283254768497159
0.327000000000000179,-33.283113625827994042
0.328000000000000180,-33.134469992623714063
0.329000000000000181,-32.984351683000966204
0.330000000000000182,-32.832759799034548109
0.331000000000000183,-32.679697218080583809
0.332000000000000184,-32.525168588846234741
0.333000000000000185,-32.369180322726066379
0.334000000000000186,-32.211740580652545418
0.335000000000000187,-32.052859255707502939
0.336000000000000187,-31.892547951740265688
0.337000000000000188,-31.730819958234739886
0.338000000000000189,-31.567690221666339312
0.339000000000000190,-31.403175313585460771
0.340000000000000191,-31.237293395660486794
0.341000000000000192,-31.070064181909696543
0.342000000000000193,-30.901508898345809939
0.343000000000000194,-30.731650240252896822
0.344000000000000195,-30.560512327309151459
0.345000000000000195,-30.388120656764165517
0.346000000000000196,-30.214502054872621528
0.347000000000000197,-30.039684626780978505
0.348000000000000198,-29.863697705056733156
0.349000000000000199,-29.686571797043644239
0.350000000000000200,-29.508338531219795442
0.351000000000000201,-29.329030602728192179
0.352000000000000202,-29.148681718243267369
0.353000000000000203,-28.967326540329377593
0.354000000000000203,-28.785000631440890828
0.355000000000000204,-28.601740397705970764
0.356000000000000205,-28.417583032629909923
0.357000000000000206,-28.232566460846783229
0.358000000000000207,-28.046729282040939069
0.359000000000000208,-27.860110715153858507
0.360000000000000209,-27.672750542984903888
0.361000000000000210,-27.484689057287749137
0.362000000000000210,-27.295967004458198346
0.363000000000000211,-27.106625531902572845
0.364000000000000212,-26.916706135169960135
0.365000000000000213,-26.726250605925077508
0.366000000000000214,-26.535300980833209650
0.367000000000000215,-26.343899491422529735
0.368000000000000216,-26.152088514983983458
0.369000000000000217,-25.959910526562943289
0.370000000000000218,-25.767408052092367399
0.371000000000000218,-25.574623622711648352
0.372000000000000219,-25.381599730310572482
0.373000000000000220,-25.188378784333412597
0.374000000000000221,-24.995003069873508394
0.375000000000000222,-24.801514707084344025
0.376000000000000223,-24.607955611929135387
0.377000000000000224,-24.414367458287063783
0.378000000000000225,-24.220791641430537311
0.379000000000000226,-24.027269242883907197
0.380000000000000226,-23.833840996671693091
0.381000000000000227,-23.640547256959671074
0.382000000000000228,-23.447427967090789025
0.383000000000000229,-23.254522630013692464
0.384000000000000230,-23.061870280099576291
0.385000000000000231,-22.869509456340651354
0.386000000000000232,-22.677478176920651265
0.387000000000000233,-22.485813915146007247
0.388000000000000234,-22.294553576724101873
0.389000000000000234,-22.103733478373143839
0.390000000000000235,-21.913389327746209290
0.391000000000000236,-21.723556204650812163
0.392000000000000237,-21.534268543543237939
0.393000000000000238,-21.345560117276200174
0.394000000000000239,-21.157464022076393206
0.395000000000000240,-20.970012663728006430
0.396000000000000241,-20.783237744936862157
0.397000000000000242,-20.597170253848897659
0.398000000000000242,-20.411840453696349584
0.399000000000000243,-20.227277873543719977
0.400000000000000244,-20.043511300105119943
0.401000000000000245,-19.860568770604633215
0.402000000000000246,-19.678477566650020236
0.403000000000000247,-19.497264209090200637
0.404000000000000248,-19.316954453826905791
0.405000000000000249,-19.137573288550090211
0.406000000000000250,-18.959144930367010318
0.407000000000000250,-18.781692824294694333
0.408000000000000251,-18.605239642585367221
0.409000000000000252,-18.429807284854739180
0.410000000000000253,-18.255416878982781981
0.411000000000000254,-18.082088782757242740
0.412000000000000255,-17.909842586229821393
0.413000000000000256,-17.738697114755737516
0.414000000000000257,-17.568670432687088834
0.415000000000000258,-17.399779847691380752
0.416000000000000258,-17.232041915666425069
0.417000000000000259,-17.065472446223481029
0.418000000000000260,-16.900086508710899125
0.419000000000000261,-16.735898438750826500
0.420000000000000262,-16.572921845262261087
0.421000000000000263,-16.411169617944086241
0.422000000000000264,-16.250653935192044486
0.423000000000000265,-16.091386272424550441
0.424000000000000266,-15.933377410792536111
0.425000000000000266,-15.776637446249031527
0.426000000000000267,-15.621175798954871183
0.427000000000000268,-15.467001222997566856
0.428000000000000269,-15.314121816400675158
0.429000000000000270,-15.162545031402061113
0.430000000000000271,-15.012277684979503434
0.431000000000000272,-14.863325969603135235
0.432000000000000273,-14.715695464194656239
0.433000000000000274,-14.569391145273778321
0.434000000000000274,-14.424417398273078561
0.435000000000000275,-14.280778029003064589
0.436000000000000276,-14.138476275249804104
0.437000000000000277,-13.997514818487911015
0.438000000000000278,-13.857895795692698471
0.439000000000000279,-13.719620811235468949
0.440000000000000280,-13.582690948846675383
0.441000000000000281,-13.447106783632317928
0.442000000000000282,-13.312868394129434790
0.443000000000000282,-13.179975374387069564
0.444000000000000283,-13.048426846059777873
0.445000000000000284,-12.918221470501228154
0.446000000000000285,-12.789357460845771186
0.447000000000000286,-12.661832594066989799
0.448000000000000287,-12.535644223001817466
0.449000000000000288,-12.410789288330406066
0.450000000000000289,-12.287264330501400877
0.451000000000000290,-12.165065501593529618
0.452000000000000290,-12.044188577104515403
0.453000000000000291,-11.924628967658779999
0.454000000000000292,-11.806381730626123172
0.455000000000000293,-11.689441581643595924
0.456000000000000294,-11.573802906033694882
0.457000000000000295,-11.459459770111967813
0.458000000000000296,-11.346405932377859216
0.459000000000000297,-11.234634854582891350
0.460000000000000298,-11.124139712670571001
0.461000000000000298,-11.014913407583009075
0.462000000000000299,-10.906948575929449774
0.463000000000000300,-10.800237600512152980
0.464000000000000301,-10.694772620705739641
0.465000000000000302,-10.590545542686150782
0.466000000000000303,-10.487548049505720726
0.467000000000000304,-10.385771611011328730
0.468000000000000305,-10.285207493602774420
0.469000000000000306,-10.185846769828751590
0.470000000000000306,-10.087680327818294046
0.471000000000000307,-9.990698880545441085
0.472000000000000308,-9.894892974925685536
0.473000000000000309,-9.800253000742380038
0.474000000000000310,-9.706769199402017989
0.475000000000000311,-9.614431672517223859
0.476000000000000312,-9.523230390316834715
0.477000000000000313,-9.433155199882023112
0.478000000000000314,-9.344195833208496893
0.479000000000000314,-9.256341915094228767
0.480000000000000315,-9.169582970852728110
0.481000000000000316,-9.083908433852055708
0.482000000000000317,-8.999307652879675601
0.483000000000000318,-8.915769899333762183
0.484000000000000319,-8.833284374241369363
0.485000000000000320,-8.751840215104346399
0.486000000000000321,-8.671426502573687856
0.487000000000000322,-8.592032266953431474
0.488000000000000322,-8.513646494535047182
0.489000000000000323,-8.436258133763725908
0.490000000000000324,-8.359856101237692627
0.491000000000000325,-8.284429287542097953
0.492000000000000326,-8.209966562918832977
0.493000000000000327,-8.136456782774082797
0.494000000000000328,-8.063888793025082435
0.495000000000000329,-7.992251435287985650
0.496000000000000330,-7.921533551908543913
0.497000000000000330,-7.851723990837588651
0.498000000000000331,-7.782811610353187248
0.499000000000000332,-7.714785283631576007
0.500000000000000333,-7.647633903168793879
0.501000000000000334,-7.581346385055243609
0.502000000000000335,-7.515911673105226676
0.503000000000000336,-7.451318742843781706
0.504000000000000337,-7.387556605352834538
0.505000000000000338,-7.324614310979126408
0.506000000000000338,-7.262480952906055442
0.507000000000000339,-7.201145670591769132
0.508000000000000340,-7.140597653075860585
0.509000000000000341,-7.080826142156996461
0.510000000000000342,-7.021820435443776987
0.511000000000000343,-6.963569889281285619
0.512000000000000344,-6.906063921555573693
0.513000000000000345,-6.849292014378602467
0.514000000000000346,-6.793243716655919862
0.515000000000000346,-6.737908646539482405
0.516000000000000347,-6.683276493767978721
0.517000000000000348,-6.629337021897140581
0.518000000000000349,-6.576080070422202439
0.519000000000000350,-6.523495556795081640
0.520000000000000351,-6.471573478338520147
0.521000000000000352,-6.420303914059530825
0.522000000000000353,-6.369677026364530370
0.523000000000000353,-6.319683062678361551
0.524000000000000354,-6.270312356969687251
0.525000000000000355,-6.221555331184808857
0.526000000000000356,-6.173402496592332866
0.527000000000000357,-6.125844455040903469
0.528000000000000358,-6.078871900132103434
0.529000000000000359,-6.032475618310872534
0.530000000000000360,-5.986646489875522725
0.531000000000000361,-5.941375489909523466
0.532000000000000361,-5.896653689137163035
0.533000000000000362,-5.852472254705212151
0.534000000000000363,-5.808822450892671796
0.535000000000000364,-5.765695639750544998
0.536000000000000365,-5.723083281673806866
0.537000000000000366,-5.680976935907446013
0.538000000000000367,-5.639368260988534054
0.539000000000000368,-5.598249015126366857
0.540000000000000369,-5.557611056522393511
0.541000000000000369,-5.517446343631993599
0.542000000000000370,-5.477746935369815162
0.543000000000000371,-5.438504991260486143
0.544000000000000372,-5.399712771536585798
0.545000000000000373,-5.361362637185482782
0.546000000000000374,-5.323447049946845588
0.547000000000000375,-5.285958572262463129
0.548000000000000376,-5.248889867180102087
0.549000000000000377,-5.212233698212927813
0.550000000000000377,-5.175982929156106138
0.551000000000000378,-5.140130523862224798
0.552000000000000379,-5.104669545976951106
0.553000000000000380,-5.069593158636498842
0.554000000000000381,-5.034894624128324558
0.555000000000000382,-5.000567303516566753
0.556000000000000383,-4.966604656233485571
0.557000000000000384,-4.933000239638476003
0.558000000000000385,-4.899747708545812763
0.559000000000000385,-4.866840814722587005
0.560000000000000386,-4.834273406357988634
0.561000000000000387,-4.802039427505325087
0.562000000000000388,-4.770132917497912572
0.563000000000000389,-4.738548010340030814
0.564000000000000390,-4.707278934074187404
0.565000000000000391,-4.676320010125749604
0.566000000000000392,-4.645665652626108866
0.567000000000000393,-4.615310367715445672
0.568000000000000393,-4.585248752826132090
0.569000000000000394,-4.555475495947831632
0.570000000000000395,-4.525985374875309830
0.571000000000000396,-4.496773256439851707
0.572000000000000397,-4.467834095725381260
0.573000000000000398,-4.439162935270027255
0.574000000000000399,-4.410754904254218012
0.575000000000000400,-4.382605217676038833
0.576000000000000401,-4.354709175514765107
0.577000000000000401,-4.327062161883406866
0.578000000000000402,-4.299659644171047290
0.579000000000000403,-4.272497172175725666
0.580000000000000404,-4.245570377228697012
0.581000000000000405,-4.218874971310738076
0.582000000000000406,-4.192406746161215558
0.583000000000000407,-4.166161572380651990
0.584000000000000408,-4.140135398527414523
0.585000000000000409,-4.114324250209175027
0.586000000000000409,-4.088724229169800495
0.587000000000000410,-4.063331512372263532
0.588000000000000411,-4.038142351078137793
0.589000000000000412,-4.013153069924291216
0.590000000000000413,-3.988360065997269110
0.591000000000000414,-3.963759807905976373
0.592000000000000415,-3.939348834853076742
0.593000000000000416,-3.915123755705673947
0.594000000000000417,-3.891081248065720644
0.595000000000000417,-3.867218057340644943
0.596000000000000418,-3.843530995814558260
0.597000000000000419,-3.820016941720598247
0.598000000000000420,-3.796672838314683052
0.599000000000000421,-3.773495692951179592
0.600000000000000422,-3.750482576160786952
0.601000000000000423,-3.727630620731058997
0.602000000000000424,-3.704937020789875302
0.603000000000000425,-3.682399030892218317
0.604000000000000425,-3.660013965110564982
0.605000000000000426,-3.637779196129211634
0.606000000000000427,-3.615692154342849740
