# Cu110_TRIFLUOROMETHANE
# h[nm],U(h)[kJ/mol]
0.149999999999999994,69.784469788956386083
0.150999999999999995,67.890751732682886654
0.151999999999999996,65.870784822168019446
0.152999999999999997,63.813912596559497103
0.153999999999999998,61.788432426853795221
0.154999999999999999,59.832789200848900180
0.156000000000000000,57.959911133541069717
0.157000000000000001,56.165666110918515130
0.158000000000000002,54.437111540550802147
0.159000000000000002,52.758827010657967094
0.160000000000000003,51.116981488611038742
0.161000000000000004,49.501417715015328724
0.162000000000000005,47.906260514770856673
0.163000000000000006,46.329569679230687029
0.164000000000000007,44.772477103368146345
0.165000000000000008,43.238136272878783473
0.166000000000000009,41.730703200076703752
0.167000000000000010,40.254476384117694465
0.168000000000000010,38.813253889639497629
0.169000000000000011,37.409917389822417988
0.170000000000000012,36.046222758357387761
0.171000000000000013,34.722760509038913312
0.172000000000000014,33.439043185395782132
0.173000000000000015,32.193677348969188756
0.174000000000000016,30.984582436568963715
0.175000000000000017,29.809225458848334966
0.176000000000000018,28.664847890764001193
0.177000000000000018,27.548668238206698078
0.178000000000000019,26.458050106940163460
0.179000000000000020,25.390630876637189317
0.180000000000000021,24.344410211566707147
0.181000000000000022,23.317800661994901645
0.182000000000000023,22.309644642177779872
0.183000000000000024,21.319203264743848081
0.184000000000000025,20.346123031888520671
0.185000000000000026,19.390386390856718890
0.186000000000000026,18.452251799500917429
0.187000000000000027,17.532188341980344148
0.188000000000000028,16.630809187630582358
0.189000000000000029,15.748807378767125442
0.190000000000000030,14.886896626840572466
0.191000000000000031,14.045759034608886751
0.192000000000000032,13.226000973774134195
0.193000000000000033,12.428117749829073801
0.194000000000000034,11.652467186288705037
0.195000000000000034,10.899251859606824411
0.196000000000000035,10.168509409417447742
0.197000000000000036,9.460110128417714037
0.198000000000000037,8.773760892297515213
0.199000000000000038,8.109014411691630286
0.200000000000000039,7.465282764038141394
0.201000000000000040,6.841854182685525032
0.202000000000000041,6.237912133560476136
0.203000000000000042,5.652555787146307686
0.204000000000000042,5.084821087504118431
0.205000000000000043,4.533701723850863452
0.206000000000000044,3.998169418189204016
0.207000000000000045,3.477193050161218046
0.208000000000000046,2.969756244163764602
0.209000000000000047,2.474873141204966931
0.210000000000000048,1.991602167162233927
0.211000000000000049,1.519057688849597909
0.212000000000000050,1.056419518988599648
0.213000000000000050,0.602940290628826814
0.214000000000000051,0.157950770950413238
0.215000000000000052,-0.279136775854294306
0.216000000000000053,-0.708827036144050515
0.217000000000000054,-1.131541741800891288
0.218000000000000055,-1.547621234382970057
0.219000000000000056,-1.957327311517908175
0.220000000000000057,-2.360847165475662202
0.221000000000000058,-2.758298225454636654
0.222000000000000058,-3.149733720603941300
0.223000000000000059,-3.535148789408260050
0.224000000000000060,-3.914486972077566573
0.225000000000000061,-4.287646935372310786
0.226000000000000062,-4.654489293291531382
0.227000000000000063,-5.014843401766325925
0.228000000000000064,-5.368514020511428342
0.229000000000000065,-5.715287750142145740
0.230000000000000066,-6.054939167268235778
0.231000000000000066,-6.387236594300573778
0.232000000000000067,-6.711947453965646737
0.233000000000000068,-7.028843170884944591
0.234000000000000069,-7.337703593944664426
0.235000000000000070,-7.638320923498268300
0.236000000000000071,-7.930503136680213672
0.237000000000000072,-8.214076912262125774
0.238000000000000073,-8.488890063567691158
0.239000000000000073,-8.754813494015296627
0.240000000000000074,-9.011742694926237363
0.241000000000000075,-9.259598809375587436
0.242000000000000076,-9.498329289140102105
0.243000000000000077,-9.727908174280461395
0.244000000000000078,-9.948336026655852038
0.245000000000000079,-10.159639549780477452
0.246000000000000080,-10.361870927965544098
0.247000000000000081,-10.555106917718587667
0.248000000000000081,-10.739447723960896752
0.249000000000000082,-10.915015692838457184
0.250000000000000111,-11.081953851804019706
0.251000000000000112,-11.240424326291709178
0.252000000000000113,-11.390606660745996592
0.253000000000000114,-11.532696070047551373
0.254000000000000115,-11.666901645546747801
0.255000000000000115,-11.793444538005065425
0.256000000000000116,-11.912556137793339772
0.257000000000000117,-12.024476270730456662
0.258000000000000118,-12.129451425993881486
0.259000000000000119,-12.227733030616025900
0.260000000000000120,-12.319575783216471621
0.261000000000000121,-12.405236057823877616
0.262000000000000122,-12.484970386926718788
0.263000000000000123,-12.559034031267135134
0.264000000000000123,-12.627679642365205126
0.265000000000000124,-12.691156022336384623
0.266000000000000125,-12.749706984246358843
0.267000000000000126,-12.803570315036074234
0.268000000000000127,-12.852976841946034625
0.269000000000000128,-12.898149602371068667
0.270000000000000129,-12.939303116183248576
0.271000000000000130,-12.976642758768059949
0.272000000000000131,-13.010364232323425426
0.273000000000000131,-13.040653132368570155
0.274000000000000132,-13.067684605895285799
0.275000000000000133,-13.091623097162727873
0.276000000000000134,-13.112622176783011341
0.277000000000000135,-13.130824449463332826
0.278000000000000136,-13.146361535555717737
0.279000000000000137,-13.159354121411947602
0.280000000000000138,-13.169912073443589051
0.281000000000000139,-13.178134610740338317
0.282000000000000139,-13.184110531098259145
0.283000000000000140,-13.187918485348749442
0.284000000000000141,-13.189627294953961467
0.285000000000000142,-13.189296307940960418
0.286000000000000143,-13.186975788380275176
0.287000000000000144,-13.182707334771114560
0.288000000000000145,-13.176524322872158024
0.289000000000000146,-13.168452368708273070
0.290000000000000147,-13.158509807689327431
0.291000000000000147,-13.146708185991531792
0.292000000000000148,-13.133052760574480899
0.293000000000000149,-13.117543004433731113
0.294000000000000150,-13.100173113918463841
0.295000000000000151,-13.080932515174385600
0.296000000000000152,-13.059806367000735605
0.297000000000000153,-13.036776057637592174
0.298000000000000154,-13.011819693221829297
0.299000000000000155,-12.984912575867932460
0.300000000000000155,-12.956027669541310132
0.301000000000000156,-12.925136052096169337
0.302000000000000157,-12.892207352046970215
0.303000000000000158,-12.857210168830928154
0.304000000000000159,-12.820112475499286120
0.305000000000000160,-12.780882002945503473
0.306000000000000161,-12.739486604940768899
0.307000000000000162,-12.695894603399205280
0.308000000000000163,-12.650075113437978302
0.309000000000000163,-12.601998347931161248
0.310000000000000164,-12.551635901380082672
0.311000000000000165,-12.498961013037638068
0.312000000000000166,-12.443948809329997474
0.313000000000000167,-12.386576525715721431
0.314000000000000168,-12.326823708210799424
0.315000000000000169,-12.264672394887920603
0.316000000000000170,-12.200107277730310784
0.317000000000000171,-12.133115845284601519
0.318000000000000171,-12.063688506614097307
0.319000000000000172,-11.991818697103784785
0.320000000000000173,-11.917502966711417400
0.321000000000000174,-11.840741051296109987
0.322000000000000175,-11.761535927686825431
0.323000000000000176,-11.679893853178523244
0.324000000000000177,-11.595824390164105822
0.325000000000000178,-11.509340416625345682
0.326000000000000179,-11.420458123217358093
0.327000000000000179,-11.329196997687379422
0.328000000000000180,-11.235579797371629596
0.329000000000000181,-11.139632510513695962
0.330000000000000182,-11.041384307143312427
0.331000000000000183,-10.940867480248314791
0.332000000000000184,-10.838117377962536381
0.333000000000000185,-10.733172327480961172
0.334000000000000186,-10.626073551399283446
0.335000000000000187,-10.516865077159344821
0.336000000000000187,-10.405593640264390487
0.337000000000000188,-10.292308581909166421
0.338000000000000189,-10.177061741649968241
0.339000000000000190,-10.059907345718347216
0.340000000000000191,-9.940901891560340431
0.341000000000000192,-9.820104029160527048
0.342000000000000193,-9.697574439686611925
0.343000000000000194,-9.573375711967218038
0.344000000000000195,-9.447572217291035912
0.345000000000000195,-9.320229982992181306
0.346000000000000196,-9.191416565261965488
0.347000000000000197,-9.061200921603743907
0.348000000000000198,-8.929653283323631285
0.349000000000000199,-8.796845028426117707
0.350000000000000200,-8.662848555260900696
0.351000000000000201,-8.527737157243759469
0.352000000000000202,-8.391584898952581639
0.353000000000000203,-8.254466493877352207
0.354000000000000203,-8.116457184081719234
0.355000000000000204,-7.977632622013023145
0.356000000000000205,-7.838068754677555816
0.357000000000000206,-7.697841710378304114
0.358000000000000207,-7.557027688193504567
0.359000000000000208,-7.415702850356526099
0.360000000000000209,-7.273943217679720519
0.361000000000000210,-7.131824568148592114
0.362000000000000210,-6.989422338796218881
0.363000000000000211,-6.846811530952878755
0.364000000000000212,-6.704066618951122436
0.365000000000000213,-6.561261462352566021
0.366000000000000214,-6.418469221749703024
0.367000000000000215,-6.275762278183464993
0.368000000000000216,-6.133212156205430254
0.369000000000000217,-5.990889450602624677
0.370000000000000218,-5.848863756792331614
0.371000000000000218,-5.707203604884493409
0.372000000000000219,-5.565976397400283382
0.373000000000000220,-5.425248350626718619
0.374000000000000221,-5.285084439579479820
0.375000000000000222,-5.145548346538433293
0.376000000000000223,-5.006702413113898409
0.377000000000000224,-4.868607595795181098
0.378000000000000225,-4.731323424927365906
0.379000000000000226,-4.594907967057004328
0.380000000000000226,-4.459417790582719476
0.381000000000000227,-4.324907934642309826
0.382000000000000228,-4.191431881164307427
0.383000000000000229,-4.059041530008423493
0.384000000000000230,-3.927787177116214057
0.385000000000000231,-3.797717495590963388
0.386000000000000232,-3.668879519623248875
0.387000000000000233,-3.541318631176886278
0.388000000000000234,-3.415078549348306236
0.389000000000000234,-3.290201322311286702
0.390000000000000235,-3.166727321757706992
0.391000000000000236,-3.044695239744676041
0.392000000000000237,-2.924142087857485972
0.393000000000000238,-2.805103198598088987
0.394000000000000239,-2.687612228908428325
0.395000000000000240,-2.571701165738453199
0.396000000000000241,-2.457400333568958484
0.397000000000000242,-2.344738403799931259
0.398000000000000242,-2.233742405916064655
0.399000000000000243,-2.124437740341823311
0.400000000000000244,-2.016848192899492354
0.401000000000000245,-1.910995950785171260
0.402000000000000246,-1.806901619978558360
0.403000000000000247,-1.704584244003995774
0.404000000000000248,-1.604061323961873953
0.405000000000000249,-1.505348839750877854
0.406000000000000250,-1.408461272403366049
0.407000000000000250,-1.313411627457938602
0.408000000000000251,-1.220211459294908263
0.409000000000000252,-1.128870896362519582
0.410000000000000253,-1.039398667223311312
0.411000000000000254,-0.951802127352308736
0.412000000000000255,-0.866087286620416785
0.413000000000000256,-0.782258837398569939
0.414000000000000257,-0.700320183220042081
0.415000000000000258,-0.620273467940509415
0.416000000000000258,-0.542119605337313515
0.417000000000000259,-0.465858309091521705
0.418000000000000260,-0.391488123098352736
0.419000000000000261,-0.319006452053498868
0.420000000000000262,-0.248409592265032952
0.421000000000000263,-0.179692762642369497
0.422000000000000264,-0.112850135815923153
0.423000000000000265,-0.047874869342812064
0.424000000000000266,0.015240863043778275
0.425000000000000266,0.076505840182465312
0.426000000000000267,0.135929762267473636
0.427000000000000268,0.193523219705407090
0.428000000000000269,0.249297662080180421
0.429000000000000270,0.303265367259504870
0.430000000000000271,0.355439410674650069
0.431000000000000272,0.405833634803462240
0.432000000000000273,0.454462618884972802
0.433000000000000274,0.501341648892330127
0.434000000000000274,0.546486687789212056
0.435000000000000275,0.589914346093314168
0.436000000000000276,0.631641852769040169
0.437000000000000277,0.671687026470087156
0.438000000000000278,0.710068247151153242
0.439000000000000279,0.746804428066673687
0.440000000000000280,0.781914988173158854
0.441000000000000281,0.815419824950433303
0.442000000000000282,0.847339287655759832
0.443000000000000282,0.877694151023806990
0.444000000000000283,0.906505589424019376
0.445000000000000284,0.933795151486048858
0.446000000000000285,0.959584735202773542
0.447000000000000286,0.983896563519251699
0.448000000000000287,1.006753160415221116
0.449000000000000288,1.028177327487557191
0.450000000000000289,1.048192121038348024
0.451000000000000290,1.066820829673287951
0.452000000000000290,1.084086952414287763
0.453000000000000291,1.100014177329365683
0.454000000000000292,1.114626360682132278
0.455000000000000293,1.127947506602470895
0.456000000000000294,1.140001747279254740
0.457000000000000295,1.150813323675379918
0.458000000000000296,1.160406566764612402
0.459000000000000297,1.168805879289342320
0.460000000000000298,1.176035718037554467
0.461000000000000298,1.182120576637002873
0.462000000000000299,1.187084968863859613
0.463000000000000300,1.190953412462820493
0.464000000000000301,1.193750413475047845
0.465000000000000302,1.195500451069993808
0.466000000000000303,1.196227962876709849
0.467000000000000304,1.195957330809939378
0.468000000000000305,1.194712867385777866
0.469000000000000306,1.192518802521596921
0.470000000000000306,1.189399270814438747
0.471000000000000307,1.185378299291864446
0.472000000000000308,1.180479795629018058
0.473000000000000309,1.174727536825391550
0.474000000000000310,1.168145158334567002
0.475000000000000311,1.160756143639986693
0.476000000000000312,1.152583814269699136
0.477000000000000313,1.143651320242772496
0.478000000000000314,1.133981630939984164
0.479000000000000314,1.123597526391216350
0.480000000000000315,1.112521588971942421
0.481000000000000316,1.100776195500999144
0.482000000000000317,1.088383509731835730
0.483000000000000318,1.075365475229301371
0.484000000000000319,1.061743808624017182
0.485000000000000320,1.047539993236269007
0.486000000000000321,1.032775273061419030
0.487000000000000322,1.017470647108708270
0.488000000000000322,1.001646864085358413
0.489000000000000323,0.985324417417911436
0.490000000000000324,0.968523540602654998
0.491000000000000325,0.951264202877095899
0.492000000000000326,0.933566105204403307
0.493000000000000327,0.915448676562825581
0.494000000000000328,0.896931070532036578
0.495000000000000329,0.878032162168553398
0.496000000000000330,0.858770545162246379
0.497000000000000330,0.839164529266206771
0.498000000000000331,0.819232137992107368
0.499000000000000332,0.798991106563481157
0.500000000000000333,0.778458880119186403
0.501000000000000334,0.757652612159586014
0.502000000000000335,0.736589163227981514
0.503000000000000336,0.715285099819926606
0.504000000000000337,0.693756693513151279
0.505000000000000338,0.672019920310927388
0.506000000000000338,0.650090460191793285
0.507000000000000339,0.627983696858669616
0.508000000000000340,0.605714717680483572
0.509000000000000341,0.583298313819578196
0.510000000000000342,0.560748980538191888
0.511000000000000343,0.538080917677533521
0.512000000000000344,0.515308030302965681
0.513000000000000345,0.492443929509030098
0.514000000000000346,0.469501933378074388
0.515000000000000346,0.446495068086428915
0.516000000000000347,0.423436069152156869
0.517000000000000348,0.400337382818517995
0.518000000000000349,0.377211167567421735
0.519000000000000350,0.354069295757304670
0.520000000000000351,0.330923355379827866
0.521000000000000352,0.307784651930164244
0.522000000000000353,0.284664210385509875
0.523000000000000353,0.261572777286725899
0.524000000000000354,0.238520822918122100
0.525000000000000355,0.215518543580402622
0.526000000000000356,0.192575863952096554
0.527000000000000357,0.169702439534722471
0.528000000000000358,0.146907659177154315
0.529000000000000359,0.124200647674818046
0.530000000000000360,0.101590268439295972
0.531000000000000361,0.079085126234218456
0.532000000000000361,0.056693569973293875
0.533000000000000362,0.034423695576522993
0.534000000000000363,0.012283348880702271
0.535000000000000364,-0.009719871399534452
0.536000000000000365,-0.031578610663811756
0.537000000000000366,-0.053285755374776443
0.538000000000000367,-0.074834429967012464
0.539000000000000368,-0.096217993719416112
0.540000000000000369,-0.117430037594312919
0.541000000000000369,-0.138464381046425750
0.542000000000000370,-0.159315068804778331
0.543000000000000371,-0.179976367630451523
0.544000000000000372,-0.200442763053077622
0.545000000000000373,-0.220708956088801506
0.546000000000000374,-0.240769859942412623
0.547000000000000375,-0.260620596696203688
0.548000000000000376,-0.280256493988061017
0.549000000000000377,-0.299673081681179176
0.550000000000000377,-0.318866088527722469
0.551000000000000378,-0.337831438828691544
0.552000000000000379,-0.356565249092091363
0.553000000000000380,-0.375063824691548142
0.554000000000000381,-0.393323656527308885
0.555000000000000382,-0.411341417691572730
0.556000000000000383,-0.429113960139989481
0.557000000000000384,-0.446638311371085339
0.558000000000000385,-0.463911671115330104
0.559000000000000385,-0.480931408035472241
0.560000000000000386,-0.497695056439656391
0.561000000000000387,-0.514200313008889798
0.562000000000000388,-0.530445033540215327
0.563000000000000389,-0.546427229707000306
0.564000000000000390,-0.562145065837598601
0.565000000000000391,-0.577596855713666479
0.566000000000000392,-0.592781059389288378
0.567000000000000393,-0.607696280032028135
0.568000000000000393,-0.622341260786992256
0.569000000000000394,-0.636714881664915411
0.570000000000000395,-0.650816156455194528
0.571000000000000396,-0.664644229664822062
0.572000000000000397,-0.678198373484049988
0.573000000000000398,-0.691477984779594990
0.574000000000000399,-0.704482582116138234
0.575000000000000400,-0.717211802806862142
0.576000000000000401,-0.729665399993651764
0.577000000000000401,-0.741843239757617900
0.578000000000000402,-0.753745298260522945
0.579000000000000403,-0.765371658917630149
0.580000000000000404,-0.776722509602503997
0.581000000000000405,-0.787798139884217541
0.582000000000000406,-0.798598938297386818
0.583000000000000407,-0.809125389645443782
0.584000000000000408,-0.819378072337484609
0.585000000000000409,-0.829357655759011991
0.586000000000000409,-0.839064897676911059
0.587000000000000410,-0.848500641678843315
0.588000000000000411,-0.857665814647348035
0.589000000000000412,-0.866561424268830316
0.590000000000000413,-0.875188556577595200
0.591000000000000414,-0.883548373535094633
0.592000000000000415,-0.891642110644488950
0.593000000000000416,-0.899471074600617926
0.594000000000000417,-0.907036640975470321
0.595000000000000417,-0.914340251939145920
0.596000000000000418,-0.921383414016404778
0.597000000000000419,-0.928167695878733490
0.598000000000000420,-0.934694726171964474
0.599000000000000421,-0.940966191379358663
0.600000000000000422,-0.946983833720144164
0.601000000000000423,-0.952749449083385103
0.602000000000000424,-0.958264884997108934
0.603000000000000425,-0.963532038632600396
0.604000000000000425,-0.968552854843677702
0.605000000000000426,-0.973329324240857496
0.606000000000000427,-0.977863481300240922
0.607000000000000428,-0.982157402506914634
0.608000000000000429,-0.986213204532743637
0.609000000000000430,-0.990033042448275169
0.610000000000000431,-0.993619107968632287
0.611000000000000432,-0.996973627733099610
0.612000000000000433,-1.000098861618203383
0.613000000000000433,-1.002997101084061260
