# hydroxyapatite-101-ph10_CYMSCA-AC
# h[nm],U(h)[kJ/mol]
0.149999999999999994,60.130342138043474165
0.150999999999999995,57.572036054849988318
0.151999999999999996,55.419628223064151484
0.152999999999999997,53.386659529136160529
0.153999999999999998,51.368165740458209712
0.154999999999999999,49.343375478981968740
0.156000000000000000,47.323887288840140286
0.157000000000000001,45.328303448602184744
0.158000000000000002,43.371575561016712186
0.159000000000000002,41.462001405779140839
0.160000000000000003,39.601777233218996344
0.161000000000000004,37.788846549602865821
0.162000000000000005,36.018893675812748256
0.163000000000000006,34.286973358227939457
0.164000000000000007,32.588621478057419267
0.165000000000000008,30.920470341725962982
0.166000000000000009,29.280468089910812068
0.167000000000000010,27.667821223740833858
0.168000000000000010,26.082770103529064443
0.169000000000000011,24.526286031962605705
0.170000000000000012,22.999754420031326418
0.171000000000000013,21.504686286700632536
0.172000000000000014,20.042482014679901425
0.173000000000000015,18.614257399549778427
0.174000000000000016,17.220732309017439121
0.175000000000000017,15.862176069032551950
0.176000000000000018,14.538400259423104544
0.177000000000000018,13.248788207157801367
0.178000000000000019,11.992350478504025801
0.179000000000000020,10.767796579036488680
0.180000000000000021,9.573614478176477149
0.181000000000000022,8.408151194756616320
0.182000000000000023,7.269689313407053710
0.183000000000000024,6.156515820860542831
0.184000000000000025,5.066980983266171634
0.185000000000000026,3.999546096467693879
0.186000000000000026,2.952819824553041705
0.187000000000000027,1.925583509344453770
0.188000000000000028,0.916806307085238692
0.189000000000000029,-0.074348683996563386
0.190000000000000030,-1.048525971010562774
0.191000000000000031,-2.006185492177775309
0.192000000000000032,-2.947615344599910703
0.193000000000000033,-3.872948116705407617
0.194000000000000034,-4.782179646835992060
0.195000000000000034,-5.675189171883809891
0.196000000000000035,-6.551759983326593151
0.197000000000000036,-7.411599862759868707
0.198000000000000037,-8.254360718008326714
0.199000000000000038,-9.079656979218118096
0.200000000000000039,-9.887082438884853275
0.201000000000000040,-10.676225328880249776
0.202000000000000041,-11.446681520622629336
0.203000000000000042,-12.198065811828460170
0.204000000000000042,-12.930021325602345073
0.205000000000000043,-13.642227096170866929
0.206000000000000044,-14.334403951779723485
0.207000000000000045,-15.006318830694260313
0.208000000000000046,-15.657787682438083721
0.209000000000000047,-16.288677114888969299
0.210000000000000048,-16.898904950051665708
0.211000000000000049,-17.488439848543862354
0.212000000000000050,-18.057300156232635402
0.213000000000000050,-18.605552117056301853
0.214000000000000051,-19.133307584740009588
0.215000000000000052,-19.640721353592191178
0.216000000000000053,-20.127988215459239996
0.217000000000000054,-20.595339836702528657
0.218000000000000055,-21.043041536125688395
0.219000000000000056,-21.471389032407010689
0.220000000000000057,-21.880705217993067890
0.221000000000000058,-22.271337005720308611
0.222000000000000058,-22.643652284743595260
0.223000000000000059,-22.998037013695647346
0.224000000000000060,-23.334892471388766211
0.225000000000000061,-23.654632678770962428
0.226000000000000062,-23.957682000218341045
0.227000000000000063,-24.244472927522693340
0.228000000000000064,-24.515444046046397375
0.229000000000000065,-24.771038179389517353
0.230000000000000066,-25.011700706465681776
0.231000000000000066,-25.237878043035138376
0.232000000000000067,-25.450016278417493254
0.233000000000000068,-25.648559957228769690
0.234000000000000069,-25.833950995488589086
0.235000000000000070,-26.006627720259455572
0.236000000000000071,-26.167024022051982968
0.237000000000000072,-26.315568609508023457
0.238000000000000073,-26.452684356307724300
0.239000000000000073,-26.578787730798847377
0.240000000000000074,-26.694288299482217042
0.241000000000000075,-26.799588296173595836
0.242000000000000076,-26.895082249377100680
0.243000000000000077,-26.981156661126629359
0.244000000000000078,-27.058189731263126987
0.245000000000000079,-27.126551121802737754
0.246000000000000080,-27.186601756705833566
0.247000000000000081,-27.238693652969836023
0.248000000000000081,-27.283169779535967336
0.249000000000000082,-27.320363941017809850
0.250000000000000111,-27.350600683726657536
0.251000000000000112,-27.374195221883827145
0.252000000000000113,-27.391453382276882422
0.253000000000000114,-27.402671565932500641
0.254000000000000115,-27.408136725651445431
0.255000000000000115,-27.408126358478153151
0.256000000000000116,-27.402908512366622062
0.257000000000000117,-27.392741806456434972
0.258000000000000118,-27.377875464491637558
0.259000000000000119,-27.358549361005895406
0.260000000000000120,-27.334994079962065427
0.261000000000000121,-27.307430985576058191
0.262000000000000122,-27.276072305079118507
0.263000000000000123,-27.241121223179259658
0.264000000000000123,-27.202771987977627077
0.265000000000000124,-27.161210028078905054
0.266000000000000125,-27.116612080611126601
0.267000000000000126,-27.069146329839448128
0.268000000000000127,-27.018972556024827725
0.269000000000000128,-26.966242294141146374
0.270000000000000129,-26.911099002027150107
0.271000000000000130,-26.853678237511850568
0.272000000000000131,-26.794107844016060938
0.273000000000000131,-26.732508144098950709
0.274000000000000132,-26.668992140386897916
0.275000000000000133,-26.603665723295126355
0.276000000000000134,-26.536627884927877830
0.277000000000000135,-26.467970938523773583
0.278000000000000136,-26.397780742797245068
0.279000000000000137,-26.326136930515730228
0.280000000000000138,-26.253113140645723433
0.281000000000000139,-26.178777253398170188
0.282000000000000139,-26.103191627505090366
0.283000000000000140,-26.026413339065232577
0.284000000000000141,-25.948494421305646540
0.285000000000000142,-25.869482104618821694
0.286000000000000143,-25.789419056251215778
0.287000000000000144,-25.708343619037560046
0.288000000000000145,-25.626290048597592630
0.289000000000000146,-25.543288748434733293
0.290000000000000147,-25.459366502403202759
0.291000000000000147,-25.374546704036660572
0.292000000000000148,-25.288849582261512694
0.293000000000000149,-25.202292423047346404
0.294000000000000150,-25.114889786578508790
0.295000000000000151,-25.026653719562535372
0.296000000000000152,-24.937593962322775809
0.297000000000000153,-24.847718150355497357
0.298000000000000154,-24.757032010062900440
0.299000000000000155,-24.665539548406492543
0.300000000000000155,-24.573243236255699173
0.301000000000000156,-24.480144185238092547
0.302000000000000157,-24.386242317927678158
0.303000000000000158,-24.291536531236545216
0.304000000000000159,-24.196024852904191249
0.305000000000000160,-24.099704591005384202
0.306000000000000161,-24.002572476424120396
0.307000000000000162,-23.904624798265867724
0.308000000000000163,-23.805857532203880567
0.309000000000000163,-23.706266461778163546
0.310000000000000164,-23.605847292686274130
0.311000000000000165,-23.504595760125052806
0.312000000000000166,-23.402507729260886293
0.313000000000000167,-23.299579288923002451
0.314000000000000168,-23.195806838629881241
0.315000000000000169,-23.091187169073535301
0.316000000000000170,-22.985717536199274491
0.317000000000000171,-22.879395729030413520
0.318000000000000171,-22.772220131398022147
0.319000000000000172,-22.664189777745111343
0.320000000000000173,-22.555304403182894646
0.321000000000000174,-22.445564487983826751
0.322000000000000175,-22.334971296702118337
0.323000000000000176,-22.223526912117542054
0.324000000000000177,-22.111234264202138888
0.325000000000000178,-21.998097154312745261
0.326000000000000179,-21.884120274814296891
0.327000000000000179,-21.769309224340421594
0.328000000000000180,-21.653670518898220365
0.329000000000000181,-21.537211599024473685
0.330000000000000182,-21.419940833198999997
0.331000000000000183,-21.301867517720410206
0.332000000000000184,-21.183001873246730895
0.333000000000000185,-21.063355038201343916
0.334000000000000186,-20.942939059241631128
0.335000000000000187,-20.821766878984089288
0.336000000000000187,-20.699852321176262393
0.337000000000000188,-20.577210073501227328
0.338000000000000189,-20.453855668196350592
0.339000000000000190,-20.329805460662999650
0.340000000000000191,-20.205076606238847603
0.341000000000000192,-20.079687035299752296
0.342000000000000193,-19.953655426851987897
0.343000000000000194,-19.827001180771034683
0.344000000000000195,-19.699744388836684550
0.345000000000000195,-19.571905804709224697
0.346000000000000196,-19.443506812985198451
0.347000000000000197,-19.314569397465749745
0.348000000000000198,-19.185116108764642462
0.349000000000000199,-19.055170031377144824
0.350000000000000200,-18.924754750325586627
0.351000000000000201,-18.793894317491002255
0.352000000000000202,-18.662613217735277260
0.353000000000000203,-18.530936334912137653
0.354000000000000203,-18.398888917860098502
0.355000000000000204,-18.266496546464676243
0.356000000000000205,-18.133785097872397785
0.357000000000000206,-18.000780712933394767
0.358000000000000207,-17.867509762944610685
0.359000000000000208,-17.733998816760514927
0.360000000000000209,-17.600274608333638326
0.361000000000000210,-17.466364004742167992
0.362000000000000210,-17.332293974757725152
0.363000000000000211,-17.198091558001785017
0.364000000000000212,-17.063783834735076539
0.365000000000000213,-16.929397896320139694
0.366000000000000214,-16.794960816393462721
0.367000000000000215,-16.660499622779536111
0.368000000000000216,-16.526041270175927167
0.369000000000000217,-16.391612613634656270
0.370000000000000218,-16.257240382862150341
0.371000000000000218,-16.122951157356595786
0.372000000000000219,-15.988771342398814923
0.373000000000000220,-15.854727145909620845
0.374000000000000221,-15.720844556184212948
0.375000000000000222,-15.587149320511306527
0.376000000000000223,-15.453666924682469386
0.377000000000000224,-15.320422573394782972
0.378000000000000225,-15.187441171547783725
0.379000000000000226,-15.054747306433579723
0.380000000000000226,-14.922365230817330684
0.381000000000000227,-14.790318846903115713
0.382000000000000228,-14.658631691179129675
0.383000000000000229,-14.527326920134052912
0.384000000000000230,-14.396427296835312859
0.385000000000000231,-14.265955178358726840
0.386000000000000232,-14.135932504057521442
0.387000000000000233,-14.006380784657846306
0.388000000000000234,-13.877321092166738481
0.389000000000000234,-13.748774050577804218
0.390000000000000235,-13.620759827358664751
0.391000000000000236,-13.493298125704006551
0.392000000000000237,-13.366408177536712287
0.393000000000000238,-13.240108737239825842
0.394000000000000239,-13.114418076100671229
0.395000000000000240,-12.989353977448795163
0.396000000000000241,-12.864933732468534444
0.397000000000000242,-12.741174136666799654
0.398000000000000242,-12.618091486976634741
0.399000000000000243,-12.495701579476607535
0.400000000000000244,-12.374019707706006344
0.401000000000000245,-12.253060661556057553
0.402000000000000246,-12.132838726716794753
0.403000000000000247,-12.013367684659575829
0.404000000000000248,-11.894660813135203625
0.405000000000000249,-11.776730887167655482
0.406000000000000250,-11.659590180523476732
0.407000000000000250,-11.543250467637205858
0.408000000000000251,-11.427723025973099524
0.409000000000000252,-11.313018638804058114
0.410000000000000253,-11.199147598388286440
0.411000000000000254,-11.086119709525140919
0.412000000000000255,-10.973944293471307176
0.413000000000000256,-10.862630192199160817
0.414000000000000257,-10.752185772979199641
0.415000000000000258,-10.642618933268932935
0.416000000000000258,-10.533937105890959884
0.417000000000000259,-10.426147264483097032
0.418000000000000260,-10.319255929204164346
0.419000000000000261,-10.213269172678995034
0.420000000000000262,-10.108192626167008754
0.421000000000000263,-10.004031485938799761
0.422000000000000264,-9.900790519845685367
0.423000000000000265,-9.798474074067593520
0.424000000000000266,-9.697086080025096422
0.425000000000000266,-9.596630061441663528
0.426000000000000267,-9.497109141542789956
0.427000000000000268,-9.398526050378945840
0.428000000000000269,-9.300883132259773589
0.429000000000000270,-9.204182353287382767
0.430000000000000271,-9.108425308976856982
0.431000000000000272,-9.013613231952746219
0.432000000000000273,-8.919746999710453039
0.433000000000000274,-8.826827142432048134
0.434000000000000274,-8.734853850846256762
0.435000000000000275,-8.643826984122901180
0.436000000000000276,-8.553746077792434122
0.437000000000000277,-8.464610351681411515
0.438000000000000278,-8.376418717855457885
0.439000000000000279,-8.289169788561364882
0.440000000000000280,-8.202861884160373762
0.441000000000000281,-8.117493041045204194
0.442000000000000282,-8.033061019533587199
0.443000000000000282,-7.949563311731417059
0.444000000000000283,-7.866997149359052699
0.445000000000000284,-7.785359511534584165
0.446000000000000285,-7.704647132508100071
0.447000000000000286,-7.624856509341585209
0.448000000000000287,-7.545983909528939826
0.449000000000000288,-7.468025378551439886
0.450000000000000289,-7.390976747363749766
0.451000000000000290,-7.314833639806207266
0.452000000000000290,-7.239591479939273100
0.453000000000000291,-7.165245499296228004
0.454000000000000292,-7.091790744050624262
0.455000000000000293,-7.019222082095017967
0.456000000000000294,-6.947534210028043944
0.457000000000000295,-6.876721660046817064
0.458000000000000296,-6.806778806742102006
0.459000000000000297,-6.737699873793824956
0.460000000000000298,-6.669478940564670388
0.461000000000000298,-6.602109948589808042
0.462000000000000299,-6.535586707960919561
0.463000000000000300,-6.469902903602859467
0.464000000000000301,-6.405052101441578216
0.465000000000000302,-6.341027754462010613
0.466000000000000303,-6.277823208654829124
0.467000000000000304,-6.215431708851062886
0.468000000000000305,-6.153846404443968687
0.469000000000000306,-6.093060354997296812
0.470000000000000306,-6.033066535739676439
0.471000000000000307,-5.973857842944545027
0.472000000000000308,-5.915427099195623484
0.473000000000000309,-5.857767058537605820
0.474000000000000310,-5.800870411512263125
0.475000000000000311,-5.744729790079924570
0.476000000000000312,-5.689337772426774187
0.477000000000000313,-5.634686887658021170
0.478000000000000314,-5.580769620377615148
0.479000000000000314,-5.527578415154938085
0.480000000000000315,-5.475105680878986192
0.481000000000000316,-5.423343795000930889
0.482000000000000317,-5.372285107665619286
0.483000000000000318,-5.321921945732969839
0.484000000000000319,-5.272246616690127397
0.485000000000000320,-5.223251412455391929
0.486000000000000321,-5.174928613074857076
0.487000000000000322,-5.127270490312932694
0.488000000000000322,-5.080269311137827870
0.489000000000000323,-5.033917341103217424
0.490000000000000324,-4.988206847627308704
0.491000000000000325,-4.943130103170573442
0.492000000000000326,-4.898679388313429861
0.493000000000000327,-4.854846994735276589
0.494000000000000328,-4.811625228096207962
0.495000000000000329,-4.769006410822834496
0.496000000000000330,-4.726982884799623363
0.497000000000000330,-4.685547013967227947
0.498000000000000331,-4.644691186829290608
0.499000000000000332,-4.604407818869181490
0.500000000000000333,-4.564689354878209038
0.501000000000000334,-4.525528271196836094
0.502000000000000335,-4.486917077870371529
0.503000000000000336,-4.448848320720808047
0.504000000000000337,-4.411314583336199746
0.505000000000000338,-4.374308488979287368
0.506000000000000338,-4.337822702416834098
0.507000000000000339,-4.301849931671272387
0.508000000000000340,-4.266382929696233006
0.509000000000000341,-4.231414495977516843
0.510000000000000342,-4.196937478061064652
0.511000000000000343,-4.162944773009477295
0.512000000000000344,-4.129429328788668307
0.513000000000000345,-4.096384145586148051
0.514000000000000346,-4.063802277062551482
0.515000000000000346,-4.031676831537856387
0.516000000000000347,-4.000000973113858826
0.517000000000000348,-3.968767922734458331
0.518000000000000349,-3.937970959185118858
0.519000000000000350,-3.907603420033153530
0.520000000000000351,-3.877658702510197397
0.521000000000000352,-3.848130264338355921
0.522000000000000353,-3.819011624501501334
0.523000000000000353,-3.790296363963071347
0.524000000000000354,-3.761978126331912531
0.525000000000000355,-3.734050618477400718
0.526000000000000356,-3.706507611095356758
0.527000000000000357,-3.679342939226066367
0.528000000000000358,-3.652550502725702586
0.529000000000000359,-3.626124266692563936
0.530000000000000360,-3.600058261849373942
0.531000000000000361,-3.574346584882953870
0.532000000000000361,-3.548983398742515227
0.533000000000000362,-3.523962932897847455
0.534000000000000363,-3.499279483558635384
0.535000000000000364,-3.474927413856051750
0.536000000000000365,-3.450901153987907755
0.537000000000000366,-3.427195201328462559
0.538000000000000367,-3.403804120504048569
0.539000000000000368,-3.380722543435687122
0.540000000000000369,-3.357945169349724868
0.541000000000000369,-3.335466764757649027
0.542000000000000370,-3.313282163406118030
0.543000000000000371,-3.291386266198228494
0.544000000000000372,-3.269774041087108341
0.545000000000000373,-3.248440522942769526
0.546000000000000374,-3.227380813393254222
0.547000000000000375,-3.206590080640999929
0.548000000000000376,-3.186063559255436495
0.549000000000000377,-3.165796549942647253
0.550000000000000377,-3.145784419293042866
0.551000000000000378,-3.126022599507971123
0.552000000000000379,-3.106506588106041189
0.553000000000000380,-3.087231947610089122
0.554000000000000381,-3.068194305215546258
0.555000000000000382,-3.049389352441074674
0.556000000000000383,-3.030812844762189151
0.557000000000000384,-3.012460601228708068
0.558000000000000385,-2.994328504066720686
0.559000000000000385,-2.976412498265851969
0.560000000000000386,-2.958708591152480416
0.561000000000000387,-2.941212851949668305
0.562000000000000388,-2.923921411324449160
0.563000000000000389,-2.906830460923108372
0.564000000000000390,-2.889936252895153768
0.565000000000000391,-2.873235099406562298
0.566000000000000392,-2.856723372142922379
0.567000000000000393,-2.840397501803071822
0.568000000000000393,-2.824253977583789599
0.569000000000000394,-2.808289346656124508
0.570000000000000395,-2.792500213633891004
0.571000000000000396,-2.776883240034854872
0.572000000000000397,-2.761435143735143427
0.573000000000000398,-2.746152698417355431
0.574000000000000399,-2.731032733012876079
0.575000000000000400,-2.716072131138850487
0.576000000000000401,-2.701267830530267755
0.577000000000000401,-2.686616822467628118
0.578000000000000402,-2.672116151200581324
0.579000000000000403,-2.657762913367959889
0.580000000000000404,-2.643554257414641562
0.581000000000000405,-2.629487383005590040
0.582000000000000406,-2.615559540437452313
0.583000000000000407,-2.601768030048104752
0.584000000000000408,-2.588110201624473916
0.585000000000000409,-2.574583453808970024
0.586000000000000409,-2.561185233504885694
0.587000000000000410,-2.547913035281038852
0.588000000000000411,-2.534764400776006177
0.589000000000000412,-2.521736918102203795
0.590000000000000413,-2.508828221250122503
0.591000000000000414,-2.496035989492980001
0.592000000000000415,-2.483357946792064119
0.593000000000000416,-2.470791861202994433
0.594000000000000417,-2.458335544283186458
0.595000000000000417,-2.445986850500715626
0.596000000000000418,-2.433743676644809284
0.597000000000000419,-2.421603961238226521
0.598000000000000420,-2.409565683951653714
0.599000000000000421,-2.397626865020396458
0.600000000000000422,-2.385785564663488678
0.601000000000000423,-2.374039882505465382
0.602000000000000424,-2.362387957000902983
0.603000000000000425,-2.350827964861956332
0.604000000000000425,-2.339358120489014148
0.605000000000000426,-2.327976675404625606
0.606000000000000427,-2.316681917690875725
0.607000000000000428,-2.305472171430275719
