# hydroxyapatite-101-ph10_HFE
# h[nm],U(h)[kJ/mol]
0.149999999999999994,39.861796471241376594
0.150999999999999995,38.808142635792798103
0.151999999999999996,37.597032793918209848
0.152999999999999997,36.382028203731081817
0.153999999999999998,35.213621105060234129
0.154999999999999999,34.096019466244065654
0.156000000000000000,33.017409410066427711
0.157000000000000001,31.964559436112949697
0.158000000000000002,30.928611479420546004
0.159000000000000002,29.906259071719148324
0.160000000000000003,28.898800151574626227
0.161000000000000004,27.910464965853332586
0.162000000000000005,26.946747154023160675
0.163000000000000006,26.013064583121312978
0.164000000000000007,25.113848503368483733
0.165000000000000008,24.252040091186415793
0.166000000000000009,23.428919577127757634
0.167000000000000010,22.644177159884911532
0.168000000000000010,21.896139200402341629
0.169000000000000011,21.182076962159065658
0.170000000000000012,20.498542043347850239
0.171000000000000013,19.841689113470053485
0.172000000000000014,19.207560884443239502
0.173000000000000015,18.592321755102489078
0.174000000000000016,17.992435224264447413
0.175000000000000017,17.404786249829264477
0.176000000000000018,16.826753658940933889
0.177000000000000018,16.256239939525340077
0.178000000000000019,15.691666692990844822
0.179000000000000020,15.131944072787453237
0.180000000000000021,14.576421979545695962
0.181000000000000022,14.024829870964879319
0.182000000000000023,13.477210954456030123
0.183000000000000024,12.933855392949348939
0.184000000000000025,12.395236057897568216
0.185000000000000026,11.861949364295792719
0.186000000000000026,11.334662851610222134
0.187000000000000027,10.814070444820361061
0.188000000000000028,10.300855741580544844
0.189000000000000029,9.795663216652522820
0.190000000000000030,9.299076900017293923
0.191000000000000031,8.811605854579941166
0.192000000000000032,8.333675636405283527
0.193000000000000033,7.865624848577835060
0.194000000000000034,7.407705883804771574
0.195000000000000034,6.960088977091809070
0.196000000000000035,6.522868746341923263
0.197000000000000036,6.096072475530877277
0.198000000000000037,5.679669483973972532
0.199000000000000038,5.273581019550147353
0.200000000000000039,4.877690208516780146
0.201000000000000040,4.491851685951995243
0.202000000000000041,4.115900616223401975
0.203000000000000042,3.749660890439307170
0.204000000000000042,3.392952356564455041
0.205000000000000043,3.045596997338483991
0.206000000000000044,2.707424021325432584
0.207000000000000045,2.378273873686791440
0.208000000000000046,2.058001206177234366
0.209000000000000047,1.746476871136562803
0.210000000000000048,1.443589022704986125
0.211000000000000049,1.149243420973894203
0.212000000000000050,0.863363042149437376
0.213000000000000050,0.585887100876073985
0.214000000000000051,0.316769590412254942
0.215000000000000052,0.055977443083308744
0.216000000000000053,-0.196511592002196173
0.217000000000000054,-0.440711264029647165
0.218000000000000055,-0.676629246559999897
0.219000000000000056,-0.904269601668900691
0.220000000000000057,-1.123635218374490874
0.221000000000000058,-1.334730170805111360
0.222000000000000058,-1.537561950590038862
0.223000000000000059,-1.732143536613746537
0.224000000000000060,-1.918495273422139658
0.225000000000000061,-2.096646537108178165
0.226000000000000062,-2.266637174369232177
0.227000000000000063,-2.428518706583261633
0.228000000000000064,-2.582355296180845361
0.229000000000000065,-2.728224477301904649
0.230000000000000066,-2.866217656738045516
0.231000000000000066,-2.996440394507411842
0.232000000000000067,-3.119012476127135614
0.233000000000000068,-3.234067790786519847
0.234000000000000069,-3.341754031230647293
0.235000000000000070,-3.442232232291840610
0.236000000000000071,-3.535676165706920671
0.237000000000000072,-3.622271609183955743
0.238000000000000073,-3.702215507682322659
0.239000000000000073,-3.775715044592540259
0.240000000000000074,-3.842986639992634679
0.241000000000000075,-3.904254892456725745
0.242000000000000076,-3.959751480037830618
0.243000000000000077,-4.009714035075317540
0.244000000000000078,-4.054385006419058968
0.245000000000000079,-4.094010521544931613
0.246000000000000080,-4.128839259884196977
0.247000000000000081,-4.159121347524085799
0.248000000000000081,-4.185107282275984275
0.249000000000000082,-4.207046896967026939
0.250000000000000111,-4.225188367703056613
0.251000000000000112,-4.239777272786065865
0.252000000000000113,-4.251055706956127445
0.253000000000000114,-4.259261454671796621
0.254000000000000115,-4.264627225249794762
0.255000000000000115,-4.267379951856481668
0.256000000000000116,-4.267740155582544936
0.257000000000000117,-4.265921375139096305
0.258000000000000118,-4.262129662087103199
0.259000000000000119,-4.256563140952446034
0.260000000000000120,-4.249411633083536088
0.261000000000000121,-4.240856342674932833
0.262000000000000122,-4.231069603006540447
0.263000000000000123,-4.220214680629960746
0.264000000000000123,-4.208445634968656535
0.265000000000000124,-4.195907230582795577
0.266000000000000125,-4.182734899179824772
0.267000000000000126,-4.169054748323858917
0.268000000000000127,-4.154983613707746493
0.269000000000000128,-4.140629151797258878
0.270000000000000129,-4.126089969633954802
0.271000000000000130,-4.111455788588509463
0.272000000000000131,-4.096807638886494907
0.273000000000000131,-4.082218081780562002
0.274000000000000132,-4.067751456314008252
0.275000000000000133,-4.053464147708046639
0.276000000000000134,-4.039404874505990506
0.277000000000000135,-4.025614991720063429
0.278000000000000136,-4.012128807348138260
0.279000000000000137,-3.998973909756537548
0.280000000000000138,-3.986171503559386764
0.281000000000000139,-3.973736751762980024
0.282000000000000139,-3.961679122084123428
0.283000000000000140,-3.950002735492682771
0.284000000000000141,-3.938706715169812522
0.285000000000000142,-3.927785534213307894
0.286000000000000143,-3.917229360559394191
0.287000000000000144,-3.907024397725167297
0.288000000000000145,-3.897153220107458793
0.289000000000000146,-3.887595101701025069
0.290000000000000147,-3.878326337221856157
0.291000000000000147,-3.869320554739014817
0.292000000000000148,-3.860549019031116025
0.293000000000000149,-3.851980924990507926
0.294000000000000150,-3.843583680499724320
0.295000000000000151,-3.835323178300575453
0.296000000000000152,-3.827164056466124009
0.297000000000000153,-3.819069947170201651
0.298000000000000154,-3.811003713527502779
0.299000000000000155,-3.802927674350319087
0.300000000000000155,-3.794803816735329072
0.301000000000000156,-3.786593996455857702
0.302000000000000157,-3.778260126191810286
0.303000000000000158,-3.769764351681218706
0.304000000000000159,-3.761069215924222497
0.305000000000000160,-3.752137811612423768
0.306000000000000161,-3.742933921994388236
0.307000000000000162,-3.733422150421545460
0.308000000000000163,-3.723568038848144024
0.309000000000000163,-3.713338175584705247
0.310000000000000164,-3.702700292626455614
0.311000000000000165,-3.691623352896919563
0.312000000000000166,-3.680077627762536885
0.313000000000000167,-3.668034765186752200
0.314000000000000168,-3.655467848901972960
0.315000000000000169,-3.642351448985197582
0.316000000000000170,-3.628661664228259642
0.317000000000000171,-3.614376156696502029
0.318000000000000171,-3.599474178870701202
0.319000000000000172,-3.583936593766368528
0.320000000000000173,-3.567745888422013678
0.321000000000000174,-3.550886181144201181
0.322000000000000175,-3.533343222892029623
0.323000000000000176,-3.515104393177364450
0.324000000000000177,-3.496158690849745287
0.325000000000000178,-3.476496720126685425
0.326000000000000179,-3.456110672221047508
0.327000000000000179,-3.434994302907404151
0.328000000000000180,-3.413142906359029727
0.329000000000000181,-3.390553285576523912
0.330000000000000182,-3.367223719717659325
0.331000000000000183,-3.343153928626936278
0.332000000000000184,-3.318345034851351905
0.333000000000000185,-3.292799523417246466
0.334000000000000186,-3.266521199631105876
0.335000000000000187,-3.239515145155202447
0.336000000000000187,-3.211787672597103072
0.337000000000000188,-3.183346278840058829
0.338000000000000189,-3.154199597329666371
0.339000000000000190,-3.124357349520465288
0.340000000000000191,-3.093830295674648845
0.341000000000000192,-3.062630185194019194
0.342000000000000193,-3.030769706655017437
0.343000000000000194,-2.998262437706228134
0.344000000000000195,-2.965122794976982057
0.345000000000000195,-2.931365984135795522
0.346000000000000196,-2.897007950227268758
0.347000000000000197,-2.862065328406664833
0.348000000000000198,-2.826555395182144714
0.349000000000000199,-2.790496020265668342
0.350000000000000200,-2.753905619125165849
0.351000000000000201,-2.716803106322214223
0.352000000000000202,-2.679207849711710221
0.353000000000000203,-2.641139625572483940
0.354000000000000203,-2.602618574730569456
0.355000000000000204,-2.563665159730061038
0.356000000000000205,-2.524300123099963322
0.357000000000000206,-2.484544446759282099
0.358000000000000207,-2.444419312596672000
0.359000000000000208,-2.403946064255563009
0.360000000000000209,-2.363146170150331127
0.361000000000000210,-2.322041187734241952
0.362000000000000210,-2.280652729035221427
0.363000000000000211,-2.239002427471198153
0.364000000000000212,-2.197111905952716882
0.365000000000000213,-2.155002746276661441
0.366000000000000214,-2.112696459811494343
0.367000000000000215,-2.070214459471024782
0.368000000000000216,-2.027578032970815958
0.369000000000000217,-1.984808317358372376
0.370000000000000218,-1.941926274805834796
0.371000000000000218,-1.898952669651365666
0.372000000000000219,-1.855908046673393930
0.373000000000000220,-1.812812710579794429
0.374000000000000221,-1.769686706692385370
0.375000000000000222,-1.726549802805417810
0.376000000000000223,-1.683421472195365975
0.377000000000000224,-1.640320877758014717
0.378000000000000225,-1.597266857247675587
0.379000000000000226,-1.554277909592413964
0.380000000000000226,-1.511372182258312602
0.381000000000000227,-1.468567459634982475
0.382000000000000228,-1.425881152414061326
0.383000000000000229,-1.383330287931822777
0.384000000000000230,-1.340931501446628316
0.385000000000000231,-1.298701028321775697
0.386000000000000232,-1.256654697083934513
0.387000000000000233,-1.214807923327353212
0.388000000000000234,-1.173175704433901290
0.389000000000000234,-1.131772615079153388
0.390000000000000235,-1.090612803494669825
0.391000000000000236,-1.049709988456956067
0.392000000000000237,-1.009077456973656028
0.393000000000000238,-0.968728062637946863
0.394000000000000239,-0.928674224622304423
0.395000000000000240,-0.888927927283266639
0.396000000000000241,-0.849500720349193217
0.397000000000000242,-0.810403719663439048
0.398000000000000242,-0.771647608455910738
0.399000000000000243,-0.733242639116408412
0.400000000000000244,-0.695198635443669888
0.401000000000000245,-0.657524995344730301
0.402000000000000246,-0.620230693959605839
0.403000000000000247,-0.583324287186964163
0.404000000000000248,-0.546813915587134880
0.405000000000000249,-0.510707308639293367
0.406000000000000250,-0.475011789330360479
0.407000000000000250,-0.439734279053777377
0.408000000000000251,-0.404881302796912590
0.409000000000000252,-0.370458994596589819
0.410000000000000253,-0.336473103242748484
0.411000000000000254,-0.302928998210998834
0.412000000000000255,-0.269831675805410565
0.413000000000000256,-0.237185765493550443
0.414000000000000257,-0.204995536416359675
0.415000000000000258,-0.173264904056201263
0.416000000000000258,-0.141997437046904207
0.417000000000000259,-0.111196364110340701
0.418000000000000260,-0.080864581104657246
0.419000000000000261,-0.051004658169825669
0.420000000000000262,-0.021618846956892045
0.421000000000000263,0.007290912072249611
0.422000000000000264,0.035722982287069979
0.423000000000000265,0.063676023484621605
0.424000000000000266,0.091148984451134132
0.425000000000000266,0.118141095499956175
0.426000000000000267,0.144651860996178355
0.427000000000000268,0.170681051877810575
0.428000000000000269,0.196228698182893513
0.429000000000000270,0.221295081591387721
0.430000000000000271,0.245880727990294090
0.431000000000000272,0.269986400069919086
0.432000000000000273,0.293613089958793427
0.433000000000000274,0.316762011904305751
0.434000000000000274,0.339434595005716488
0.435000000000000275,0.361632476005762982
0.436000000000000276,0.383357492146700285
0.437000000000000277,0.404611674096279461
0.438000000000000278,0.425397238948699741
0.439000000000000279,0.445716583305303948
0.440000000000000280,0.465572276439410793
0.441000000000000281,0.484967053549341665
0.442000000000000282,0.503903809103365963
0.443000000000000282,0.522385590280045387
0.444000000000000283,0.540415590507072219
0.445000000000000284,0.557997143101476745
0.446000000000000285,0.575133715013831925
0.447000000000000286,0.591828900678683212
0.448000000000000287,0.608086415973394523
0.449000000000000288,0.623910092287151441
0.450000000000000289,0.639303870701792287
0.451000000000000290,0.654271796285821328
0.452000000000000290,0.668818012502801595
0.453000000000000291,0.682946755735103883
0.454000000000000292,0.696662349923802382
0.455000000000000293,0.709969201325338473
0.456000000000000294,0.722871793385374550
0.457000000000000295,0.735374681730147528
0.458000000000000296,0.747482489275410833
0.459000000000000297,0.759199901452968229
0.460000000000000298,0.770531661554629377
0.461000000000000298,0.781482566193301809
0.462000000000000299,0.792057460880791653
0.463000000000000300,0.802261235721810406
0.464000000000000301,0.812098821223521505
0.465000000000000302,0.821575184219894838
0.466000000000000303,0.830695323910039640
0.467000000000000304,0.839464268009597392
0.468000000000000305,0.847887069014139128
0.469000000000000306,0.855968800573541189
0.470000000000000306,0.863714553976129951
0.471000000000000307,0.871129434741397368
0.472000000000000308,0.878218559319970615
0.473000000000000309,0.884987051899521204
0.474000000000000310,0.891440041315184617
0.475000000000000311,0.897582658063065475
0.476000000000000312,0.903420031415305025
0.477000000000000313,0.908957286635233119
0.478000000000000314,0.914199542290985989
0.479000000000000314,0.919151907666020285
0.480000000000000315,0.923819480264892134
0.481000000000000316,0.928207343412650543
0.482000000000000317,0.932320563946171577
0.483000000000000318,0.936164189995742246
0.484000000000000319,0.939743248855205437
0.485000000000000320,0.943062744938905295
0.486000000000000321,0.946127657823762624
0.487000000000000322,0.948942940374700727
0.488000000000000322,0.951513516951701832
0.489000000000000323,0.953844281696745178
0.490000000000000324,0.955940096898893699
0.491000000000000325,0.957805791435764164
0.492000000000000326,0.959446159289682909
0.493000000000000327,0.960865958136752241
0.494000000000000328,0.962069908007130215
0.495000000000000329,0.963062690014799827
0.496000000000000330,0.963848945155111769
0.497000000000000330,0.964433273168429195
0.498000000000000331,0.964820231468157985
0.499000000000000332,0.965014334131529816
0.500000000000000333,0.965020050951463149
0.501000000000000334,0.964841806547869552
0.502000000000000335,0.964483979536792768
0.503000000000000336,0.963950901755768363
0.504000000000000337,0.963246857543837876
0.505000000000000338,0.962376083074637068
0.506000000000000338,0.961342765741024174
0.507000000000000339,0.960151043589736575
0.508000000000000340,0.958805004804551997
0.509000000000000341,0.957308687236512412
0.510000000000000342,0.955666077979712592
0.511000000000000343,0.953881112991264879
0.512000000000000344,0.951957676754001669
0.513000000000000345,0.949899601980543240
0.514000000000000346,0.947710669357367363
0.515000000000000346,0.945394607327547987
0.516000000000000347,0.942955091910847920
0.517000000000000348,0.940395746559869905
0.518000000000000349,0.937720142051024275
0.519000000000000350,0.934931796409056437
0.520000000000000351,0.932034174863914933
0.521000000000000352,0.929030689838802437
0.522000000000000353,0.925924700968210779
0.523000000000000353,0.922719515144817648
0.524000000000000354,0.919418386594135106
0.525000000000000355,0.916024516975801673
0.526000000000000356,0.912541055510474153
0.527000000000000357,0.908971099131254179
0.528000000000000358,0.905317692658653583
0.529000000000000359,0.901583828998096193
0.530000000000000360,0.897772449358977931
0.531000000000000361,0.893886443494355198
0.532000000000000361,0.889928649960328721
0.533000000000000362,0.885901856394220588
0.534000000000000363,0.881808799810678723
0.535000000000000364,0.877652166914846377
0.536000000000000365,0.873434594431763189
0.537000000000000366,0.869158669451196020
0.538000000000000367,0.864826929787102516
0.539000000000000368,0.860441864350968144
0.540000000000000369,0.856005913538266383
0.541000000000000369,0.851521469627321559
0.542000000000000370,0.846990877189859104
0.543000000000000371,0.842416433512586105
0.544000000000000372,0.837800389029095371
0.545000000000000373,0.833144947761498278
0.546000000000000374,0.828452267771116468
0.547000000000000375,0.823724461617660886
0.548000000000000376,0.818963596826280393
0.549000000000000377,0.814171696361939312
0.550000000000000377,0.809350739110553108
0.551000000000000378,0.804502660366345657
0.552000000000000379,0.799629352324934151
0.553000000000000380,0.794732664581612736
0.554000000000000381,0.789814404634369915
0.555000000000000382,0.784876338391170991
0.556000000000000383,0.779920190681042014
0.557000000000000384,0.774947645768535587
0.558000000000000385,0.769960347871144757
0.559000000000000385,0.764959901679261423
0.560000000000000386,0.759947872878301567
0.561000000000000387,0.754925788672596076
0.562000000000000388,0.749895138310698761
0.563000000000000389,0.744857373611765738
0.564000000000000390,0.739813909492655464
0.565000000000000391,0.734766124495435546
0.566000000000000392,0.729715361314982269
0.567000000000000393,0.724662927326375161
0.568000000000000393,0.719610095111798631
0.569000000000000394,0.714558102986666110
0.570000000000000395,0.709508155524730899
0.571000000000000396,0.704461424081893606
0.572000000000000397,0.699419047318487808
0.573000000000000398,0.694382131719814000
0.574000000000000399,0.689351752114681249
0.575000000000000400,0.684328952191768258
0.576000000000000401,0.679314745013583576
0.577000000000000401,0.674310113527846200
0.578000000000000402,0.669316011076088735
0.579000000000000403,0.664333361899328567
0.580000000000000404,0.659363061640624748
0.581000000000000405,0.654405977844364717
0.582000000000000406,0.649462950452151189
0.583000000000000407,0.644534792295109016
0.584000000000000408,0.639622289582527648
0.585000000000000409,0.634726202386676319
0.586000000000000409,0.629847265123680167
0.587000000000000410,0.624986187030360685
0.588000000000000411,0.620143652636919507
0.589000000000000412,0.615320322235371586
0.590000000000000413,0.610516832343640736
0.591000000000000414,0.605733796165222271
0.592000000000000415,0.600971804044345470
0.593000000000000416,0.596231423916545378
0.594000000000000417,0.591513201754585438
0.595000000000000417,0.586817662009678442
0.596000000000000418,0.582145308047912646
0.597000000000000419,0.577496622581874619
0.598000000000000420,0.572872068097385001
0.599000000000000421,0.568272087275323856
0.600000000000000422,0.563697103408493438
0.601000000000000423,0.559147520813499388
0.602000000000000424,0.554623725237604170
0.603000000000000425,0.550126084260529447
0.604000000000000425,0.545654947691197600
0.605000000000000426,0.541210647959377567
0.606000000000000427,0.536793500502226406
0.607000000000000428,0.532403804145717974
0.608000000000000429,0.528041841480939134
0.609000000000000430,0.523707879235271068
0.610000000000000431,0.519402168638420814
0.611000000000000432,0.515124945783331234
0.612000000000000433,0.510876431981967638
0.613000000000000433,0.506656834115965404
0.614000000000000434,0.502466344982187230
0.615000000000000435,0.498305143633166192
0.616000000000000436,0.494173395712455388
0.617000000000000437,0.490071253784925998
0.618000000000000438,0.485998857661993633
