# hydroxyapatite-101-ph10_TRPSCA-JS
# h[nm],U(h)[kJ/mol]
0.149999999999999994,112.964455746731118779
0.150999999999999995,109.944076072563660773
0.151999999999999996,106.850682014878657355
0.152999999999999997,103.846746673498088853
0.153999999999999998,100.974407510974202751
0.154999999999999999,98.225184885045791816
0.156000000000000000,95.575284957445774126
0.157000000000000001,93.001546162107231908
0.158000000000000002,90.487097746280227284
0.159000000000000002,88.022016035050839378
0.160000000000000003,85.601923789270983889
0.161000000000000004,83.226067625603576516
0.162000000000000005,80.895587617618204490
0.163000000000000006,78.612238469940479035
0.164000000000000007,76.377588301094064605
0.165000000000000008,74.192616814846459761
0.166000000000000009,72.057601856074697366
0.167000000000000010,69.972186983849638864
0.168000000000000010,67.935542186606966197
0.169000000000000011,65.946553761878206501
0.170000000000000012,64.004001826880198678
0.171000000000000013,62.106702369546567866
0.172000000000000014,60.253604511925672682
0.173000000000000015,58.443843028908261772
0.174000000000000016,56.676751866832908888
0.175000000000000017,54.951847284507763902
0.176000000000000018,53.268790099275747707
0.177000000000000018,51.627336052047397175
0.178000000000000019,50.027282055072774369
0.179000000000000020,48.468414463142082127
0.180000000000000021,46.950463799397560649
0.181000000000000022,45.473068757501202697
0.182000000000000023,44.035750901523201151
0.183000000000000024,42.637900345463357610
0.184000000000000025,41.278771827790997406
0.185000000000000026,39.957489988733165376
0.186000000000000026,38.673062279753594339
0.187000000000000027,37.424397748577199252
0.188000000000000028,36.210329909849647834
0.189000000000000029,35.029641993108533882
0.190000000000000030,33.881093021817534350
0.191000000000000031,32.763443390180050585
0.192000000000000032,31.675478843909939286
0.193000000000000033,30.616032017821105171
0.194000000000000034,29.584000922496045405
0.195000000000000034,28.578363994086338096
0.196000000000000035,27.598191518739060513
0.197000000000000036,26.642653412408769498
0.198000000000000037,25.711023476391357434
0.199000000000000038,24.802680359050974346
0.200000000000000039,23.917105536423456158
0.201000000000000040,23.053878681055270050
0.202000000000000041,22.212670822492846412
0.203000000000000042,21.393235717457262268
0.204000000000000042,20.595399846164383462
0.205000000000000043,19.819051436638520869
0.206000000000000044,19.064128894169105166
0.207000000000000045,18.330608980969941513
0.208000000000000046,17.618495053997801136
0.209000000000000047,16.927805628832089724
0.210000000000000048,16.258563496242487645
0.211000000000000049,15.610785577000701352
0.212000000000000050,14.984473660753531377
0.213000000000000050,14.379606137239207442
0.214000000000000051,13.796130793424671523
0.215000000000000052,13.233958718700552737
0.216000000000000053,12.692959332345683521
0.217000000000000054,12.172956523175830768
0.218000000000000055,11.673725870613504085
0.219000000000000056,11.194992899259244012
0.220000000000000057,10.736432305234350437
0.221000000000000058,10.297668081883742275
0.222000000000000058,9.878274464608050920
0.223000000000000059,9.477777609363840838
0.224000000000000060,9.095657916432765333
0.225000000000000061,8.731352910124883238
0.226000000000000062,8.384260585862421067
0.227000000000000063,8.053743138313020467
0.228000000000000064,7.739130987648927373
0.229000000000000065,7.439727025360417301
0.230000000000000066,7.154811006131775564
0.231000000000000066,6.883644017897379008
0.232000000000000067,6.625472968161512100
0.233000000000000068,6.379535030834270870
0.234000000000000069,6.145062004075564133
0.235000000000000070,5.921284535838482910
0.236000000000000071,5.707436179867566572
0.237000000000000072,5.502757250760792473
0.238000000000000073,5.306498452285874023
0.239000000000000073,5.117924258404966231
0.240000000000000074,4.936316031371651647
0.241000000000000075,4.760974865798725197
0.242000000000000076,4.591224151739615067
0.243000000000000077,4.426411853574940380
0.244000000000000078,4.265912504850366993
0.245000000000000079,4.109128922179541732
0.246000000000000080,3.955493643917834756
0.247000000000000081,3.804470101544562333
0.248000000000000081,3.655553533582049486
0.249000000000000082,3.508271653448950644
0.250000000000000111,3.362185083915277151
0.251000000000000112,3.216887571820525871
0.252000000000000113,3.072005997455961257
0.253000000000000114,2.927200193523921801
0.254000000000000115,2.782162588889727228
0.255000000000000115,2.636617692461824536
0.256000000000000116,2.490321432491698683
0.257000000000000117,2.343060366399178474
0.258000000000000118,2.194650775920119479
0.259000000000000119,2.044937661959666642
0.260000000000000120,1.893793653033078783
0.261000000000000121,1.741117840603400024
0.262000000000000122,1.586834553994186159
0.263000000000000123,1.430892086881042191
0.264000000000000123,1.273261386657784877
0.265000000000000124,1.113934717244070338
0.266000000000000125,0.952924305159304041
0.267000000000000126,0.790260977942242260
0.268000000000000127,0.625992803252796604
0.269000000000000128,0.460183736260213805
0.270000000000000129,0.292912282203818208
0.271000000000000130,0.124270180314354522
0.272000000000000131,-0.045638885390505160
0.273000000000000131,-0.216700543571238968
0.274000000000000132,-0.388790957045830443
0.275000000000000133,-0.561778004625629324
0.276000000000000134,-0.735522420205947158
0.277000000000000135,-0.909878886532439424
0.278000000000000136,-1.084697081554127696
0.279000000000000137,-1.259822675729523000
0.280000000000000138,-1.435098279074409566
0.281000000000000139,-1.610364337129398749
0.282000000000000139,-1.785459975381996856
0.283000000000000140,-1.960223792003420229
0.284000000000000141,-2.134494599055254405
0.285000000000000142,-2.308112112586721221
0.286000000000000143,-2.480917592280953876
0.287000000000000144,-2.652754431519257938
0.288000000000000145,-2.823468698918381481
0.289000000000000146,-2.992909632556770561
0.290000000000000147,-3.160930088245561542
0.291000000000000147,-3.327386943317564683
0.292000000000000148,-3.492141457506562574
0.293000000000000149,-3.655059592568959737
0.294000000000000150,-3.816012292363720526
0.295000000000000151,-3.974875725154277006
0.296000000000000152,-4.131531489930008405
0.297000000000000153,-4.285866788565749097
0.298000000000000154,-4.437774565646941838
0.299000000000000155,-4.587153617786725590
0.300000000000000155,-4.733908674250306703
0.301000000000000156,-4.877950450682508432
0.302000000000000157,-5.019195677707894987
0.303000000000000158,-5.157567106139110180
0.304000000000000159,-5.292993490490210284
0.305000000000000160,-5.425409552447661099
0.306000000000000161,-5.554755925903466895
0.307000000000000162,-5.680979085103303738
0.308000000000000163,-5.804031257407870292
0.309000000000000163,-5.923870322108943931
0.310000000000000164,-6.040459696683004864
0.311000000000000165,-6.153768211805592969
0.312000000000000166,-6.263769976388752880
0.313000000000000167,-6.370444233843078230
0.314000000000000168,-6.473775210704529215
0.315000000000000169,-6.573751958705537746
0.316000000000000170,-6.670368191309509420
0.317000000000000171,-6.763622115668303181
0.318000000000000171,-6.853516260903741220
0.319000000000000172,-6.940057303557073176
0.320000000000000173,-7.023255890994126283
0.321000000000000174,-7.103126463499629395
0.322000000000000175,-7.179687075741369995
0.323000000000000176,-7.252959218233729466
0.324000000000000177,-7.322967639380957294
0.325000000000000178,-7.389740168632914497
0.326000000000000179,-7.453307541240922873
0.327000000000000179,-7.513703225057227542
0.328000000000000180,-7.570963249780424675
0.329000000000000181,-7.625126039009370693
0.330000000000000182,-7.676232245430108847
0.331000000000000183,-7.724324589425121346
0.332000000000000184,-7.769447701359743164
0.333000000000000185,-7.811647967768895917
0.334000000000000186,-7.850973381637189163
0.335000000000000187,-7.887473396936823811
0.336000000000000187,-7.921198787561489318
0.337000000000000188,-7.952201510769173254
0.338000000000000189,-7.980534575223961369
0.339000000000000190,-8.006251913705119350
0.340000000000000191,-8.029408260531466723
0.341000000000000192,-8.050059033730974534
0.342000000000000193,-8.068260221967806345
0.343000000000000194,-8.084068276223685956
0.344000000000000195,-8.097540006215563579
0.345000000000000195,-8.108732481518815760
0.346000000000000196,-8.117702937352690995
0.347000000000000197,-8.124508684974049544
0.348000000000000198,-8.129207026615622667
0.349000000000000199,-8.131855174895973093
0.350000000000000200,-8.132510176620733944
0.351000000000000201,-8.131228840887448683
0.352000000000000202,-8.128067671400405203
0.353000000000000203,-8.123082802896458787
0.354000000000000203,-8.116329941578266371
0.355000000000000204,-8.107864309447355922
0.356000000000000205,-8.097740592426417194
0.357000000000000206,-8.086012892157508958
0.358000000000000207,-8.072734681360602238
0.359000000000000208,-8.057958762635667682
0.360000000000000209,-8.041737230590294772
0.361000000000000210,-8.024121437174112970
0.362000000000000210,-8.005161960101307983
0.363000000000000211,-7.984908574242479240
0.364000000000000212,-7.963410225867841419
0.365000000000000213,-7.940715009624267573
0.366000000000000214,-7.916870148130158213
0.367000000000000215,-7.891921974073108359
0.368000000000000216,-7.865915914697353628
0.369000000000000217,-7.838896478569260751
0.370000000000000218,-7.810907244511717806
0.371000000000000218,-7.781990852599777853
0.372000000000000219,-7.752188997112716251
0.373000000000000220,-7.721542421339823825
0.374000000000000221,-7.690090914139728007
0.375000000000000222,-7.657873308155716430
0.376000000000000223,-7.624927479592249924
0.377000000000000224,-7.591290349460415143
0.378000000000000225,-7.556997886203006942
0.379000000000000226,-7.522085109612549836
0.380000000000000226,-7.486586095958656983
0.381000000000000227,-7.450533984243582708
0.382000000000000228,-7.413960983508102842
0.383000000000000229,-7.376898381112299674
0.384000000000000230,-7.339376551918816105
0.385000000000000231,-7.301424968309082608
0.386000000000000232,-7.263072210965409781
0.387000000000000233,-7.224345980355010965
0.388000000000000234,-7.185273108854318025
0.389000000000000234,-7.145879573454976708
0.390000000000000235,-7.106190508995149813
0.391000000000000236,-7.066230221862667804
0.392000000000000237,-7.026022204118705261
0.393000000000000238,-6.985589147993529480
0.394000000000000239,-6.944952960707745149
0.395000000000000240,-6.904134779575318070
0.396000000000000241,-6.863154987346517188
0.397000000000000242,-6.822033227751267859
0.398000000000000242,-6.780788421205684813
0.399000000000000243,-6.739438780646281657
0.400000000000000244,-6.698001827458736734
0.401000000000000245,-6.656494407469793373
0.402000000000000246,-6.614932706972835419
0.403000000000000247,-6.573332268759441099
0.404000000000000248,-6.531708008131069221
0.405000000000000249,-6.490074228866594908
0.406000000000000250,-6.448444639123080080
0.407000000000000250,-6.406832367248743942
0.408000000000000251,-6.365249977488518951
0.409000000000000252,-6.323709485564129373
0.410000000000000253,-6.282222374111842811
0.411000000000000254,-6.240799607962522089
0.412000000000000255,-6.199451649249697383
0.413000000000000256,-6.158188472332795094
0.414000000000000257,-6.117019578523477108
0.415000000000000258,-6.075954010604547761
0.416000000000000258,-6.035000367131535981
0.417000000000000259,-5.994166816508295526
0.418000000000000260,-5.953461110828854430
0.419000000000000261,-5.912890599478518361
0.420000000000000262,-5.872462242488251327
0.421000000000000263,-5.832182623637078400
0.422000000000000264,-5.792057963297919443
0.423000000000000265,-5.752094131023126167
0.424000000000000266,-5.712296657866682281
0.425000000000000266,-5.672670748440398647
0.426000000000000267,-5.633221292702405236
0.427000000000000268,-5.593952877476530361
0.428000000000000269,-5.554869797701748269
0.429000000000000270,-5.515976067411484607
0.430000000000000271,-5.477275430442834825
0.431000000000000272,-5.438771370876365197
0.432000000000000273,-5.400467123207422837
0.433000000000000274,-5.362365682250361587
0.434000000000000274,-5.324469812777361533
0.435000000000000275,-5.286782058893857439
0.436000000000000276,-5.249304753152967962
0.437000000000000277,-5.212040025411377897
0.438000000000000278,-5.174989811429638209
0.439000000000000279,-5.138155861219942722
0.440000000000000280,-5.101539747144524739
0.441000000000000281,-5.065142871768285815
0.442000000000000282,-5.028966475469228925
0.443000000000000282,-4.993011643810435274
0.444000000000000283,-4.957279314677575321
0.445000000000000284,-4.921770285185947280
0.446000000000000285,-4.886485218361137584
0.447000000000000286,-4.851424649597719352
0.448000000000000287,-4.816588992900016741
0.449000000000000288,-4.781978546909594563
0.450000000000000289,-4.747593500723705340
0.451000000000000290,-4.713433939509251047
0.452000000000000290,-4.679499849916783027
0.453000000000000291,-4.645791125299002289
0.454000000000000292,-4.612307570738379603
0.455000000000000293,-4.579048907888373598
0.456000000000000294,-4.546014779632853831
0.457000000000000295,-4.513204754568240773
0.458000000000000296,-4.480618331312863134
0.459000000000000297,-4.448254942648085297
0.460000000000000298,-4.416113959495634234
0.461000000000000298,-4.384194694735545461
0.462000000000000299,-4.352496406869214240
0.463000000000000300,-4.321018303531772631
0.464000000000000301,-4.289759544858231521
0.465000000000000302,-4.258719246707556749
0.466000000000000303,-4.227896483748912360
0.467000000000000304,-4.197290292414213475
0.468000000000000305,-4.166899673721047748
0.469000000000000306,-4.136723595970021705
0.470000000000000306,-4.106760997320476392
0.471000000000000307,-4.077010788248389694
0.472000000000000308,-4.047471853890405313
0.473000000000000309,-4.018143056277623693
0.474000000000000310,-3.989023236462874600
0.475000000000000311,-3.960111216545057378
0.476000000000000312,-3.931405801594119342
0.477000000000000313,-3.902905781480035419
0.478000000000000314,-3.874609932609227148
0.479000000000000314,-3.846517019571739748
0.480000000000000315,-3.818625796702300512
0.481000000000000316,-3.790935009558548785
0.482000000000000317,-3.763443396319365863
0.483000000000000318,-3.736149689106400107
0.484000000000000319,-3.709052615231660077
0.485000000000000320,-3.682150898374045855
0.486000000000000321,-3.655443259687557678
0.487000000000000322,-3.628928418843920589
0.488000000000000322,-3.602605095012172853
0.489000000000000323,-3.576472007777874662
0.490000000000000324,-3.550527878004325011
0.491000000000000325,-3.524771428638242554
0.492000000000000326,-3.499201385462192171
0.493000000000000327,-3.473816477796116686
0.494000000000000328,-3.448615439150071182
0.495000000000000329,-3.423597007830382122
0.496000000000000330,-3.398759927501196820
0.497000000000000330,-3.374102947703558009
0.498000000000000331,-3.349624824333780282
0.499000000000000332,-3.325324320083159702
0.500000000000000333,-3.301200204840729846
0.501000000000000334,-3.277251256060820683
0.502000000000000335,-3.253476259097182410
0.503000000000000336,-3.229874007505253442
0.504000000000000337,-3.206443303314149063
0.505000000000000338,-3.183182957269944158
0.506000000000000338,-3.160091789051670652
0.507000000000000339,-3.137168627461484061
0.508000000000000340,-3.114412310590326083
0.509000000000000341,-3.091821685960465249
0.510000000000000342,-3.069395610646105332
0.511000000000000343,-3.047132951373351606
0.512000000000000344,-3.025032584600649610
0.513000000000000345,-3.003093396580866603
0.514000000000000346,-2.981314283406102383
0.515000000000000346,-2.959694151036226906
0.516000000000000347,-2.938231915312181197
0.517000000000000348,-2.916926501955029227
0.518000000000000349,-2.895776846551580519
0.519000000000000350,-2.874781894527599135
0.520000000000000351,-2.853940601109321129
0.521000000000000352,-2.833251931274196611
0.522000000000000353,-2.812714859691536784
0.523000000000000353,-2.792328370653860414
0.524000000000000354,-2.772091457999670716
0.525000000000000355,-2.752003125028252839
0.526000000000000356,-2.732062384407222932
0.527000000000000357,-2.712268258073426530
0.528000000000000358,-2.692619777127705838
0.529000000000000359,-2.673115981724214940
0.530000000000000360,-2.653755920954698588
0.531000000000000361,-2.634538652728328323
0.532000000000000361,-2.615463243647515146
0.533000000000000362,-2.596528768880205895
0.534000000000000363,-2.577734312029071884
0.535000000000000364,-2.559078964997991257
0.536000000000000365,-2.540561827856250066
0.537000000000000366,-2.522182008700812439
0.538000000000000367,-2.503938623516971607
0.539000000000000368,-2.485830796037819201
0.540000000000000369,-2.467857657602691823
0.541000000000000369,-2.450018347015054054
0.542000000000000370,-2.432312010399937385
0.543000000000000371,-2.414737801061323630
0.544000000000000372,-2.397294879339630036
0.545000000000000373,-2.379982412469579423
0.546000000000000374,-2.362799574438630756
0.547000000000000375,-2.345745545846182445
0.548000000000000376,-2.328819513763765947
0.549000000000000377,-2.312020671596357158
0.550000000000000377,-2.295348218944986307
0.551000000000000378,-2.278801361470796483
0.552000000000000379,-2.262379310760703977
0.553000000000000380,-2.246081284194755945
0.554000000000000381,-2.229906504815317270
0.555000000000000382,-2.213854201198228289
0.556000000000000383,-2.197923607325944495
0.557000000000000384,-2.182113962462868262
0.558000000000000385,-2.166424511032819744
0.559000000000000385,-2.150854502498840581
0.560000000000000386,-2.135403191245306864
0.561000000000000387,-2.120069836462460611
0.562000000000000388,-2.104853702033381957
0.563000000000000389,-2.089754056423454909
0.564000000000000390,-2.074770172572374172
0.565000000000000391,-2.059901327788697500
0.566000000000000392,-2.045146803646992417
0.567000000000000393,-2.030505885887607942
0.568000000000000393,-2.015977864319039803
0.569000000000000394,-2.001562032722935314
0.570000000000000395,-1.987257688761763008
0.571000000000000396,-1.973064133889078420
0.572000000000000397,-1.958980673262471273
0.573000000000000398,-1.945006615659106597
0.574000000000000399,-1.931141273393914615
0.575000000000000400,-1.917383962240374995
0.576000000000000401,-1.903734001353878158
0.577000000000000401,-1.890190713197704486
0.578000000000000402,-1.876753423471504423
0.579000000000000403,-1.863421461042320315
0.580000000000000404,-1.850194157878134238
0.581000000000000405,-1.837070848983842097
0.582000000000000406,-1.824050872339702867
0.583000000000000407,-1.811133568842173691
0.584000000000000408,-1.798318282247125310
0.585000000000000409,-1.785604359115399165
0.586000000000000409,-1.772991148760639346
0.587000000000000410,-1.760478003199426267
0.588000000000000411,-1.748064277103583475
0.589000000000000412,-1.735749327754704030
0.590000000000000413,-1.723532515000783860
0.591000000000000414,-1.711413201214972091
0.592000000000000415,-1.699390751256366183
0.593000000000000416,-1.687464532432801034
0.594000000000000417,-1.675633914465616714
0.595000000000000417,-1.663898269456362211
0.596000000000000418,-1.652256971855310397
0.597000000000000419,-1.640709398431888344
0.598000000000000420,-1.629254928246800294
0.599000000000000421,-1.617892942625956731
0.600000000000000422,-1.606622825136059252
0.601000000000000423,-1.595443961561824775
0.602000000000000424,-1.584355739884835801
0.603000000000000425,-1.573357550263922988
0.604000000000000425,-1.562448785017048092
0.605000000000000426,-1.551628838604671490
0.606000000000000427,-1.540897107614533246
0.607000000000000428,-1.530252990747765773
0.608000000000000429,-1.519695888806409378
0.609000000000000430,-1.509225204682126176
0.610000000000000431,-1.498840343346228510
0.611000000000000432,-1.488540711840855568
0.612000000000000433,-1.478325719271319283
0.613000000000000433,-1.468194776799569778
