# hydroxyapatite-101-ph10_PROSCA-AC
# h[nm],U(h)[kJ/mol]
0.149999999999999994,128.410709525868071523
0.150999999999999995,126.731278174428211969
0.151999999999999996,124.615467515612493798
0.152999999999999997,122.402229729353052790
0.153999999999999998,120.227802775710074457
0.154999999999999999,118.128203012700922159
0.156000000000000000,116.096280772123947145
0.157000000000000001,114.111515701731676131
0.158000000000000002,112.154021786212823031
0.159000000000000002,110.209846352202788466
0.160000000000000003,108.271819432933710914
0.161000000000000004,106.338417289283597711
0.162000000000000005,104.411991754110545116
0.163000000000000006,102.497046105861315368
0.164000000000000007,100.598848517717613049
0.165000000000000008,98.722460102896221201
0.166000000000000009,96.872147242582400395
0.167000000000000010,95.051102969510438356
0.168000000000000010,93.261391824253152549
0.169000000000000011,91.504039719452137547
0.170000000000000012,89.779204833424373078
0.171000000000000013,88.086381734969307900
0.172000000000000014,86.424605889767335043
0.173000000000000015,84.792638137756682681
0.174000000000000016,83.189118325292056966
0.175000000000000017,81.612684190608973722
0.176000000000000018,80.062056231138058138
0.177000000000000018,78.536092093992166951
0.178000000000000019,77.033815480135359621
0.179000000000000020,75.554425035983385328
0.180000000000000021,74.097288549416276737
0.181000000000000022,72.661927223744541493
0.182000000000000023,71.247994060719520348
0.183000000000000024,69.855249574380223976
0.184000000000000025,68.483537269008365911
0.185000000000000026,67.132760600107900473
0.186000000000000026,65.802862525277916461
0.187000000000000027,64.493808252429829508
0.188000000000000028,63.205571404423196213
0.189000000000000029,61.938123532880602795
0.190000000000000030,60.691426716649232276
0.191000000000000031,59.465428857377062855
0.192000000000000032,58.260061221161038247
0.193000000000000033,57.075237757322192067
0.194000000000000034,55.910855740733701680
0.195000000000000034,54.766797322220249100
0.196000000000000035,53.642931623688681952
0.197000000000000036,52.539117073950173165
0.198000000000000037,51.455203742387354282
0.199000000000000038,50.391035486870563886
0.200000000000000039,49.346451786990328969
0.201000000000000040,48.321289182094652404
0.202000000000000041,47.315382274916316874
0.203000000000000042,46.328564295469995216
0.204000000000000042,45.360667246542448083
0.205000000000000043,44.411521671961679658
0.206000000000000044,43.480956102569621180
0.207000000000000045,42.568796243217960296
0.208000000000000046,41.674863967978843959
0.209000000000000047,40.798976190930012820
0.210000000000000048,39.940943677121019562
0.211000000000000049,39.100569853371801798
0.212000000000000050,38.277649672038464246
0.213000000000000050,37.471968573367753663
0.214000000000000051,36.683301584019147867
0.215000000000000052,35.911412581156653800
0.216000000000000053,35.156053743512529763
0.217000000000000054,34.416965203240955873
0.218000000000000055,33.693874905390337915
0.219000000000000056,32.986498675548958204
0.220000000000000057,32.294540490731080240
0.221000000000000058,31.617692943910906678
0.222000000000000058,30.955637888772052690
0.223000000000000059,30.308047248208886515
0.224000000000000060,29.674583967842188770
0.225000000000000061,29.054903094244458828
0.226000000000000062,28.448652956642341394
0.227000000000000063,27.855476430504459984
0.228000000000000064,27.275012261559822946
0.229000000000000065,26.706896429348979893
0.230000000000000066,26.150763530319125039
0.231000000000000066,25.606248161664261431
0.232000000000000067,25.072986288520521470
0.233000000000000068,24.550616578696359937
0.234000000000000069,24.038781690794557733
0.235000000000000070,23.537129503322013591
0.236000000000000071,23.045314274143503752
0.237000000000000072,22.562997721381194083
0.238000000000000073,22.089850018565293510
0.239000000000000073,21.625550698478306799
0.240000000000000074,21.169789461684690224
0.241000000000000075,20.722266887189142892
0.242000000000000076,20.282695044005013330
0.243000000000000077,19.850798003635102162
0.244000000000000078,19.426312254565210935
0.245000000000000079,19.008987020845154348
0.246000000000000080,18.598584487683261557
0.247000000000000081,18.194879937710901174
0.248000000000000081,17.797661802188507352
0.249000000000000082,17.406731631928519022
0.250000000000000111,17.021903993109997799
0.251000000000000112,16.643006293462313749
0.252000000000000113,16.269878544506873652
0.253000000000000114,15.902373065677215536
0.254000000000000115,15.540354136193013090
0.255000000000000115,15.183697600553909268
0.256000000000000116,14.832290433449884404
0.257000000000000117,14.486030269764777145
0.258000000000000118,14.144824905185927832
0.259000000000000119,13.808591772731238834
0.260000000000000120,13.477257400272691257
0.261000000000000121,13.150756853878718289
0.262000000000000122,12.829033171520773493
0.263000000000000123,12.512036791398895019
0.264000000000000123,12.199724978839871170
0.265000000000000124,11.892061255415239174
0.266000000000000125,11.589014833617349964
0.267000000000000126,11.290560060124356312
0.268000000000000127,10.996675870380665074
0.269000000000000128,10.707345256922492283
0.270000000000000129,10.422554753588761045
0.271000000000000130,10.142293937478422450
0.272000000000000131,9.866554950248207945
0.273000000000000131,9.595332040089566306
0.274000000000000132,9.328621125482566612
0.275000000000000133,9.066419381597018656
0.276000000000000134,8.808724849998585071
0.277000000000000135,8.555536072120037971
0.278000000000000136,8.306851746774437828
0.279000000000000137,8.062670411819041760
0.280000000000000138,7.822990149925404424
0.281000000000000139,7.587808318271345165
0.282000000000000139,7.357121301845533701
0.283000000000000140,7.130924289943121330
0.284000000000000141,6.909211075332007290
0.285000000000000142,6.691973875482315925
0.286000000000000143,6.479203175176702523
0.287000000000000144,6.270887589755145264
0.288000000000000145,6.067013748193781808
0.289000000000000146,5.867566195174181765
0.290000000000000147,5.672527311263683814
0.291000000000000147,5.481877250301707249
0.292000000000000148,5.295593893067549018
0.293000000000000149,5.113652816294019132
0.294000000000000150,4.936027276085678928
0.295000000000000151,4.762688204801298397
0.296000000000000152,4.593604220465989485
0.297000000000000153,4.428741647789176561
0.298000000000000154,4.268064549879362346
0.299000000000000155,4.111534769765216701
0.300000000000000155,3.959111980854235213
0.301000000000000156,3.810753745484928512
0.302000000000000157,3.666415580755044257
0.303000000000000158,3.526051030837645150
0.304000000000000159,3.389611745026942291
0.305000000000000160,3.257047560787907692
0.306000000000000161,3.128306591116174040
0.307000000000000162,3.003335315548288253
0.308000000000000163,2.882078674196327572
0.309000000000000163,2.764480164214908164
0.310000000000000164,2.650481938142745797
0.311000000000000165,2.540024903594906736
0.312000000000000166,2.433048823815394002
0.313000000000000167,2.329492418632861384
0.314000000000000168,2.229293465394705187
0.315000000000000169,2.132388899486504563
0.316000000000000170,2.038714914074610807
0.317000000000000171,1.948207058739798381
0.318000000000000171,1.860800336698851698
0.319000000000000172,1.776429300338767447
0.320000000000000173,1.695028144815398097
0.321000000000000174,1.616530799493933301
0.322000000000000175,1.540871017033301760
0.323000000000000176,1.467982459940039064
0.324000000000000177,1.397798784439452380
0.325000000000000178,1.330253721533174227
0.326000000000000179,1.265281155131875668
0.327000000000000179,1.202815197171108519
0.328000000000000180,1.142790259635718453
0.329000000000000181,1.085141123434780308
0.330000000000000182,1.029803004084827389
0.331000000000000183,0.976711614173131459
0.332000000000000184,0.925803222586557339
0.333000000000000185,0.877014710503729256
0.334000000000000186,0.830283624159653399
0.335000000000000187,0.785548224402556117
0.336000000000000187,0.742747533072068089
0.337000000000000188,0.701821376236987593
0.338000000000000189,0.662710424338315729
0.339000000000000190,0.625356229290697341
0.340000000000000191,0.589701258601763589
0.341000000000000192,0.555688926574333886
0.342000000000000193,0.523263622661699679
0.343000000000000194,0.492370737050302598
0.344000000000000195,0.462956683548280512
0.345000000000000195,0.434968919861018655
0.346000000000000196,0.408355965338070948
0.347000000000000197,0.383067416277645179
0.348000000000000198,0.359053958876676016
0.349000000000000199,0.336267379915893727
0.350000000000000200,0.314660575270006571
0.351000000000000201,0.294187556333855127
0.352000000000000202,0.274803454455464002
0.353000000000000203,0.256464523466789884
0.354000000000000203,0.239128140402617095
0.355000000000000204,0.222752804497415191
0.356000000000000205,0.207298134548948021
0.357000000000000206,0.192724864736336599
0.358000000000000207,0.178994838979155885
0.359000000000000208,0.166071003922363569
0.360000000000000209,0.153917400630376011
0.361000000000000210,0.142499155071909911
0.362000000000000210,0.131782467475107967
0.363000000000000211,0.121734600630668502
0.364000000000000212,0.112323867218462409
0.365000000000000213,0.103519616231060763
0.366000000000000214,0.095292218565332570
0.367000000000000215,0.087613051851030480
0.368000000000000216,0.080454484582869676
0.369000000000000217,0.073789859620497375
0.370000000000000218,0.067593477118083278
0.371000000000000218,0.061840576943250271
0.372000000000000219,0.056507320642381308
0.373000000000000220,0.051570773007184378
0.374000000000000221,0.047008883294987938
0.375000000000000222,0.042800466152982518
0.376000000000000223,0.038925182294134331
0.377000000000000224,0.035363518970507005
0.378000000000000225,0.032096770287278087
0.379000000000000226,0.029107017398664680
0.380000000000000226,0.026377108624694490
0.381000000000000227,0.023890639525872892
0.382000000000000228,0.021631932970472167
0.383000000000000229,0.019586019227341378
0.384000000000000230,0.017738616115208217
0.385000000000000231,0.016076109237291282
0.386000000000000232,0.014585532328576978
0.387000000000000233,0.013254547740934352
0.388000000000000234,0.012071427089871634
0.389000000000000234,0.011025032084724806
0.390000000000000235,0.010104795562756142
0.391000000000000236,0.009300702745836897
0.392000000000000237,0.008603272737084566
0.393000000000000238,0.008003540273204823
0.394000000000000239,0.007493037747085473
0.395000000000000240,0.007063777513696756
0.396000000000000241,0.006708234491182808
0.397000000000000242,0.006419329067814417
0.398000000000000242,0.006190410324194673
0.399000000000000243,0.006015239579193388
0.400000000000000244,0.005887974266875861
0.401000000000000245,0.005803152150693869
0.402000000000000246,0.005755675880400535
0.403000000000000247,0.005740797896055571
0.404000000000000248,0.005754105682764976
0.405000000000000249,0.005791507378908545
0.406000000000000250,0.005849217739937984
0.407000000000000250,0.005923744458970148
0.408000000000000251,0.006011874844878484
0.409000000000000252,0.006110662857805327
0.410000000000000253,0.006217416501535932
0.411000000000000254,0.006329685571519850
0.412000000000000255,0.006445249756921623
0.413000000000000256,0.006562107094398151
0.414000000000000257,0.006678462771159577
0.415000000000000258,0.006792718274055698
0.416000000000000258,0.006903460881439827
0.417000000000000259,0.007009453493903273
0.418000000000000260,0.007109624799803882
0.419000000000000261,0.007203059771172793
0.420000000000000262,0.007288990485312041
0.421000000000000263,0.007366787267086394
0.422000000000000264,0.007435950146854875
0.423000000000000265,0.007496100628600466
0.424000000000000266,0.007546973762685827
0.425000000000000266,0.007588410517655709
0.426000000000000267,0.007620350445119018
0.427000000000000268,0.007642824631829104
0.428000000000000269,0.007655948932896362
0.429000000000000270,0.007659917479944234
0.430000000000000271,0.007654996458062025
0.431000000000000272,0.007641518145217630
0.432000000000000273,0.007619875207900284
0.433000000000000274,0.007590515246579432
0.434000000000000274,0.007553935584687510
0.435000000000000275,0.007510678294769368
0.436000000000000276,0.007461325455408873
0.437000000000000277,0.007406494632684302
0.438000000000000278,0.007346834579789885
0.439000000000000279,0.007283021148580105
0.440000000000000280,0.007215753406841196
0.441000000000000281,0.007145749955122982
0.442000000000000282,0.007073745436954359
0.443000000000000282,0.007000487236545627
0.444000000000000283,0.006926732357840848
0.445000000000000284,0.006853244479156517
0.446000000000000285,0.006780791177560719
0.447000000000000286,0.006710141317187612
0.448000000000000287,0.006642062596010123
0.449000000000000288,0.006577319245349189
0.450000000000000289,0.006516669876821757
0.451000000000000290,0.006460865471304577
0.452000000000000290,0.006410647504653743
0.453000000000000291,0.006366746205119567
0.454000000000000292,0.006329878937325751
0.455000000000000293,0.006300748707953985
0.456000000000000294,0.006280042788282136
0.457000000000000295,0.006268431448857937
0.458000000000000296,0.006266566801743756
0.459000000000000297,0.006275081745792110
0.460000000000000298,0.006294589010613394
0.461000000000000298,0.006325680294945213
0.462000000000000299,0.006368925495254507
0.463000000000000300,0.006424872020571381
0.464000000000000301,0.006494044189547604
0.465000000000000302,0.006576942705955125
0.466000000000000303,0.006674044208910013
0.467000000000000304,0.006785800894166827
0.468000000000000305,0.006912640203014164
0.469000000000000306,0.007054964575364630
0.470000000000000306,0.007213151263696795
0.471000000000000307,0.007387552204741544
0.472000000000000308,0.007578493945731286
0.473000000000000309,0.007786277622263410
0.474000000000000310,0.008011178984891325
0.475000000000000311,0.008253448471618885
0.476000000000000312,0.008513311323599592
0.477000000000000313,0.008790967741449301
0.478000000000000314,0.009086593079654353
0.479000000000000314,0.009400338076605697
0.480000000000000315,0.009732329117997563
0.481000000000000316,0.010082668531241522
0.482000000000000317,0.010451434908831681
0.483000000000000318,0.010838683458478127
0.484000000000000319,0.011244446378084649
0.485000000000000320,0.011668733253586517
0.486000000000000321,0.012111531477830218
0.487000000000000322,0.012572806688703286
0.488000000000000322,0.013052503224867262
0.489000000000000323,0.013550544597357717
0.490000000000000324,0.014066833975606929
0.491000000000000325,0.014601254686317655
0.492000000000000326,0.015153670723824031
0.493000000000000327,0.015723927270505401
0.494000000000000328,0.016311851226024500
0.495000000000000329,0.016917251744094620
0.496000000000000330,0.017539920775655249
0.497000000000000330,0.018179633617232117
0.498000000000000331,0.018836149463563510
0.499000000000000332,0.019509211963310125
0.500000000000000333,0.020198549776998354
0.501000000000000334,0.020903877136260029
0.502000000000000335,0.021624894403472705
0.503000000000000336,0.022361288631004773
0.504000000000000337,0.023112734119288648
0.505000000000000338,0.023878892972996300
0.506000000000000338,0.024659415654617333
0.507000000000000339,0.025453941534798408
0.508000000000000340,0.026262099438861021
0.509000000000000341,0.027083508188856076
0.510000000000000342,0.027917777140722900
0.511000000000000343,0.028764506715961667
0.512000000000000344,0.029623288927422366
0.513000000000000345,0.030493707898740507
0.514000000000000346,0.031375340377010841
0.515000000000000346,0.032267756238375453
0.516000000000000347,0.033170518986150622
0.517000000000000348,0.034083186241149185
0.518000000000000349,0.035005310223991407
0.519000000000000350,0.035936438229057545
0.520000000000000351,0.036876113089910081
0.521000000000000352,0.037823873635904601
0.522000000000000353,0.038779255139874458
0.523000000000000353,0.039741789756653878
0.524000000000000354,0.040711006952308205
0.525000000000000355,0.041686433923955282
0.526000000000000356,0.042667596010062578
0.527000000000000357,0.043654017091077947
0.528000000000000358,0.044645219980402183
0.529000000000000359,0.045640726805540141
0.530000000000000360,0.046640059379487231
0.531000000000000361,0.047642739562213057
0.532000000000000361,0.048648289612320796
0.533000000000000362,0.049656232528792366
0.534000000000000363,0.050666092382894101
0.535000000000000364,0.051677394640201865
0.536000000000000365,0.052689666472827398
0.537000000000000366,0.053702437061831573
0.538000000000000367,0.054715237889936395
0.539000000000000368,0.055727603024510942
0.540000000000000369,0.056739069390995843
0.541000000000000369,0.057749177036729681
0.542000000000000370,0.058757469385380290
0.543000000000000371,0.059763493481962728
0.544000000000000372,0.060766800228601391
0.545000000000000373,0.061766944611119756
0.546000000000000374,0.062763485916562528
0.547000000000000375,0.063755987941782874
0.548000000000000376,0.064744019193164165
0.549000000000000377,0.065727153077661166
0.550000000000000377,0.066704968085237043
0.551000000000000378,0.067677047962851414
0.552000000000000379,0.068642981880120996
0.553000000000000380,0.069602364586792781
0.554000000000000381,0.070554796562183067
0.555000000000000382,0.071499884156673590
0.556000000000000383,0.072437239725499952
0.557000000000000384,0.073366481754854787
0.558000000000000385,0.074287234980583497
0.559000000000000385,0.075199130499512296
0.560000000000000386,0.076101805873622877
0.561000000000000387,0.076994905227198568
0.562000000000000388,0.077878079337108330
0.563000000000000389,0.078750985716348573
0.564000000000000390,0.079613288691040299
0.565000000000000391,0.080464659470998456
0.566000000000000392,0.081304776214044305
0.567000000000000393,0.082133324084186651
0.568000000000000393,0.082949995303870219
0.569000000000000394,0.083754489200398324
0.570000000000000395,0.084546512246690145
0.571000000000000396,0.085325778096550509
0.572000000000000397,0.086092007614551158
0.573000000000000398,0.086844928900724178
0.574000000000000399,0.087584277310160941
0.575000000000000400,0.088309795467721025
0.576000000000000401,0.089021233277950779
0.577000000000000401,0.089718347930345013
0.578000000000000402,0.090400903900147614
0.579000000000000403,0.091068672944797480
0.580000000000000404,0.091721434096119839
0.581000000000000405,0.092358973648491244
0.582000000000000406,0.092981085143016992
0.583000000000000407,0.093587569347923449
0.584000000000000408,0.094178234235251651
0.585000000000000409,0.094752894954013470
0.586000000000000409,0.095311373799919080
0.587000000000000410,0.095853500181787329
0.588000000000000411,0.096379110584818656
0.589000000000000412,0.096888048530763785
0.590000000000000413,0.097380164535200639
0.591000000000000414,0.097855316061969025
0.592000000000000415,0.098313367474897523
0.593000000000000416,0.098754189986956509
0.594000000000000417,0.099177661606929535
0.595000000000000417,0.099583667083680716
0.596000000000000418,0.099972097848213551
0.597000000000000419,0.100342851953507534
0.598000000000000420,0.100695834012350077
0.599000000000000421,0.101030955133170550
0.600000000000000422,0.101348132854029882
0.601000000000000423,0.101647291074854887
0.602000000000000424,0.101928359987985107
0.603000000000000425,0.102191276007133763
0.604000000000000425,0.102435981694889697
0.605000000000000426,0.102662425688792691
0.606000000000000427,0.102870562626075746
0.607000000000000428,0.103060353067235072
0.608000000000000429,0.103231763418350650
0.609000000000000430,0.103384765852443689
0.610000000000000431,0.103519338229736621
0.611000000000000432,0.103635464017055187
0.612000000000000433,0.103733132206367901
0.613000000000000433,0.103812337232522769
0.614000000000000434,0.103873078890307238
0.615000000000000435,0.103915362250852211
0.616000000000000436,0.103939197577474204
0.617000000000000437,0.103944600240971366
0.618000000000000438,0.103931590634503898
0.619000000000000439,0.103900194088082376
0.620000000000000440,0.103850440782698478
