# hydroxyapatite-101-ph10_CS-6110-AC
# h[nm],U(h)[kJ/mol]
0.149999999999999994,64.062284632121347272
0.150999999999999995,62.387639192592850179
0.151999999999999996,60.915176088124361797
0.152999999999999997,59.502625546568495452
0.153999999999999998,58.095756427649028808
0.154999999999999999,56.682514496105895319
0.156000000000000000,55.268160884205428829
0.157000000000000001,53.862714644246864282
0.158000000000000002,52.475325672306759373
0.159000000000000002,51.112337365968002700
0.160000000000000003,49.777146031512785385
0.161000000000000004,48.470798708654889708
0.162000000000000005,47.192775066566376552
0.163000000000000006,45.941693268635809488
0.164000000000000007,44.715843544396875586
0.165000000000000008,43.513538032946861733
0.166000000000000009,42.333304036268103232
0.167000000000000010,41.173960624769904371
0.168000000000000010,40.034618053260999204
0.169000000000000011,38.914633023725251348
0.170000000000000012,37.813544591541543127
0.171000000000000013,36.731007589711566652
0.172000000000000014,35.666733797595028932
0.173000000000000015,34.620445994665473677
0.174000000000000016,33.591846452513458132
0.175000000000000017,32.580599105418052375
0.176000000000000018,31.586323325622544189
0.177000000000000018,30.608596645908495049
0.178000000000000019,29.646963686666044424
0.179000000000000020,28.700948770393871712
0.180000000000000021,27.770070101840893528
0.181000000000000022,26.853853855594643107
0.182000000000000023,25.951846976963850011
0.183000000000000024,25.063627924697890137
0.184000000000000025,24.188814943028642546
0.185000000000000026,23.327071737033254095
0.186000000000000026,22.478110639876735632
0.187000000000000027,21.641693509224733560
0.188000000000000028,20.817630682188614344
0.189000000000000029,20.005778363967330336
0.190000000000000030,19.206034835258542159
0.191000000000000031,18.418335847127700333
0.192000000000000032,17.642649537749569788
0.193000000000000033,16.878971160287399300
0.194000000000000034,16.127317860769323943
0.195000000000000034,15.387723693450990226
0.196000000000000035,14.660235011941647798
0.197000000000000036,13.944906329432987135
0.198000000000000037,13.241796701998088892
0.199000000000000038,12.550966655759953738
0.200000000000000039,11.872475651906004401
0.201000000000000040,11.206380062823390276
0.202000000000000041,10.552731617580866086
0.203000000000000042,9.911576264962786098
0.204000000000000042,9.282953396561854476
0.205000000000000043,8.666895370333614679
0.206000000000000044,8.063427275790411741
0.207000000000000045,7.472566885001310943
0.208000000000000046,6.894324738161168753
0.209000000000000047,6.328704318167979181
0.210000000000000048,5.775702274950387682
0.211000000000000049,5.235308666844187719
0.212000000000000050,4.707507192825618247
0.213000000000000050,4.192275395642136360
0.214000000000000051,3.689584821663504322
0.215000000000000052,3.199401128492914026
0.216000000000000053,2.721684135955908523
0.217000000000000054,2.256387819989045695
0.218000000000000055,1.803460252176481093
0.219000000000000056,1.362843490250717160
0.220000000000000057,0.934473426817528763
0.221000000000000058,0.518279604939750782
0.222000000000000058,0.114185010070712772
0.223000000000000059,-0.277894151764311204
0.224000000000000060,-0.658048679622521226
0.225000000000000061,-1.026376597522897782
0.226000000000000062,-1.382983359507163001
0.227000000000000063,-1.727982031611754676
0.228000000000000064,-2.061493443403897174
0.229000000000000065,-2.383646302763475777
0.230000000000000066,-2.694577268681064730
0.231000000000000066,-2.994430977957505124
0.232000000000000067,-3.283360022797812583
0.233000000000000068,-3.561524877368420050
0.234000000000000069,-3.829093772409346563
0.235000000000000070,-4.086242517946526931
0.236000000000000071,-4.333154275021231072
0.237000000000000072,-4.570019278136252971
0.238000000000000073,-4.797034510805586294
0.239000000000000073,-5.014403337183955145
0.240000000000000074,-5.222335093245973781
0.241000000000000075,-5.421044641381788765
0.242000000000000076,-5.610751892581904876
0.243000000000000077,-5.791681300603471527
0.244000000000000078,-5.964061332648373792
0.245000000000000079,-6.128123921147770048
0.246000000000000080,-6.284103901244042945
0.247000000000000081,-6.432238438498262489
0.248000000000000081,-6.572766451234668850
0.249000000000000082,-6.705928031771906106
0.250000000000000111,-6.831963870590540111
0.251000000000000112,-6.951114687253850732
0.252000000000000113,-7.063620671641773541
0.253000000000000114,-7.169720938779834185
0.254000000000000115,-7.269653000254666431
0.255000000000000115,-7.363652254906760675
0.256000000000000116,-7.451951501187082272
0.257000000000000117,-7.534780473259101718
0.258000000000000118,-7.612365402625873578
0.259000000000000119,-7.684928606766580295
0.260000000000000120,-7.752688105980604760
0.261000000000000121,-7.815857269361586646
0.262000000000000122,-7.874644490562078936
0.263000000000000123,-7.929252893761395526
0.264000000000000123,-7.979880070017349780
0.265000000000000124,-8.026717843966681087
0.266000000000000125,-8.069952070640518116
0.267000000000000126,-8.109762461979466153
0.268000000000000127,-8.146322442469067227
0.269000000000000128,-8.179799033169240730
0.270000000000000129,-8.210352763281278499
0.271000000000000130,-8.238137608282517732
0.272000000000000131,-8.263300953561067530
0.273000000000000131,-8.285983582400543668
0.274000000000000132,-8.306319687096902271
0.275000000000000133,-8.324436901935388988
0.276000000000000134,-8.340456356714401664
0.277000000000000135,-8.354492749473696023
0.278000000000000136,-8.366654437066673111
0.279000000000000137,-8.377043542208429727
0.280000000000000138,-8.385756075633139517
0.281000000000000139,-8.392882072004326233
0.282000000000000139,-8.398505738239562035
0.283000000000000140,-8.402705612935719159
0.284000000000000141,-8.405554735611612927
0.285000000000000142,-8.407120824520969649
0.286000000000000143,-8.407466461829073978
0.287000000000000144,-8.406649284990837856
0.288000000000000145,-8.404722183215929121
0.289000000000000146,-8.401733497956360708
0.290000000000000147,-8.397727226404688494
0.291000000000000147,-8.392743227044425325
0.292000000000000148,-8.386817426349324478
0.293000000000000149,-8.379982025783563770
0.294000000000000150,-8.372265708310495214
0.295000000000000151,-8.363693843673253525
0.296000000000000152,-8.354288691765388464
0.297000000000000153,-8.344069603464154383
0.298000000000000154,-8.333053218352180380
0.299000000000000155,-8.321253658805375153
0.300000000000000155,-8.308682719975557518
0.301000000000000156,-8.295350055245160448
0.302000000000000157,-8.281263356778802986
0.303000000000000158,-8.266428530841915645
0.304000000000000159,-8.250849867600114962
0.305000000000000160,-8.234530205154541704
0.306000000000000161,-8.217471087607862046
0.307000000000000162,-8.199672916993090865
0.308000000000000163,-8.181135098932584171
0.309000000000000163,-8.161856181927827691
0.310000000000000164,-8.141833990211768679
0.311000000000000165,-8.121065750124415672
0.312000000000000166,-8.099548209999548831
0.313000000000000167,-8.077277753575303976
0.314000000000000168,-8.054250506964468315
0.315000000000000169,-8.030462439241542683
0.316000000000000170,-8.005909456722910988
0.317000000000000171,-7.980587491034055958
0.318000000000000171,-7.954492581073462354
0.319000000000000172,-7.927620948997338601
0.320000000000000173,-7.899969070361602341
0.321000000000000174,-7.871533738568975203
0.322000000000000175,-7.842312123778617305
0.323000000000000176,-7.812301826444223884
0.324000000000000177,-7.781500925653537237
0.325000000000000178,-7.749908022448154910
0.326000000000000179,-7.717522278307457739
0.327000000000000179,-7.684343448984018110
0.328000000000000180,-7.650371913880722907
0.329000000000000181,-7.615608701161876937
0.330000000000000182,-7.580055508791120999
0.331000000000000183,-7.543714721689829261
0.332000000000000184,-7.506589425208638033
0.333000000000000185,-7.468683415103967604
0.334000000000000186,-7.430001204209531807
0.335000000000000187,-7.390548025990559822
0.336000000000000187,-7.350329835165775094
0.337000000000000188,-7.309353305578786930
0.338000000000000189,-7.267625825497225023
0.339000000000000190,-7.225155490513803791
0.340000000000000191,-7.181951094219217069
0.341000000000000192,-7.138022116812598128
0.342000000000000193,-7.093378711810034432
0.343000000000000194,-7.048031691007231814
0.344000000000000195,-7.001992507846871661
0.345000000000000195,-6.955273239336447588
0.346000000000000196,-6.907886566656671334
0.347000000000000197,-6.859845754595426115
0.348000000000000198,-6.811164629936806492
0.349000000000000199,-6.761857558929159850
0.350000000000000200,-6.711939423950900263
0.351000000000000201,-6.661425599487197147
0.352000000000000202,-6.610331927525344042
0.353000000000000203,-6.558674692471386791
0.354000000000000203,-6.506470595685128089
0.355000000000000204,-6.453736729725555676
0.356000000000000205,-6.400490552393629962
0.357000000000000206,-6.346749860654405495
0.358000000000000207,-6.292532764515368804
0.359000000000000208,-6.237857660933395110
0.360000000000000209,-6.182743207817859243
0.361000000000000210,-6.127208298192937441
0.362000000000000210,-6.071272034577845034
0.363000000000000211,-6.014953703639340787
0.364000000000000212,-5.958272751166925119
0.365000000000000213,-5.901248757416911239
0.366000000000000214,-5.843901412868000023
0.367000000000000215,-5.786250494427048530
0.368000000000000216,-5.728315842120416335
0.369000000000000217,-5.670117336302663347
0.370000000000000218,-5.611674875411301500
0.371000000000000218,-5.553008354293035076
0.372000000000000219,-5.494137643124101800
0.373000000000000220,-5.435082566944399396
0.374000000000000221,-5.375862885822463966
0.375000000000000222,-5.316498275665727746
0.376000000000000223,-5.257008309688176340
0.377000000000000224,-5.197412440545148726
0.378000000000000225,-5.137729983142916623
0.379000000000000226,-5.077980098128550779
0.380000000000000226,-5.018181776063881827
0.381000000000000227,-4.958353822285220147
0.382000000000000228,-4.898514842449180229
0.383000000000000229,-4.838683228763142274
0.384000000000000230,-4.778877146897417383
0.385000000000000231,-4.719114523575047571
0.386000000000000232,-4.659413034833567835
0.387000000000000233,-4.599790094952183495
0.388000000000000234,-4.540262846036507760
0.389000000000000234,-4.480848148252250418
0.390000000000000235,-4.421562570698057471
0.391000000000000236,-4.362422382907167773
0.392000000000000237,-4.303443546966536637
0.393000000000000238,-4.244641710241657151
0.394000000000000239,-4.186032198694452866
0.395000000000000240,-4.127630010781263792
0.396000000000000241,-4.069449811917443149
0.397000000000000242,-4.011505929494517453
0.398000000000000242,-3.953812348435761237
0.399000000000000243,-3.896382707275500845
0.400000000000000244,-3.839230294747290717
0.401000000000000245,-3.782368046866019906
0.402000000000000246,-3.725808544488641072
0.403000000000000247,-3.669564011338196874
0.404000000000000248,-3.613646312475818689
0.405000000000000249,-3.558066953205202054
0.406000000000000250,-3.502837078394111181
0.407000000000000250,-3.447967472197546179
0.408000000000000251,-3.393468558167126226
0.409000000000000252,-3.339350399731542129
0.410000000000000253,-3.285622701032796300
0.411000000000000254,-3.232294808103303385
0.412000000000000255,-3.179375710368931962
0.413000000000000256,-3.126874042463361203
0.414000000000000257,-3.074798086339184167
0.415000000000000258,-3.023155773661587276
0.416000000000000258,-2.971954688470497707
0.417000000000000259,-2.921202070097415504
0.418000000000000260,-2.870904816323434527
0.419000000000000261,-2.821069486765099832
0.420000000000000262,-2.771702306475181565
0.421000000000000263,-2.722809169745628033
0.422000000000000264,-2.674395644100264313
0.423000000000000265,-2.626466974465112791
0.424000000000000266,-2.579028087504585010
0.425000000000000266,-2.532083596111952772
0.426000000000000267,-2.485637804042949206
0.427000000000000268,-2.439694710681621359
0.428000000000000269,-2.394258015927833050
0.429000000000000270,-2.349331125196235881
0.430000000000000271,-2.304917154516687106
0.431000000000000272,-2.261018935726573531
0.432000000000000273,-2.217639021745704042
0.433000000000000274,-2.174779691924805913
0.434000000000000274,-2.132442957458912325
0.435000000000000275,-2.090630566857325956
0.436000000000000276,-2.049344011462085113
0.437000000000000277,-2.008584531007125751
0.438000000000000278,-1.968353119210766611
0.439000000000000279,-1.928650529394311919
0.440000000000000280,-1.889477280119880476
0.441000000000000281,-1.850833660840918382
0.442000000000000282,-1.812719737559090216
0.443000000000000282,-1.775135358481476855
0.444000000000000283,-1.738080159672380720
0.445000000000000284,-1.701553570694236628
0.446000000000000285,-1.665554820232321820
0.447000000000000286,-1.630082941698449917
0.448000000000000287,-1.595136778808729616
0.449000000000000288,-1.560714991131069151
0.450000000000000289,-1.526816059598071096
0.451000000000000290,-1.493438291981335819
0.452000000000000290,-1.460579828323393725
0.453000000000000291,-1.428238646323661154
0.454000000000000292,-1.396412566675084621
0.455000000000000293,-1.365099258348278388
0.456000000000000294,-1.334296243820249694
0.457000000000000295,-1.304000904244891235
0.458000000000000296,-1.274210484562710022
0.459000000000000297,-1.244922098547376121
0.460000000000000298,-1.216132733786867259
0.461000000000000298,-1.187839256597180704
0.462000000000000299,-1.160038416866721267
0.463000000000000300,-1.132726852829616826
0.464000000000000301,-1.105901095766422149
0.465000000000000302,-1.079557574630779282
0.466000000000000303,-1.053692620600723995
0.467000000000000304,-1.028302471553499631
0.468000000000000305,-1.003383276462911811
0.469000000000000306,-0.978931099718235886
0.470000000000000306,-0.954941925364019006
0.471000000000000307,-0.931411661260008517
0.472000000000000308,-0.908336143160780929
0.473000000000000309,-0.885711138714518897
0.474000000000000310,-0.863532351380693952
0.475000000000000311,-0.841795424266344128
0.476000000000000312,-0.820495943880884759
0.477000000000000313,-0.799629443809280027
0.478000000000000314,-0.779191408303698485
0.479000000000000314,-0.759177275793729178
0.480000000000000315,-0.739582442315301902
0.481000000000000316,-0.720402264858626795
0.482000000000000317,-0.701632064635418606
0.483000000000000318,-0.683267130265835410
0.484000000000000319,-0.665302720885528109
0.485000000000000320,-0.647734069173377613
0.486000000000000321,-0.630556384300396955
0.487000000000000322,-0.613764854800469051
0.488000000000000322,-0.597354651363530165
0.489000000000000323,-0.581320929551952803
0.490000000000000324,-0.565658832440819159
0.491000000000000325,-0.550363493182913333
0.492000000000000326,-0.535430037499201150
0.493000000000000327,-0.520853586095705978
0.494000000000000328,-0.506629257007626732
0.495000000000000329,-0.492752167871617630
0.496000000000000330,-0.479217438127184092
0.497000000000000330,-0.466020191148138196
0.498000000000000331,-0.453155556305109286
0.499000000000000332,-0.440618670960125747
0.500000000000000333,-0.428404682394265213
0.501000000000000334,-0.416508749669439404
0.502000000000000335,-0.404926045425346159
0.503000000000000336,-0.393651757612682229
0.504000000000000337,-0.382681091163653231
0.505000000000000338,-0.372009269600912018
0.506000000000000338,-0.361631536585991953
0.507000000000000339,-0.351543157408332418
0.508000000000000340,-0.341739420416025119
0.509000000000000341,-0.332215638389371903
0.510000000000000342,-0.322967149858370106
0.511000000000000343,-0.313989320365231361
0.512000000000000344,-0.305277543673059815
0.513000000000000345,-0.296827242921785528
0.514000000000000346,-0.288633871732476954
0.515000000000000346,-0.280692915261120557
0.516000000000000347,-0.272999891202974965
0.517000000000000348,-0.265550350748625485
0.518000000000000349,-0.258339879492762603
0.519000000000000350,-0.251364098296837146
0.520000000000000351,-0.244618664106639905
0.521000000000000352,-0.238099270725862677
0.522000000000000353,-0.231801649546729299
0.523000000000000353,-0.225721570238714003
0.524000000000000354,-0.219854841396431244
0.525000000000000355,-0.214197311147683811
0.526000000000000356,-0.208744867722718108
0.527000000000000357,-0.203493439985696772
0.528000000000000358,-0.198438997929360317
0.529000000000000359,-0.193577553133893493
0.530000000000000360,-0.188905159190953464
0.531000000000000361,-0.184417912093829239
0.532000000000000361,-0.180111950594661729
0.533000000000000362,-0.175983456529691135
0.534000000000000363,-0.172028655113425716
0.535000000000000364,-0.168243815202641533
0.536000000000000365,-0.164625249531131113
0.537000000000000366,-0.161169314916050993
0.538000000000000367,-0.157872412436746573
0.539000000000000368,-0.154730987586921109
0.540000000000000369,-0.151741530400950037
0.541000000000000369,-0.148900575555199782
0.542000000000000370,-0.146204702445145412
0.543000000000000371,-0.143650535239061766
0.544000000000000372,-0.141234742909111477
0.545000000000000373,-0.138954039240545696
0.546000000000000374,-0.136805182819805166
0.547000000000000375,-0.134784977002227108
0.548000000000000376,-0.132890269860118537
0.549000000000000377,-0.131117954111857421
0.550000000000000377,-0.129464967032733885
0.551000000000000378,-0.127928290348233525
0.552000000000000379,-0.126504950110371134
0.553000000000000380,-0.125192016557784613
0.554000000000000381,-0.123986603960175801
0.555000000000000382,-0.122885870447752427
0.556000000000000383,-0.121887017826252969
0.557000000000000384,-0.120987291378173920
0.558000000000000385,-0.120183979650753184
0.559000000000000385,-0.119474414231303228
0.560000000000000386,-0.118855969510409734
0.561000000000000387,-0.118326062433581389
0.562000000000000388,-0.117882152241842397
0.563000000000000389,-0.117521740201792735
0.564000000000000390,-0.117242369325637738
0.565000000000000391,-0.117041624081679799
0.566000000000000392,-0.116917130095735539
0.567000000000000393,-0.116866553843956764
0.568000000000000393,-0.116887602337488267
0.569000000000000394,-0.116978022799431550
0.570000000000000395,-0.117135602334500710
0.571000000000000396,-0.117358167591822909
0.572000000000000397,-0.117643584421280312
0.573000000000000398,-0.117989757523758870
0.574000000000000399,-0.118394630095738321
0.575000000000000400,-0.118856183468535617
0.576000000000000401,-0.119372436742613136
0.577000000000000401,-0.119941446417271808
0.578000000000000402,-0.120561306016085432
0.579000000000000403,-0.121230145708385445
0.580000000000000404,-0.121946131927145124
0.581000000000000405,-0.122707466983551949
0.582000000000000406,-0.123512388678568202
0.583000000000000407,-0.124359169911795034
0.584000000000000408,-0.125246118287885372
0.585000000000000409,-0.126171575720807089
0.586000000000000409,-0.127133918036215848
0.587000000000000410,-0.128131554572180895
0.588000000000000411,-0.129162927778523950
0.589000000000000412,-0.130226512815002970
0.590000000000000413,-0.131320817148574048
0.591000000000000414,-0.132444380149951163
0.592000000000000415,-0.133595772689684533
0.593000000000000416,-0.134773596733958223
0.594000000000000417,-0.135976484940311448
0.595000000000000417,-0.137203100253472127
0.596000000000000418,-0.138452135501494822
0.597000000000000419,-0.139722312992372533
0.598000000000000420,-0.141012384111301736
0.599000000000000421,-0.142321128918760864
0.600000000000000422,-0.143647355749566386
0.601000000000000423,-0.144989900813050882
0.602000000000000424,-0.146347627794513685
0.603000000000000425,-0.147719427458094549
0.604000000000000425,-0.149104217251180698
0.605000000000000426,-0.150500940910493625
0.606000000000000427,-0.151908568069989980
0.607000000000000428,-0.153326093870648189
0.608000000000000429,-0.154752538572327264
0.609000000000000430,-0.156186947167711615
0.610000000000000431,-0.157628388998544061
0.611000000000000432,-0.159075957374164495
0.612000000000000433,-0.160528769192479132
0.613000000000000433,-0.161985964563470197
