# hydroxyapatite-101-ph10_CS-7021-AC
# h[nm],U(h)[kJ/mol]
0.149999999999999994,109.213864631805151362
0.150999999999999995,107.298394958717011605
0.151999999999999996,104.963251765071390764
0.152999999999999997,102.598816239196963807
0.153999999999999998,100.340119371187597608
0.154999999999999999,98.204073422000263349
0.156000000000000000,96.162992668786074546
0.157000000000000001,94.180812553366450857
0.158000000000000002,92.228404109179109582
0.159000000000000002,90.287904861882026353
0.160000000000000003,88.351867235490956887
0.161000000000000004,86.420457112886552409
0.162000000000000005,84.498375756879411824
0.163000000000000006,82.592264394028305219
0.164000000000000007,80.708841654665093301
0.165000000000000008,78.853762256889211812
0.166000000000000009,77.031069363892370916
0.167000000000000010,75.243078825631499740
0.168000000000000010,73.490541530747975685
0.169000000000000011,71.772956806932000973
0.170000000000000012,70.088941864659545899
0.171000000000000013,68.436592669909288134
0.172000000000000014,66.813797174004434964
0.173000000000000015,65.218481550503014432
0.174000000000000016,63.648784206510740091
0.175000000000000017,62.103161629094586260
0.176000000000000018,60.580435572356044815
0.177000000000000018,59.079793654350645227
0.178000000000000019,57.600755972081287837
0.179000000000000020,56.143119562890717589
0.180000000000000021,54.706890991029034410
0.181000000000000022,53.292215425009736407
0.182000000000000023,51.899308578814540738
0.183000000000000024,50.528396004092449800
0.184000000000000025,49.179662551654303115
0.185000000000000026,47.853213423478635491
0.186000000000000026,46.549047126599802482
0.187000000000000027,45.267039807098811366
0.188000000000000028,44.006939859506374546
0.189000000000000029,42.768371339378575158
0.190000000000000030,41.550844516626170844
0.191000000000000031,40.353771856863161815
0.192000000000000032,39.176487772838768819
0.193000000000000033,38.018270617219130258
0.194000000000000034,36.878365565512616797
0.195000000000000034,35.756007242414668212
0.196000000000000035,34.650441159416160986
0.197000000000000036,33.560943243369081301
0.198000000000000037,32.486836935596187459
0.199000000000000038,31.427507522824527086
0.200000000000000039,30.382413520946535357
0.201000000000000040,29.351095068542214506
0.202000000000000041,28.333179398918069580
0.203000000000000042,27.328383547925898966
0.204000000000000042,26.336514521584454940
0.205000000000000043,25.357467194617168360
0.206000000000000044,24.391220240793920482
0.207000000000000045,23.437830410904318512
0.208000000000000046,22.497425476751068629
0.209000000000000047,21.570196152093764397
0.210000000000000048,20.656387286180645901
0.211000000000000049,19.756288604358299921
0.212000000000000050,18.870225244989079272
0.213000000000000050,17.998548314049749308
0.214000000000000051,17.141625649600179315
0.215000000000000052,16.299832958855162701
0.216000000000000053,15.473545461710665805
0.217000000000000054,14.663130146925249520
0.218000000000000055,13.868938721232405342
0.219000000000000056,13.091301307809279919
0.220000000000000057,12.330520928971271388
0.221000000000000058,11.586868788830637200
0.222000000000000058,10.860580354974697315
0.223000000000000059,10.151852223964429101
0.224000000000000060,9.460839743533714596
0.225000000000000061,8.787655354661950469
0.226000000000000062,8.132367609042322698
0.227000000000000063,7.495000811701723720
0.228000000000000064,6.875535234463315604
0.229000000000000065,6.273907843387064531
0.230000000000000066,5.690013482094707697
0.231000000000000066,5.123706452795678601
0.232000000000000067,4.574802437709768910
0.233000000000000068,4.043080705263720986
0.234000000000000069,3.528286547773170412
0.235000000000000070,3.030133900168286765
0.236000000000000071,2.548308092557924454
0.237000000000000072,2.082468692938894250
0.238000000000000073,1.632252400049285512
0.239000000000000073,1.197275950151105661
0.240000000000000074,0.777139005332958321
0.241000000000000075,0.371426994690779444
0.242000000000000076,-0.020286116580707159
0.243000000000000077,-0.398435151611606364
0.244000000000000078,-0.763461157844312011
0.245000000000000079,-1.115808969447684262
0.246000000000000080,-1.455924908042457222
0.247000000000000081,-1.784254630865680369
0.248000000000000081,-2.101241132971196190
0.249000000000000082,-2.407322907762658115
0.250000000000000111,-2.702932268083794387
0.251000000000000112,-2.988493828241850281
0.252000000000000113,-3.264423145710148244
0.253000000000000114,-3.531125519831543436
0.254000000000000115,-3.788994943621000200
0.255000000000000115,-4.038413203725928824
0.256000000000000116,-4.279749122738954803
0.257000000000000117,-4.513357937354447458
0.258000000000000118,-4.739580805304713707
0.259000000000000119,-4.958744433592231715
0.260000000000000120,-5.171160820237230560
0.261000000000000121,-5.377127101571834267
0.262000000000000122,-5.576925497023222711
0.263000000000000123,-5.770823343324539501
0.264000000000000123,-5.959073210165120926
0.265000000000000124,-6.141913089428748584
0.266000000000000125,-6.319566650362225424
0.267000000000000126,-6.492243553256047406
0.268000000000000127,-6.660139814497886057
0.269000000000000128,-6.823438216168736581
0.270000000000000129,-6.982308753685508407
0.271000000000000130,-7.136909115345837051
0.272000000000000131,-7.287385187995274016
0.273000000000000131,-7.433871583409339401
0.274000000000000132,-7.576492180358314954
0.275000000000000133,-7.715360677698191338
0.276000000000000134,-7.850581154202463274
0.277000000000000135,-7.982248631214359236
0.278000000000000136,-8.110449634555566334
0.279000000000000137,-8.235262752472447545
0.280000000000000138,-8.356759186733480504
0.281000000000000139,-8.475003294310752722
0.282000000000000139,-8.590053117382117520
0.283000000000000140,-8.701960899679423989
0.284000000000000141,-8.810773587480307256
0.285000000000000142,-8.916533313797353699
0.286000000000000143,-9.019277864557732727
0.287000000000000144,-9.119041125789383528
0.288000000000000145,-9.215853511036861789
0.289000000000000146,-9.309742368420090841
0.290000000000000147,-9.400732366924893668
0.291000000000000147,-9.488845861673475213
0.292000000000000148,-9.574103238068834898
0.293000000000000149,-9.656523234837745662
0.294000000000000150,-9.736123246115013785
0.295000000000000151,-9.812919602816640108
0.296000000000000152,-9.886927833642317864
0.297000000000000153,-9.958162906129324199
0.298000000000000154,-10.026639448250502795
0.299000000000000155,-10.092371951109916139
0.300000000000000155,-10.155374953341095079
0.301000000000000156,-10.215663207855552486
0.302000000000000157,-10.273251831624062191
0.303000000000000158,-10.328156439200446570
0.304000000000000159,-10.380393260718440374
0.305000000000000160,-10.429979245106329344
0.306000000000000161,-10.476932149273213923
0.307000000000000162,-10.521270614024400558
0.308000000000000163,-10.563014227462574013
0.309000000000000163,-10.602183576626689643
0.310000000000000164,-10.638800288112085113
0.311000000000000165,-10.672887058403428995
0.312000000000000166,-10.704467674638170394
0.313000000000000167,-10.733567026500779207
0.314000000000000168,-10.760211109929596063
0.315000000000000169,-10.784427023297215698
0.316000000000000170,-10.806242956703437486
0.317000000000000171,-10.825688174996416890
0.318000000000000171,-10.842792995113423871
0.319000000000000172,-10.857588758308020616
0.320000000000000173,-10.870107797804756444
0.321000000000000174,-10.880383402396983428
0.322000000000000175,-10.888449776477633790
0.323000000000000176,-10.894341996966840469
0.324000000000000177,-10.898095967574894516
0.325000000000000178,-10.899748370813256315
0.326000000000000179,-10.899336618141976629
0.327000000000000179,-10.896898798616641457
0.328000000000000180,-10.892473626374442830
0.329000000000000181,-10.886100387275618573
0.330000000000000182,-10.877818884993384785
0.331000000000000183,-10.867669386824037048
0.332000000000000184,-10.855692569467283448
0.333000000000000185,-10.841929465006602484
0.334000000000000186,-10.826421407299699595
0.335000000000000187,-10.809209978970432786
0.336000000000000187,-10.790336959175558462
0.337000000000000188,-10.769844272302321997
0.338000000000000189,-10.747773937737054695
0.339000000000000190,-10.724168020829035086
0.340000000000000191,-10.699068585159412947
0.341000000000000192,-10.672517646211357345
0.342000000000000193,-10.644557126524176738
0.343000000000000194,-10.615228812402374814
0.344000000000000195,-10.584574312238666849
0.345000000000000195,-10.552635016499777976
0.346000000000000196,-10.519452059413342937
0.347000000000000197,-10.485066282385311354
0.348000000000000198,-10.449518199168378985
0.349000000000000199,-10.412847962794156587
0.350000000000000200,-10.375095334274352155
0.351000000000000201,-10.336299653069486837
0.352000000000000202,-10.296499809317454677
0.353000000000000203,-10.255734217808738507
0.354000000000000203,-10.214040793689800779
0.355000000000000204,-10.171456929871530050
0.356000000000000205,-10.128019476115651898
0.357000000000000206,-10.083764719768202767
0.358000000000000207,-10.038728368105603650
0.359000000000000208,-9.992945532256447549
0.360000000000000209,-9.946450712659213877
0.361000000000000210,-9.899277786013930935
0.362000000000000210,-9.851459993684239080
0.363000000000000211,-9.803029931504296357
0.364000000000000212,-9.754019540944165456
0.365000000000000213,-9.704460101585841159
0.366000000000000214,-9.654382224861693729
0.367000000000000215,-9.603815849006185346
0.368000000000000216,-9.552790235171800148
0.369000000000000217,-9.501333964659483655
0.370000000000000218,-9.449474937214386472
0.371000000000000218,-9.397240370337460291
0.372000000000000219,-9.344656799564162952
0.373000000000000220,-9.291750079661710515
0.374000000000000221,-9.238545386697094131
0.375000000000000222,-9.185067220928498699
0.376000000000000223,-9.131339410473980678
0.377000000000000224,-9.077385115711646080
0.378000000000000225,-9.023226834366880666
0.379000000000000226,-8.968886407242946390
0.380000000000000226,-8.914385024552617054
0.381000000000000227,-8.859743232809185187
0.382000000000000228,-8.804980942236916519
0.383000000000000229,-8.750117434661683902
0.384000000000000230,-8.695171371843999353
0.385000000000000231,-8.640160804217988044
0.386000000000000232,-8.585103180000780654
0.387000000000000233,-8.530015354638404546
0.388000000000000234,-8.474913600555259663
0.389000000000000234,-8.419813617175801568
0.390000000000000235,-8.364730541187963553
0.391000000000000236,-8.309678957019530188
0.392000000000000237,-8.254672907499514878
0.393000000000000238,-8.199725904678215826
0.394000000000000239,-8.144850940780447246
0.395000000000000240,-8.090060499268036054
0.396000000000000241,-8.035366565988562471
0.397000000000000242,-7.980780640388604574
0.398000000000000242,-7.926313746770920154
0.399000000000000243,-7.871976445576000181
0.400000000000000244,-7.817778844669537541
0.401000000000000245,-7.763730610618584826
0.402000000000000246,-7.709840979939881045
0.403000000000000247,-7.656118770305082144
0.404000000000000248,-7.602572391688527276
0.405000000000000249,-7.549209857444074245
0.406000000000000250,-7.496038795298441748
0.407000000000000250,-7.443066458249457007
0.408000000000000251,-7.390299735358301980
0.409000000000000252,-7.337745162425862944
0.410000000000000253,-7.285408932543847804
0.411000000000000254,-7.233296906512303615
0.412000000000000255,-7.181414623115697005
0.413000000000000256,-7.129767309250604868
0.414000000000000257,-7.078359889898497848
0.415000000000000258,-7.027196997938000678
0.416000000000000258,-6.976282983791348258
0.417000000000000259,-6.925621924900559279
0.418000000000000260,-6.875217635029277297
0.419000000000000261,-6.825073673386713224
0.420000000000000262,-6.775193353570811539
0.421000000000000263,-6.725579752328043170
0.422000000000000264,-6.676235718127688124
0.423000000000000265,-6.627163879549025971
0.424000000000000266,-6.578366653480216542
0.425000000000000266,-6.529846253127847611
0.426000000000000267,-6.481604695836726826
0.427000000000000268,-6.433643810719718026
0.428000000000000269,-6.385965246097691228
0.429000000000000270,-6.338570476750069460
0.430000000000000271,-6.291460810976583495
0.431000000000000272,-6.244637397471249685
0.432000000000000273,-6.198101232009703310
0.433000000000000274,-6.151853163951332526
0.434000000000000274,-6.105893902557770758
0.435000000000000275,-6.060224023129594961
0.436000000000000276,-6.014843972963221042
0.437000000000000277,-5.969754077129998393
0.438000000000000278,-5.924954544079978902
0.439000000000000279,-5.880445471072627051
0.440000000000000280,-5.836226849437059272
0.441000000000000281,-5.792298569664433572
0.442000000000000282,-5.748660426335296947
0.443000000000000282,-5.705312122884603987
0.444000000000000283,-5.662253276207425579
0.445000000000000284,-5.619483421108269816
0.446000000000000285,-5.577002014596977197
0.447000000000000286,-5.534808440034462151
0.448000000000000287,-5.492902011131166162
0.449000000000000288,-5.451281975801616220
0.450000000000000289,-5.409947519878090638
0.451000000000000290,-5.368897770686683835
0.452000000000000290,-5.328131800488977277
0.453000000000000291,-5.287648629792484734
0.454000000000000292,-5.247447230533163420
0.455000000000000293,-5.207526529133117421
0.456000000000000294,-5.167885409436797417
0.457000000000000295,-5.128522715528821330
0.458000000000000296,-5.089437254436605329
0.459000000000000297,-5.050627798720972450
0.460000000000000298,-5.012093088957860765
0.461000000000000298,-4.973831836114213090
0.462000000000000299,-4.935842723821142641
0.463000000000000300,-4.898124410547367802
0.464000000000000301,-4.860675531675939354
0.465000000000000302,-4.823494701487232916
0.466000000000000303,-4.786580515051034546
0.467000000000000304,-4.749931550030686012
0.468000000000000305,-4.713546368402051101
0.469000000000000306,-4.677423518090074062
0.470000000000000306,-4.641561534525729726
0.471000000000000307,-4.605958942125901956
0.472000000000000308,-4.570614255698981943
0.473000000000000309,-4.535525981778606663
0.474000000000000310,-4.500692619888176260
0.475000000000000311,-4.466112663738509347
0.476000000000000312,-4.431784602361191538
0.477000000000000313,-4.397706921179802109
0.478000000000000314,-4.363878103021463062
0.479000000000000314,-4.330296629070920389
0.480000000000000315,-4.296960979769286482
0.481000000000000316,-4.263869635659737867
0.482000000000000317,-4.231021078182067185
0.483000000000000318,-4.198413790418287661
0.484000000000000319,-4.166046257791157004
0.485000000000000320,-4.133916968717624485
0.486000000000000321,-4.102024415219025499
0.487000000000000322,-4.070367093489877242
0.488000000000000322,-4.038943504426984354
0.489000000000000323,-4.007752154120682420
0.490000000000000324,-3.976791554309777155
0.491000000000000325,-3.946060222801875739
0.492000000000000326,-3.915556683860586418
0.493000000000000327,-3.885279468561239291
0.494000000000000328,-3.855227115116458325
0.495000000000000329,-3.825398169173127805
0.496000000000000330,-3.795791184082019321
0.497000000000000330,-3.766404721141551448
0.498000000000000331,-3.737237349816782572
0.499000000000000332,-3.708287647935099240
0.500000000000000333,-3.679554201859618789
0.501000000000000334,-3.651035606641559461
0.502000000000000335,-3.622730466152670026
0.503000000000000336,-3.594637393198816255
0.504000000000000337,-3.566755009615733663
0.505000000000000338,-3.539081946347969243
0.506000000000000338,-3.511616843511975450
0.507000000000000339,-3.484358350444270336
0.508000000000000340,-3.457305125735544493
0.509000000000000341,-3.430455837251641604
0.510000000000000342,-3.403809162142124478
0.511000000000000343,-3.377363786837320525
0.512000000000000344,-3.351118407034522129
0.513000000000000345,-3.325071727674120403
0.514000000000000346,-3.299222462906381104
0.515000000000000346,-3.273569336049456435
0.516000000000000347,-3.248111079539329982
0.517000000000000348,-3.222846434872342236
0.518000000000000349,-3.197774152540739490
0.519000000000000350,-3.172892991961985043
0.520000000000000351,-3.148201721402211994
0.521000000000000352,-3.123699117894429556
0.522000000000000353,-3.099383967151912334
0.523000000000000353,-3.075255063477219331
0.524000000000000354,-3.051311209667382673
0.525000000000000355,-3.027551216915526755
0.526000000000000356,-3.003973904709450249
0.527000000000000357,-2.980578100727506285
0.528000000000000358,-2.957362640732067671
0.529000000000000359,-2.934326368461056767
0.530000000000000360,-2.911468135517708777
0.531000000000000361,-2.888786801258995229
0.532000000000000361,-2.866281232682902580
0.533000000000000362,-2.843950304314913247
0.534000000000000363,-2.821792898093877344
0.535000000000000364,-2.799807903257555797
0.536000000000000365,-2.777994216228049318
0.537000000000000366,-2.756350740497327312
0.538000000000000367,-2.734876386513024116
0.539000000000000368,-2.713570071564780584
0.540000000000000369,-2.692430719671143002
0.541000000000000369,-2.671457261467382160
0.542000000000000370,-2.650648634094200595
0.543000000000000371,-2.630003781087569159
0.544000000000000372,-2.609521652269813252
0.545000000000000373,-2.589201203642040205
0.546000000000000374,-2.569041397278019279
0.547000000000000375,-2.549041201219631070
0.548000000000000376,-2.529199589373992030
0.549000000000000377,-2.509515541412302486
0.550000000000000377,-2.489988042670497226
0.551000000000000378,-2.470616084051801664
0.552000000000000379,-2.451398661931230016
0.553000000000000380,-2.432334778062073433
0.554000000000000381,-2.413423439484428723
0.555000000000000382,-2.394663658435860931
0.556000000000000383,-2.376054452264111383
0.557000000000000384,-2.357594843342049273
0.558000000000000385,-2.339283858984733122
0.559000000000000385,-2.321120531368717099
0.560000000000000386,-2.303103897453548043
0.561000000000000387,-2.285232998905503798
0.562000000000000388,-2.267506882023558212
0.563000000000000389,-2.249924597667580350
0.564000000000000390,-2.232485201188778134
0.565000000000000391,-2.215187752362361984
0.566000000000000392,-2.198031315322429347
0.567000000000000393,-2.181014958499086553
0.568000000000000393,-2.164137754557730275
0.569000000000000394,-2.147398780340533442
0.570000000000000395,-2.130797116810100977
0.571000000000000396,-2.114331848995232299
0.572000000000000397,-2.098002065938850524
0.573000000000000398,-2.081806860647970048
0.574000000000000399,-2.065745330045777983
0.575000000000000400,-2.049816574925710455
0.576000000000000401,-2.034019699907544165
0.577000000000000401,-2.018353813395483254
0.578000000000000402,-2.002818027538156187
0.579000000000000403,-1.987411458190510016
0.580000000000000404,-1.972133224877606894
0.581000000000000405,-1.956982450760220260
0.582000000000000406,-1.941958262602234253
0.583000000000000407,-1.927059790739794831
0.584000000000000408,-1.912286169052180851
0.585000000000000409,-1.897636534934342478
0.586000000000000409,-1.883110029271073405
0.587000000000000410,-1.868705796412795994
0.588000000000000411,-1.854422984152864995
0.589000000000000412,-1.840260743706427560
0.590000000000000413,-1.826218229690705241
0.591000000000000414,-1.812294600106738374
0.592000000000000415,-1.798489016322517120
0.593000000000000416,-1.784800643057432579
0.594000000000000417,-1.771228648368047942
0.595000000000000417,-1.757772203635159958
0.596000000000000418,-1.744430483552006139
0.597000000000000419,-1.731202666113749178
0.598000000000000420,-1.718087932608012736
0.599000000000000421,-1.705085467606579197
0.600000000000000422,-1.692194458958107273
0.601000000000000423,-1.679414097781890103
0.602000000000000424,-1.666743578462576592
0.603000000000000425,-1.654182098645857080
0.604000000000000425,-1.641728859235016103
0.605000000000000426,-1.629383064388373992
0.606000000000000427,-1.617143921517574245
0.607000000000000428,-1.605010641286580109
0.608000000000000429,-1.592982437611541791
0.609000000000000430,-1.581058527661259872
0.610000000000000431,-1.569238131858431418
0.611000000000000432,-1.557520473881479628
