# hydroxyapatite-101-ph10_CS-4481813-AC
# h[nm],U(h)[kJ/mol]
0.149999999999999994,62.702045280143089201
0.150999999999999995,61.091770281904359763
0.151999999999999996,59.697049204307234049
0.152999999999999997,58.354467863298815189
0.153999999999999998,57.010644999204636463
0.154999999999999999,55.660357107030037582
0.156000000000000000,54.314769031882576655
0.157000000000000001,52.986727879283115783
0.158000000000000002,51.685225432047673166
0.159000000000000002,50.414396202328930485
0.160000000000000003,49.174445351308648355
0.161000000000000004,47.963129579993690754
0.162000000000000005,46.777135007874811379
0.163000000000000006,45.613099987678538128
0.164000000000000007,44.468241830331812992
0.165000000000000008,43.340643920186174398
0.166000000000000009,42.229293515366407519
0.167000000000000010,41.133961166300835544
0.168000000000000010,40.054998223962641646
0.169000000000000011,38.993109561178115996
0.170000000000000012,37.949139752562714989
0.171000000000000013,36.923895003126155245
0.172000000000000014,35.918010872991168014
0.173000000000000015,34.931867221161219561
0.174000000000000016,33.965546274361649637
0.175000000000000017,33.018826664485395384
0.176000000000000018,32.091205023060211943
0.177000000000000018,31.181936705158069145
0.178000000000000019,30.290087976345329679
0.179000000000000020,29.414593181276650569
0.180000000000000021,28.554311766051448274
0.181000000000000022,27.708081375153533088
0.182000000000000023,26.874764479216604940
0.183000000000000024,26.053287052377932298
0.184000000000000025,25.242668683036846744
0.185000000000000026,24.442044168678059179
0.186000000000000026,23.650677128353112977
0.187000000000000027,22.867966488225416555
0.188000000000000028,22.093446882835500844
0.189000000000000029,21.326784094546081150
0.190000000000000030,20.567766651569144187
0.191000000000000031,19.816294643918158869
0.192000000000000032,19.072366716107648443
0.193000000000000033,18.336066071499438124
0.194000000000000034,17.607546188585384783
0.195000000000000034,16.887016813849463404
0.196000000000000035,16.174730666155024750
0.197000000000000036,15.470971168585453626
0.198000000000000037,14.776041418223581303
0.199000000000000038,14.090254513932654490
0.200000000000000039,13.413925287141827525
0.201000000000000040,12.747363420477077156
0.202000000000000041,12.090867892795811755
0.203000000000000042,11.444722655407643330
0.204000000000000042,10.809193421429007742
0.205000000000000043,10.184525436693025569
0.206000000000000044,9.570942094801610622
0.207000000000000045,8.968644259238914174
0.208000000000000046,8.377810160559974406
0.209000000000000047,7.798595745276915459
0.210000000000000048,7.231135364100947704
0.211000000000000049,6.675542699740796948
0.212000000000000050,6.131911847742669508
0.213000000000000050,5.600318477273985351
0.214000000000000051,5.080821011819335986
0.215000000000000052,4.573461782118052987
0.216000000000000053,4.078268115070795119
0.217000000000000054,3.595253332612028174
0.218000000000000055,3.124417643592065197
0.219000000000000056,2.665748919503508230
0.220000000000000057,2.219223351432115798
0.221000000000000058,1.784805990965088851
0.222000000000000058,1.362451182018445950
0.223000000000000059,0.952102893749230184
0.224000000000000060,0.553694966996638782
0.225000000000000061,0.167151288161234562
0.226000000000000062,-0.207614094806473137
0.227000000000000063,-0.570696899469475993
0.228000000000000064,-0.922202564503512567
0.229000000000000065,-1.262246220033146127
0.230000000000000066,-1.590952659925872537
0.231000000000000066,-1.908456304511637613
0.232000000000000067,-2.214901143593492883
0.233000000000000068,-2.510440651105970034
0.234000000000000069,-2.795237664306902126
0.235000000000000070,-3.069464221912330260
0.236000000000000071,-3.333301357065594939
0.237000000000000072,-3.586938842443398556
0.238000000000000073,-3.830574886118971456
0.239000000000000073,-4.064415778010491920
0.240000000000000074,-4.288675487830762023
0.241000000000000075,-4.503575216413318927
0.242000000000000076,-4.709342903119481782
0.243000000000000077,-4.906212692730036906
0.244000000000000078,-5.094424365797150855
0.245000000000000079,-5.274222736881908347
0.246000000000000080,-5.445857025437335075
0.247000000000000081,-5.609580204324248420
0.248000000000000081,-5.765648331075614585
0.249000000000000082,-5.914319867064611103
0.250000000000000111,-6.055854989691605184
0.251000000000000112,-6.190514902594973279
0.252000000000000113,-6.318561148720959864
0.253000000000000114,-6.440254930865492611
0.254000000000000115,-6.555856444038047570
0.255000000000000115,-6.665624223699408546
0.256000000000000116,-6.769814513601730255
0.257000000000000117,-6.868680656616587221
0.258000000000000118,-6.962472511581080603
0.259000000000000119,-7.051435898830497706
0.260000000000000120,-7.135812076722788611
0.261000000000000121,-7.215837251099782357
0.262000000000000122,-7.291742119277527578
0.263000000000000123,-7.363751449815620909
0.264000000000000123,-7.432083698986824416
0.265000000000000124,-7.496950664555010135
0.266000000000000125,-7.558557177174404451
0.267000000000000126,-7.617100829446516563
0.268000000000000127,-7.672771742415372742
0.269000000000000128,-7.725752369046023027
0.270000000000000129,-7.776217334017301752
0.271000000000000130,-7.824333308966904710
0.272000000000000131,-7.870258922154971692
0.273000000000000131,-7.914144701361358614
0.274000000000000132,-7.956133048700666066
0.275000000000000133,-7.996358245927903674
0.276000000000000134,-8.034946488714721724
0.277000000000000135,-8.072015948301004329
0.278000000000000136,-8.107676858868549274
0.279000000000000137,-8.142031628940809895
0.280000000000000138,-8.175174975084614104
0.281000000000000139,-8.207194076175637676
0.282000000000000139,-8.238168746487000149
0.283000000000000140,-8.268171625869957353
0.284000000000000141,-8.297268385314975347
0.285000000000000142,-8.325517946210284848
0.286000000000000143,-8.352972711651784010
0.287000000000000144,-8.379678808202116969
0.288000000000000145,-8.405676336547157845
0.289000000000000146,-8.430999629553266317
0.290000000000000147,-8.455677516289080486
0.291000000000000147,-8.479733590638824481
0.292000000000000148,-8.503186483201115919
0.293000000000000149,-8.526050135235553995
0.294000000000000150,-8.548334073490147844
0.295000000000000151,-8.570043684813736462
0.296000000000000152,-8.591180489529582687
0.297000000000000153,-8.611742412617997999
0.298000000000000154,-8.631724051827301736
0.299000000000000155,-8.651116941902945001
0.300000000000000155,-8.669909814193930586
0.301000000000000156,-8.688088850963502807
0.302000000000000157,-8.705637933797166994
0.303000000000000158,-8.722538885565233713
0.304000000000000159,-8.738771705458976413
0.305000000000000160,-8.754314796679032895
0.306000000000000161,-8.769145186411886783
0.307000000000000162,-8.783238737784808237
0.308000000000000163,-8.796570353541531162
0.309000000000000163,-8.809114171230126189
0.310000000000000164,-8.820843749741218431
0.311000000000000165,-8.831732247078207365
0.312000000000000166,-8.841752589282508623
0.313000000000000167,-8.850877630474865754
0.314000000000000168,-8.859080304009715690
0.315000000000000169,-8.866333764772432957
0.316000000000000170,-8.872611522679978435
0.317000000000000171,-8.877887567473219832
0.318000000000000171,-8.882136484914884278
0.319000000000000172,-8.885333564530403905
0.320000000000000173,-8.887454899049547663
0.321000000000000174,-8.888477475725862220
0.322000000000000175,-8.888379259727404502
0.323000000000000176,-8.887139269807011743
0.324000000000000177,-8.884737646473300998
0.325000000000000178,-8.881155712894273080
0.326000000000000179,-8.876376028775316840
0.327000000000000179,-8.870382437460467173
0.328000000000000180,-8.863160106512534497
0.329000000000000181,-8.854695562032393497
0.330000000000000182,-8.844976716981054921
0.331000000000000183,-8.833992893770835408
0.332000000000000184,-8.821734841392716575
0.333000000000000185,-8.808194747347398490
0.334000000000000186,-8.793366244646595220
0.335000000000000187,-8.777244414149340201
0.336000000000000187,-8.759825782495793689
0.337000000000000188,-8.741108315897410108
0.338000000000000189,-8.721091410038802394
0.339000000000000190,-8.699775876341925951
0.340000000000000191,-8.677163924838058762
0.341000000000000192,-8.653259143887968463
0.342000000000000193,-8.628066476984169952
0.343000000000000194,-8.601592196863535378
0.344000000000000195,-8.573843877151343662
0.345000000000000195,-8.544830361751563075
0.346000000000000196,-8.514561732190710330
0.347000000000000197,-8.483049273115698341
0.348000000000000198,-8.450305436138620507
0.349000000000000199,-8.416343802213969383
0.350000000000000200,-8.381179042726436990
0.351000000000000201,-8.344826879459725788
0.352000000000000202,-8.307304043609425648
0.353000000000000203,-8.268628233995499954
0.354000000000000203,-8.228818074622381573
0.355000000000000204,-8.187893071727382122
0.356000000000000205,-8.145873570450797629
0.357000000000000206,-8.102780711254004231
0.358000000000000207,-8.058636386204488744
0.359000000000000208,-8.013463195240277059
0.360000000000000209,-7.967284402519020148
0.361000000000000210,-7.920123892950675426
0.362000000000000210,-7.872006129006104302
0.363000000000000211,-7.822956107887678812
0.364000000000000212,-7.772999319142035013
0.365000000000000213,-7.722161702788899795
0.366000000000000214,-7.670469608034556686
0.367000000000000215,-7.617949752632748428
0.368000000000000216,-7.564629182950659114
0.369000000000000217,-7.510535234792364179
0.370000000000000218,-7.455695495027383046
0.371000000000000218,-7.400137764067059365
0.372000000000000219,-7.343890019227172772
0.373000000000000220,-7.286980379010731035
0.374000000000000221,-7.229437068340838657
0.375000000000000222,-7.171288384769546553
0.376000000000000223,-7.112562665684943219
0.377000000000000224,-7.053288256535130252
0.378000000000000225,-6.993493480084350900
0.379000000000000226,-6.933206606713389064
0.380000000000000226,-6.872455825773417182
0.381000000000000227,-6.811269217999405434
0.382000000000000228,-6.749674728986849281
0.383000000000000229,-6.687700143732833169
0.384000000000000230,-6.625373062240115019
0.385000000000000231,-6.562720876180968332
0.386000000000000232,-6.499770746615054051
0.387000000000000233,-6.436549582754125254
0.388000000000000234,-6.373084021764248597
0.389000000000000234,-6.309400409594880799
0.390000000000000235,-6.245524782822370113
0.391000000000000236,-6.181482851494346065
0.392000000000000237,-6.117299982959878868
0.393000000000000238,-6.053001186669513700
0.394000000000000239,-5.988611099927853232
0.395000000000000240,-5.924153974580736559
0.396000000000000241,-5.859653664618059032
0.397000000000000242,-5.795133614672512756
0.398000000000000242,-5.730616849394013279
0.399000000000000243,-5.666125963678841693
0.400000000000000244,-5.601683113732079278
0.401000000000000245,-5.537310008941622286
0.402000000000000246,-5.473027904541521771
0.403000000000000247,-5.408857595042182886
0.404000000000000248,-5.344819408404861250
0.405000000000000249,-5.280933200937559135
0.406000000000000250,-5.217218352889406496
0.407000000000000250,-5.153693764720610027
0.408000000000000251,-5.090377854024919380
0.409000000000000252,-5.027288553081798561
0.410000000000000253,-4.964443307015381279
0.411000000000000254,-4.901859072537551043
0.412000000000000255,-4.839552317252638680
0.413000000000000256,-4.777539019501376494
0.414000000000000257,-4.715834668721982759
0.415000000000000258,-4.654454266306629506
0.416000000000000258,-4.593412326931654022
0.417000000000000259,-4.532722880340325666
0.418000000000000260,-4.472399473557254979
0.419000000000000261,-4.412455173513887274
0.420000000000000262,-4.352902570064886234
0.421000000000000263,-4.293753779375667712
0.422000000000000264,-4.235020447661627330
0.423000000000000265,-4.176713755260069050
0.424000000000000266,-4.118844421016394364
0.425000000000000266,-4.061422706966248519
0.426000000000000267,-4.004458423296087588
0.427000000000000268,-3.947960933564830466
0.428000000000000269,-3.891939160169835876
0.429000000000000270,-3.836401590040890763
0.430000000000000271,-3.781356280546272153
0.431000000000000272,-3.726810865595502342
0.432000000000000273,-3.672772561923819179
0.433000000000000274,-3.619248175543879675
0.434000000000000274,-3.566244108350570485
0.435000000000000275,-3.513766364865452463
0.436000000000000276,-3.461820559107609885
0.437000000000000277,-3.410411921578211825
0.438000000000000278,-3.359545306346594096
0.439000000000000279,-3.309225198226034337
0.440000000000000280,-3.259455720027805370
0.441000000000000281,-3.210240639882623093
0.442000000000000282,-3.161583378618958662
0.443000000000000282,-3.113487017188066197
0.444000000000000283,-3.065954304126115026
0.445000000000000284,-3.018987663044083725
0.446000000000000285,-2.972589200136483978
0.447000000000000286,-2.926760711700565398
0.448000000000000287,-2.881503691657652855
0.449000000000000288,-2.836819339069086787
0.450000000000000289,-2.792708565639203666
0.451000000000000290,-2.749172003198428804
0.452000000000000290,-2.706210011159749573
0.453000000000000291,-2.663822683942224323
0.454000000000000292,-2.622009858355537126
0.455000000000000293,-2.580771120939842511
0.456000000000000294,-2.540105815255590649
0.457000000000000295,-2.500013049118179786
0.458000000000000296,-2.460491701772703266
0.459000000000000297,-2.421540431004259197
0.460000000000000298,-2.383157680179608384
0.461000000000000298,-2.345341685216241423
0.462000000000000299,-2.308090481475148614
0.463000000000000300,-2.271401910573839888
0.464000000000000301,-2.235273627116450168
0.465000000000000302,-2.199703105337965869
0.466000000000000303,-2.164687645659809423
0.467000000000000304,-2.130224381154283364
0.468000000000000305,-2.096310283915612249
0.469000000000000306,-2.062942171335415686
0.470000000000000306,-2.030116712280793045
0.471000000000000307,-1.997830433173210185
0.472000000000000308,-1.966079723966783543
0.473000000000000309,-1.934860844024472781
0.474000000000000310,-1.904169927891115277
0.475000000000000311,-1.874002990962160498
0.476000000000000312,-1.844355935047381267
0.477000000000000313,-1.815224553828654219
0.478000000000000314,-1.786604538211368665
0.479000000000000314,-1.758491481568964732
0.480000000000000315,-1.730880884880245274
0.481000000000000316,-1.703768161759335431
0.482000000000000317,-1.677148643378130632
0.483000000000000318,-1.651017583281317203
0.484000000000000319,-1.625370162094057047
0.485000000000000320,-1.600201492122625968
0.486000000000000321,-1.575506621848267397
0.487000000000000322,-1.551280540314735834
0.488000000000000322,-1.527518181409981857
0.489000000000000323,-1.504214428042634166
0.490000000000000324,-1.481364116213862214
0.491000000000000325,-1.458962038985413878
0.492000000000000326,-1.437002950344566488
0.493000000000000327,-1.415481568966916015
0.494000000000000328,-1.394392581877880843
0.495000000000000329,-1.373730648013910649
0.496000000000000330,-1.353490401684427580
0.497000000000000330,-1.333666455935575312
0.498000000000000331,-1.314253405816881992
0.499000000000000332,-1.295245831552032545
0.500000000000000333,-1.276638301614904103
0.501000000000000334,-1.258425375712123762
0.502000000000000335,-1.240601607673405216
0.503000000000000336,-1.223161548250974784
0.504000000000000337,-1.206099747829368019
0.505000000000000338,-1.189410759046983346
0.506000000000000338,-1.173089139330733666
0.507000000000000339,-1.157129453345171477
0.508000000000000340,-1.141526275357510167
0.509000000000000341,-1.126274191519943679
0.510000000000000342,-1.111367802070682975
0.511000000000000343,-1.096801723455154365
0.512000000000000344,-1.082570590368796548
0.513000000000000345,-1.068669057722912541
0.514000000000000346,-1.055091802535037981
0.515000000000000346,-1.041833525745254230
0.516000000000000347,-1.028888953959933072
0.517000000000000348,-1.016252841124381412
0.518000000000000349,-1.003919970125787708
0.519000000000000350,-0.991885154327990071
0.520000000000000351,-0.980143239039480307
0.521000000000000352,-0.968689102916085454
0.522000000000000353,-0.957517659299791601
0.523000000000000353,-0.946623857495097476
0.524000000000000354,-0.936002683984374584
0.525000000000000355,-0.925649163583591950
0.526000000000000356,-0.915558360539843852
0.527000000000000357,-0.905725379572066225
0.528000000000000358,-0.896145366856287318
0.529000000000000359,-0.886813510956834583
0.530000000000000360,-0.877725043704796093
0.531000000000000361,-0.868875241025113709
0.532000000000000361,-0.860259423713600979
0.533000000000000362,-0.851872958165224681
0.534000000000000363,-0.843711257054916564
0.535000000000000364,-0.835769779972200366
0.536000000000000365,-0.828044034010905428
0.537000000000000366,-0.820529574315192689
0.538000000000000367,-0.813222004583122549
0.539000000000000368,-0.806116977528995249
0.540000000000000369,-0.799210195305607440
0.541000000000000369,-0.792497409887648940
0.542000000000000370,-0.785974423417363233
0.543000000000000371,-0.779637088513601362
0.544000000000000372,-0.773481308545420077
0.545000000000000373,-0.767503037871284710
0.546000000000000374,-0.761698282044977582
0.547000000000000375,-0.756063097989259303
0.548000000000000376,-0.750593594138352027
0.549000000000000377,-0.745285930550226405
0.550000000000000377,-0.740136318989714104
0.551000000000000378,-0.735141022983454628
0.552000000000000379,-0.730296357847589617
0.553000000000000380,-0.725598690689202686
0.554000000000000381,-0.721044440382389573
0.555000000000000382,-0.716630077519906150
0.556000000000000383,-0.712352124341240511
0.557000000000000384,-0.708207154638027192
0.558000000000000385,-0.704191793637608754
0.559000000000000385,-0.700302717865623814
0.560000000000000386,-0.696536654988393678
0.561000000000000387,-0.692890383635937468
0.562000000000000388,-0.689360733206386245
0.563000000000000389,-0.685944583652542517
0.564000000000000390,-0.682638865251351312
0.565000000000000391,-0.679440558356997015
0.566000000000000392,-0.676346693138328514
0.567000000000000393,-0.673354349301326871
0.568000000000000393,-0.670460655797259886
0.569000000000000394,-0.667662790517212112
0.570000000000000395,-0.664957979973606506
0.571000000000000396,-0.662343498969356848
0.572000000000000397,-0.659816670255269355
0.573000000000000398,-0.657374864176249907
0.574000000000000399,-0.655015498306951049
0.575000000000000400,-0.652736037077361386
0.576000000000000401,-0.650533991388929644
0.577000000000000401,-0.648406918221736683
0.578000000000000402,-0.646352420233236136
0.579000000000000403,-0.644368145349055732
0.580000000000000404,-0.642451786346375342
0.581000000000000405,-0.640601080430334591
0.582000000000000406,-0.638813808803924355
0.583000000000000407,-0.637087796231847858
0.584000000000000408,-0.635420910598737954
0.585000000000000409,-0.633811062462181662
0.586000000000000409,-0.632256204600963989
0.587000000000000410,-0.630754331558902370
0.588000000000000411,-0.629303479184682102
0.589000000000000412,-0.627901724168047903
0.590000000000000413,-0.626547183572717437
0.591000000000000414,-0.625238014366367945
0.592000000000000415,-0.623972412948027855
0.593000000000000416,-0.622748614673202305
0.594000000000000417,-0.621564893377047900
0.595000000000000417,-0.620419560895907551
0.596000000000000418,-0.619310966587477418
0.597000000000000419,-0.618237496849926016
0.598000000000000420,-0.617197574640203195
0.599000000000000421,-0.616189658991827649
0.600000000000000422,-0.615212244532399422
0.601000000000000423,-0.614263861001080547
0.602000000000000424,-0.613343072766284747
0.603000000000000425,-0.612448478343805003
0.604000000000000425,-0.611578709915591268
0.605000000000000426,-0.610732432849389384
0.606000000000000427,-0.609908345219467463
0.607000000000000428,-0.609105177328562286
0.608000000000000429,-0.608321691231329731
0.609000000000000430,-0.607556680259359050
0.610000000000000431,-0.606808968548041561
0.611000000000000432,-0.606077410565364461
0.612000000000000433,-0.605360890642827054
0.613000000000000433,-0.604658322508649038
