# hydroxyapatite-101-ph10_HISTIDINEZWITTER
# h[nm],U(h)[kJ/mol]
0.149999999999999994,130.939401214741394597
0.150999999999999995,127.051735880158915393
0.151999999999999996,124.324798705655126696
0.152999999999999997,121.930952399848052892
0.153999999999999998,119.545330632398190573
0.154999999999999999,117.085932272210428096
0.156000000000000000,114.571168597203580930
0.157000000000000001,112.047273446196385294
0.158000000000000002,109.555656534021025550
0.159000000000000002,107.121828683705487606
0.160000000000000003,104.754962532266361563
0.161000000000000004,102.451850331130032146
0.162000000000000005,100.201919559834024653
0.163000000000000006,97.991700723789236349
0.164000000000000007,95.808133850746145299
0.165000000000000008,93.640631327385520422
0.166000000000000009,91.482067873411679670
0.167000000000000010,89.328961068441017801
0.168000000000000010,87.181111642360036740
0.169000000000000011,85.040936669283667015
0.170000000000000012,82.912677202742983695
0.171000000000000013,80.801609269306069905
0.172000000000000014,78.713340706313758233
0.173000000000000015,76.653238937414769794
0.174000000000000016,74.626006816909267627
0.175000000000000017,72.635404258633329277
0.176000000000000018,70.684101066264901192
0.177000000000000018,68.773639638962862364
0.178000000000000019,66.904483575446150212
0.179000000000000020,65.076128380783615057
0.180000000000000021,63.287252472040520956
0.181000000000000022,61.535889694352114532
0.182000000000000023,59.819608019698094381
0.183000000000000024,58.135682603593195950
0.184000000000000025,56.481254657274689635
0.185000000000000026,54.853470499642597247
0.186000000000000026,53.249597608515841785
0.187000000000000027,51.667116475083886940
0.188000000000000028,50.103788596552433887
0.189000000000000029,48.557702060823324075
0.190000000000000030,47.027296936980434339
0.191000000000000031,45.511373144605350660
0.192000000000000032,44.009083691386322812
0.193000000000000033,42.519916196259565311
0.194000000000000034,41.043665502921541588
0.195000000000000034,39.580399977826417057
0.196000000000000035,38.130423812736147227
0.197000000000000036,36.694237342885813291
0.198000000000000037,35.272497070121524132
0.199000000000000038,33.865976762802006306
0.200000000000000039,32.475530703003798294
0.201000000000000040,31.102059874899122605
0.202000000000000041,29.746481641174703725
0.203000000000000042,28.409703239588576906
0.204000000000000042,27.092599249834979247
0.205000000000000043,25.795993030984686101
0.206000000000000044,24.520642010032652536
0.207000000000000045,23.267226609997788245
0.208000000000000046,22.036342538646749745
0.209000000000000047,20.828496113143000201
0.210000000000000048,19.644102268617757545
0.211000000000000049,18.483484886786026635
0.212000000000000050,17.346879081430337521
0.213000000000000050,16.234435088239237643
0.214000000000000051,15.146223424763036292
0.215000000000000052,14.082241010078973886
0.216000000000000053,13.042417961360152745
0.217000000000000054,12.026624814411604802
0.218000000000000055,11.034679946125246275
0.219000000000000056,10.066357007701421722
0.220000000000000057,9.121392207584033684
0.221000000000000058,8.199491311757023837
0.222000000000000058,7.300336255890686132
0.223000000000000059,6.423591288513381237
0.224000000000000060,5.568908586716398545
0.225000000000000061,4.735933305790630321
0.226000000000000062,3.924308041627469379
0.227000000000000063,3.133676699740902016
0.228000000000000064,2.363687777482036179
0.229000000000000065,1.613997076548653764
0.230000000000000066,0.884269871403807195
0.231000000000000066,0.174182565874539813
0.232000000000000067,-0.516576124807969661
0.233000000000000068,-1.188304425763589522
0.234000000000000069,-1.841287145052249441
0.235000000000000070,-2.475795663066371333
0.236000000000000071,-3.092088224589274681
0.237000000000000072,-3.690410490082001616
0.238000000000000073,-4.270996304120965092
0.239000000000000073,-4.834068640797887895
0.240000000000000074,-5.379840688195424825
0.241000000000000075,-5.908517036655335453
0.242000000000000076,-6.420294938372633098
0.243000000000000077,-6.915365608795339014
0.244000000000000078,-7.393915543315851657
0.245000000000000079,-7.856127825747455162
0.246000000000000080,-8.302183408038890988
0.247000000000000081,-8.732262343551983719
0.248000000000000081,-9.146544958978072515
0.249000000000000082,-9.545212952574841481
0.250000000000000111,-9.928450408847991682
0.251000000000000112,-10.296444722067377597
0.252000000000000113,-10.649387423089933691
0.253000000000000114,-10.987474905852836926
0.254000000000000115,-11.310909051606467202
0.255000000000000115,-11.619897750473468179
0.256000000000000116,-11.914655321257690446
0.257000000000000117,-12.195402831589218451
0.258000000000000118,-12.462368321487179657
0.259000000000000119,-12.715786934262023777
0.260000000000000120,-12.955900959372049996
0.261000000000000121,-13.182959792405208432
0.262000000000000122,-13.397219817790354313
0.263000000000000123,-13.598944220159557617
0.264000000000000123,-13.788402730499267790
0.265000000000000124,-13.965871313350721294
0.266000000000000125,-14.131631801361612233
0.267000000000000126,-14.285971483460201625
0.268000000000000127,-14.429182652829860345
0.269000000000000128,-14.561562120714791391
0.270000000000000129,-14.683410701895322603
0.271000000000000130,-14.795032677440655533
0.272000000000000131,-14.896735240086115937
0.273000000000000131,-14.988827927296110687
0.274000000000000132,-15.071622046770354331
0.275000000000000133,-15.145430098833980281
0.276000000000000134,-15.210565199826501015
0.277000000000000135,-15.267340510274731713
0.278000000000000136,-15.316068671304790882
0.279000000000000137,-15.357061252420347586
0.280000000000000138,-15.390628213452259843
0.281000000000000139,-15.417077383170129323
0.282000000000000139,-15.436713956741694886
0.283000000000000140,-15.449840013932785610
0.284000000000000141,-15.456754059659823852
0.285000000000000142,-15.457750588240259049
0.286000000000000143,-15.453119672433938803
0.287000000000000144,-15.443146578131077717
0.288000000000000145,-15.428111405321150329
0.289000000000000146,-15.408288755770209733
0.290000000000000147,-15.383947427643894557
0.291000000000000147,-15.355350137137895317
0.292000000000000148,-15.322753267017793277
0.293000000000000149,-15.286406641824683561
0.294000000000000150,-15.246553329372096286
0.295000000000000151,-15.203429468043035300
0.296000000000000152,-15.157264119291582460
0.297000000000000153,-15.108279144663171678
0.298000000000000154,-15.056689106568038383
0.299000000000000155,-15.002701191975081230
0.300000000000000155,-14.946515158136486789
0.301000000000000156,-14.888323299406376776
0.302000000000000157,-14.828310434179595489
0.303000000000000158,-14.766653910947690420
0.304000000000000159,-14.703523632448622038
0.305000000000000160,-14.639082096873057282
0.306000000000000161,-14.573484455083761446
0.307000000000000162,-14.506878582803988564
0.308000000000000163,-14.439405166735767239
0.309000000000000163,-14.371197803579070396
0.310000000000000164,-14.302383110937560318
0.311000000000000165,-14.233080849114651656
0.312000000000000166,-14.163404052826100710
0.313000000000000167,-14.093459171879853642
0.314000000000000168,-14.023346219901668519
0.315000000000000169,-13.953158930214755173
0.316000000000000170,-13.882984918013317355
0.317000000000000171,-13.812905848002952069
0.318000000000000171,-13.742997606715046999
0.319000000000000172,-13.673330478737687699
0.320000000000000173,-13.603969326141335472
0.321000000000000174,-13.534973770413477823
0.322000000000000175,-13.466398376253200908
0.323000000000000176,-13.398292836612622381
0.324000000000000177,-13.330702158408403335
0.325000000000000178,-13.263666848362134942
0.326000000000000179,-13.197223098463833679
0.327000000000000179,-13.131402970587126688
0.328000000000000180,-13.066234579818603478
0.329000000000000181,-13.001742276097047579
0.330000000000000182,-12.937946823789761908
0.331000000000000183,-12.874865578865069438
0.332000000000000184,-12.812512663349377107
0.333000000000000185,-12.750899136786628674
0.334000000000000186,-12.690033164445582159
0.335000000000000187,-12.629920182047126076
0.336000000000000187,-12.570563056809413993
0.337000000000000188,-12.511962244632645280
0.338000000000000189,-12.454115943269018274
0.339000000000000190,-12.397020241344881342
0.340000000000000191,-12.340669263123015043
0.341000000000000192,-12.285055308913086947
0.342000000000000193,-12.230168991056050487
0.343000000000000194,-12.175999365426578791
0.344000000000000195,-12.122534058412993474
0.345000000000000195,-12.069759389350332768
0.346000000000000196,-12.017660488395554452
0.347000000000000197,-11.966221409847742407
0.348000000000000198,-11.915425240927950412
0.349000000000000199,-11.865254206044843599
0.350000000000000200,-11.815689766582613274
0.351000000000000201,-11.766712716257069715
0.352000000000000202,-11.718303272094578560
0.353000000000000203,-11.670441161096357874
0.354000000000000203,-11.623105702657756666
0.355000000000000204,-11.576275886818393701
0.356000000000000205,-11.529930448424980938
0.357000000000000206,-11.484047937293507147
0.358000000000000207,-11.438606784461805788
0.359000000000000208,-11.393585364627595524
0.360000000000000209,-11.348962054870240124
0.361000000000000210,-11.304715289757087504
0.362000000000000210,-11.260823612937834071
0.363000000000000211,-11.217265725331840187
0.364000000000000212,-11.174020530015074115
0.365000000000000213,-11.131067173913924861
0.366000000000000214,-11.088385086414238145
0.367000000000000215,-11.045954014993693448
0.368000000000000216,-11.003754057986146364
0.369000000000000217,-10.961765694585727360
0.370000000000000218,-10.919969812198328185
0.371000000000000218,-10.878347731246883257
0.372000000000000219,-10.836881227536144578
0.373000000000000220,-10.795552552281160175
0.374000000000000221,-10.754344449902276892
0.375000000000000222,-10.713240173687868406
0.376000000000000223,-10.672223499424294602
0.377000000000000224,-10.631278737090637421
0.378000000000000225,-10.590390740713718998
0.379000000000000226,-10.549544916476898848
0.380000000000000226,-10.508727229174017026
0.381000000000000227,-10.467924207097132339
0.382000000000000228,-10.427122945445166380
0.383000000000000229,-10.386311108337359599
0.384000000000000230,-10.345476929513548470
0.385000000000000231,-10.304609211800695334
0.386000000000000232,-10.263697325422512563
0.387000000000000233,-10.222731205226654794
0.388000000000000234,-10.181701346901379068
0.389000000000000234,-10.140598802251293620
0.390000000000000235,-10.099415173598890405
0.391000000000000236,-10.058142607376648670
0.392000000000000237,-10.016773786971501892
0.393000000000000238,-9.975301924881561533
0.394000000000000239,-9.933720754242063578
0.395000000000000240,-9.892024519775622693
0.396000000000000241,-9.850207968219226728
0.397000000000000242,-9.808266338278221141
0.398000000000000242,-9.766195350155433275
0.399000000000000243,-9.723991194701051555
0.400000000000000244,-9.681650522227082334
0.401000000000000245,-9.639170431027949348
0.402000000000000246,-9.596548455646669140
0.403000000000000247,-9.553782554924174164
0.404000000000000248,-9.510871099867376444
0.405000000000000249,-9.467812861369669264
0.406000000000000250,-9.424606997815674347
0.407000000000000250,-9.381253042600340208
0.408000000000000251,-9.337750891590745894
0.409000000000000252,-9.294100790557333625
0.410000000000000253,-9.250303322599521039
0.411000000000000254,-9.206359395589359451
0.412000000000000255,-9.162270229655124609
0.413000000000000256,-9.118037344725522075
0.414000000000000257,-9.073662548153508922
0.415000000000000258,-9.029147922437783080
0.416000000000000258,-8.984495813058252622
0.417000000000000259,-8.939708816440964156
0.418000000000000260,-8.894789768066519997
0.419000000000000261,-8.849741730734965728
0.420000000000000262,-8.804567982999069287
0.421000000000000263,-8.759272007776905511
0.422000000000000264,-8.713857481153420181
0.423000000000000265,-8.668328261380089828
0.424000000000000266,-8.622688378080619387
0.425000000000000266,-8.576942021669790250
0.426000000000000267,-8.531093532991816275
0.427000000000000268,-8.485147393183822828
0.428000000000000269,-8.439108213769177524
0.429000000000000270,-8.392980726984887951
0.430000000000000271,-8.346769776346466330
0.431000000000000272,-8.300480307453129925
0.432000000000000273,-8.254117359035557655
0.433000000000000274,-8.207686054247982810
0.434000000000000274,-8.161191592205653933
0.435000000000000275,-8.114639239768441925
0.436000000000000276,-8.068034323570829613
0.437000000000000277,-8.021382222297933851
0.438000000000000278,-7.974688359207094734
0.439000000000000279,-7.927958194893929722
0.440000000000000280,-7.881197220301556783
0.441000000000000281,-7.834410949971221783
0.442000000000000282,-7.787604915532516436
0.443000000000000282,-7.740784659430682169
0.444000000000000283,-7.693955728888726142
0.445000000000000284,-7.647123670101390935
0.446000000000000285,-7.600294022658074411
0.447000000000000286,-7.553472314191604475
0.448000000000000287,-7.506664055249268941
0.449000000000000288,-7.459874734382881734
0.450000000000000289,-7.413109813453940156
0.451000000000000290,-7.366374723150199699
0.452000000000000290,-7.319674858709755760
0.453000000000000291,-7.273015575848485348
0.454000000000000292,-7.226402186886877743
0.455000000000000293,-7.179839957071910028
0.456000000000000294,-7.133334101089806367
0.457000000000000295,-7.086889779765298769
0.458000000000000296,-7.040512096943047027
0.459000000000000297,-6.994206096546828455
0.460000000000000298,-6.947976759812005021
0.461000000000000298,-6.901829002686914905
0.462000000000000299,-6.855767673398702300
0.463000000000000300,-6.809797550179045977
0.464000000000000301,-6.763923339145504698
0.465000000000000302,-6.718149672333915134
0.466000000000000303,-6.672481105877466234
0.467000000000000304,-6.626922118328083755
0.468000000000000305,-6.581477109115738244
0.469000000000000306,-6.536150397141358148
0.470000000000000306,-6.490946219499131864
0.471000000000000307,-6.445868730323793372
0.472000000000000308,-6.400921999758961256
0.473000000000000309,-6.356110013042124862
0.474000000000000310,-6.311436669702399804
0.475000000000000311,-6.266905782866897923
0.476000000000000312,-6.222521078671913841
0.477000000000000313,-6.178286195774793654
0.478000000000000314,-6.134204684962877963
0.479000000000000314,-6.090280008855663674
0.480000000000000315,-6.046515541696449780
0.481000000000000316,-6.002914569229949038
0.482000000000000317,-5.959480288662212466
0.483000000000000318,-5.916215808699465839
0.484000000000000319,-5.873124149662384497
0.485000000000000320,-5.830208243672574397
0.486000000000000321,-5.787470934907908315
0.487000000000000322,-5.744914979923606779
0.488000000000000322,-5.702543048035885853
0.489000000000000323,-5.660357721765281624
0.490000000000000324,-5.618361497336551658
0.491000000000000325,-5.576556785232403612
0.492000000000000326,-5.534945910798116486
0.493000000000000327,-5.493531114894524947
0.494000000000000328,-5.452314554596499718
0.495000000000000329,-5.411298303934548137
0.496000000000000330,-5.370484354676898775
0.497000000000000330,-5.329874617149717331
0.498000000000000331,-5.289470921093047728
0.499000000000000332,-5.249275016550280171
0.500000000000000333,-5.209288574788838666
0.501000000000000334,-5.169513189250006135
0.502000000000000335,-5.129950376525767908
0.503000000000000336,-5.090601577360774677
0.504000000000000337,-5.051468157677329707
0.505000000000000338,-5.012551409621655019
0.506000000000000338,-4.973852552629578483
0.507000000000000339,-4.935372734509900994
0.508000000000000340,-4.897113032543734867
0.509000000000000341,-4.859074454598293791
0.510000000000000342,-4.821257940253429020
0.511000000000000343,-4.783664361939517384
0.512000000000000344,-4.746294526085211629
0.513000000000000345,-4.709149174273659533
0.514000000000000346,-4.672228984405917274
0.515000000000000346,-4.635534571870174148
0.516000000000000347,-4.599066490715630451
0.517000000000000348,-4.562825234829904986
0.518000000000000349,-4.526811239118659458
0.519000000000000350,-4.491024880686590670
0.520000000000000351,-4.455466480018591469
0.521000000000000352,-4.420136302160183384
0.522000000000000353,-4.385034557896252849
0.523000000000000353,-4.350161404927150421
0.524000000000000354,-4.315516949041446004
0.525000000000000355,-4.281101245284326673
0.526000000000000356,-4.246914299121027803
0.527000000000000357,-4.212956067594506138
0.528000000000000358,-4.179226460476633598
0.529000000000000359,-4.145725341412314968
0.530000000000000360,-4.112452529055853567
0.531000000000000361,-4.079407798199015112
0.532000000000000361,-4.046590880890211572
0.533000000000000362,-4.014001467544312973
0.534000000000000363,-3.981639208042559996
0.535000000000000364,-3.949503712822151957
0.536000000000000365,-3.917594553955056291
0.537000000000000366,-3.885911266215676729
0.538000000000000367,-3.854453348136919200
0.539000000000000368,-3.823220263054459167
0.540000000000000369,-3.792211440138694822
0.541000000000000369,-3.761426275414284870
0.542000000000000370,-3.730864132766850361
0.543000000000000371,-3.700524344936644727
0.544000000000000372,-3.670406214498994846
0.545000000000000373,-3.640509014831264434
0.546000000000000374,-3.610831991066138613
0.547000000000000375,-3.581374361031102183
0.548000000000000376,-3.552135316173980151
0.549000000000000377,-3.523114022474337137
0.550000000000000377,-3.494309621340674799
0.551000000000000378,-3.465721230493323812
0.552000000000000379,-3.437347944832966018
0.553000000000000380,-3.409188837294673924
0.554000000000000381,-3.381242959687438709
0.555000000000000382,-3.353509343519234243
0.556000000000000383,-3.325987000807383964
0.557000000000000384,-3.298674924874496206
0.558000000000000385,-3.271572091129718807
0.559000000000000385,-3.244677457835501322
0.560000000000000386,-3.217989966859778228
0.561000000000000387,-3.191508544413691695
0.562000000000000388,-3.165232101774823725
0.563000000000000389,-3.139159535996060235
0.564000000000000390,-3.113289730600082628
0.565000000000000391,-3.087621556259629862
0.566000000000000392,-3.062153871463539012
0.567000000000000393,-3.036885523168728174
0.568000000000000393,-3.011815347438135060
0.569000000000000394,-2.986942170064767588
0.570000000000000395,-2.962264807181988591
0.571000000000000396,-2.937782065860056413
0.572000000000000397,-2.913492744689175851
0.573000000000000398,-2.889395634349046560
0.574000000000000399,-2.865489518165163840
0.575000000000000400,-2.841773172651886448
0.576000000000000401,-2.818245368042510357
0.577000000000000401,-2.794904868806440845
0.578000000000000402,-2.771750434153604559
0.579000000000000403,-2.748780818526262770
0.580000000000000404,-2.725994772078403461
0.581000000000000405,-2.703391041142808149
0.582000000000000406,-2.680968368686019065
0.583000000000000407,-2.658725494751285723
0.584000000000000408,-2.636661156889758661
0.585000000000000409,-2.614774090579986776
0.586000000000000409,-2.593063029635944705
0.587000000000000410,-2.571526706603767920
0.588000000000000411,-2.550163853147296322
0.589000000000000412,-2.528973200422691914
0.590000000000000413,-2.507953479442193157
0.591000000000000414,-2.487103421427258709
0.592000000000000415,-2.466421758151267518
0.593000000000000416,-2.445907222271869408
0.594000000000000417,-2.425558547653233532
0.595000000000000417,-2.405374469678398963
0.596000000000000418,-2.385353725551722981
0.597000000000000419,-2.365495054591862267
0.598000000000000420,-2.345797198515193305
0.599000000000000421,-2.326258901710050786
0.600000000000000422,-2.306878911501815566
0.601000000000000423,-2.287655978409103508
0.602000000000000424,-2.268588856391180464
0.603000000000000425,-2.249676303086792561
0.604000000000000425,-2.230917080044563683
0.605000000000000426,-2.212309952945131997
0.606000000000000427,-2.193853691815233820
0.607000000000000428,-2.175547071233748575
0.608000000000000429,-2.157388870530128955
0.609000000000000430,-2.139377873975064404
