# hydroxyapatite-101-ph10_BSAIV6
# h[nm],U(h)[kJ/mol]
0.149999999999999994,104.916652786426993771
0.150999999999999995,102.693963518271360158
0.151999999999999996,100.573813261592960089
0.152999999999999997,98.492072423575464768
0.153999999999999998,96.432364235166929234
0.154999999999999999,94.397618474965426572
0.156000000000000000,92.395846257898710974
0.157000000000000001,90.433922593927334788
0.158000000000000002,88.515608435317318481
0.159000000000000002,86.641602024812954141
0.160000000000000003,84.810382512858183190
0.161000000000000004,83.019201127274328655
0.162000000000000005,81.264923409509890462
0.163000000000000006,79.544620879932338653
0.164000000000000007,77.855911384108836160
0.165000000000000008,76.197092653386178540
0.166000000000000009,74.567127575494069447
0.167000000000000010,72.965537327563055214
0.168000000000000010,71.392248854334937391
0.169000000000000011,69.847431301434284023
0.170000000000000012,68.331344650564005860
0.171000000000000013,66.844214202740019459
0.172000000000000014,65.386137121294964913
0.173000000000000015,63.957021921596513891
0.174000000000000016,62.556558300064480704
0.175000000000000017,61.184212670843706405
0.176000000000000018,59.839243862057209355
0.177000000000000018,58.520733290741965504
0.178000000000000019,57.227624316976005048
0.179000000000000020,55.958766161798372707
0.180000000000000021,54.712958602438583000
0.181000000000000022,53.488994520323998927
0.182000000000000023,52.285698198051989039
0.183000000000000024,51.101957995897599574
0.184000000000000025,49.936752663128999075
0.185000000000000026,48.789171046603549087
0.186000000000000026,47.658425351497498923
0.187000000000000027,46.543858395874877942
0.188000000000000028,45.444945495112264666
0.189000000000000029,44.361291728545076296
0.190000000000000030,43.292625393806837053
0.191000000000000031,42.238788458111130808
0.192000000000000032,41.199724782725141381
0.193000000000000033,40.175466837994974867
0.194000000000000034,39.166121550660044193
0.195000000000000034,38.171855840278553273
0.196000000000000035,37.192882313250080983
0.197000000000000036,36.229445495621519058
0.198000000000000037,35.281808902840609221
0.199000000000000038,34.350243168097406965
0.200000000000000039,33.435015382250014682
0.201000000000000040,32.536379738283677909
0.202000000000000041,31.654569522004500470
0.203000000000000042,30.789790448038587556
0.204000000000000042,29.942215305736947784
0.205000000000000043,29.111979852638359745
0.206000000000000044,28.299179872960678495
0.207000000000000045,27.503869304373779414
0.208000000000000046,26.726059327234310103
0.209000000000000047,25.965718305737489402
0.210000000000000048,25.222772469312520371
0.211000000000000049,24.497107224360313182
0.212000000000000050,23.788568990476466780
0.213000000000000050,23.096967461066800098
0.214000000000000051,22.422078195258247746
0.215000000000000052,21.763645455824249808
0.216000000000000053,21.121385216132321005
0.217000000000000054,20.494988267594255404
0.218000000000000055,19.884123367526257198
0.219000000000000056,19.288440375526693771
0.220000000000000057,18.707573334309262947
0.221000000000000058,18.141143458296177471
0.222000000000000058,17.588762000100214067
0.223000000000000059,17.050032971271924964
0.224000000000000060,16.524555699332161396
0.225000000000000061,16.011927208149025148
0.226000000000000062,15.511744413163558676
0.227000000000000063,15.023606126839519348
0.228000000000000064,14.547114873040934313
0.229000000000000065,14.081878511859041936
0.230000000000000066,13.627511678759461233
0.231000000000000066,13.183637043838064784
0.232000000000000067,12.749886398504818530
0.233000000000000068,12.325901578096894795
0.234000000000000069,11.911335229797620272
0.235000000000000070,11.505851435843149844
0.236000000000000071,11.109126202371571779
0.237000000000000072,10.720847824440921769
0.238000000000000073,10.340717137746441523
0.239000000000000073,9.968447667431075132
0.240000000000000074,9.603765684130173952
0.241000000000000075,9.246410177047906132
0.242000000000000076,8.896132753446588382
0.243000000000000077,8.552697473459705435
0.244000000000000078,8.215880628630706894
0.245000000000000079,7.885470472045379431
0.246000000000000080,7.561266907378279889
0.247000000000000081,7.243081143620817564
0.248000000000000081,6.930735321711066099
0.249000000000000082,6.624062118747272798
0.250000000000000111,6.322904334944769111
0.251000000000000112,6.027114467994048042
0.252000000000000113,5.736554278997185286
0.253000000000000114,5.451094353707072848
0.254000000000000115,5.170613662364883290
0.255000000000000115,4.894999121032312495
0.256000000000000116,4.624145156942696566
0.257000000000000117,4.357953280051294342
0.258000000000000118,4.096331662648940330
0.259000000000000119,3.839194728613550378
0.260000000000000120,3.586462753610287102
0.261000000000000121,3.338061477312857850
0.262000000000000122,3.093921728502726509
0.263000000000000123,2.853979063710677888
0.264000000000000123,2.618173419892686038
0.265000000000000124,2.386448781479928449
0.266000000000000125,2.158752862008046058
0.267000000000000126,1.935036800413392211
0.268000000000000127,1.715254871981208851
0.269000000000000128,1.499364213842760307
0.270000000000000129,1.287324564842742713
0.271000000000000130,1.079098019534171282
0.272000000000000131,0.874648796004686035
0.273000000000000131,0.673943017193901595
0.274000000000000132,0.476948505325790806
0.275000000000000133,0.283634589051690422
0.276000000000000134,0.093971922877856162
0.277000000000000135,-0.092067681564214701
0.278000000000000136,-0.274511412857531056
0.279000000000000137,-0.453385606208446645
0.280000000000000138,-0.628715879386091858
0.281000000000000139,-0.800527258653298213
0.282000000000000139,-0.968844295146204515
0.283000000000000140,-1.133691172153942217
0.284000000000000141,-1.295091803741752701
0.285000000000000142,-1.453069925151618147
0.286000000000000143,-1.607649175403504271
0.287000000000000144,-1.758853172508460627
0.288000000000000145,-1.906705581692559104
0.289000000000000146,-2.051230177016807321
0.290000000000000147,-2.192450896765270052
0.291000000000000147,-2.330391892959171152
0.292000000000000148,-2.465077575341307892
0.293000000000000149,-2.596532650160688238
0.294000000000000150,-2.724782154073719376
0.295000000000000151,-2.849851483464552082
0.296000000000000152,-2.971766419473592435
0.297000000000000153,-3.090553149010185852
0.298000000000000154,-3.206238282012581209
0.299000000000000155,-3.318848865205866083
0.300000000000000155,-3.428412392596501768
0.301000000000000156,-3.534956812930306391
0.302000000000000157,-3.638510534329798762
0.303000000000000158,-3.739102426315648042
0.304000000000000159,-3.836761819406921070
0.305000000000000160,-3.931518502484573130
0.306000000000000161,-4.023402718093328723
0.307000000000000162,-4.112445155847867184
0.308000000000000163,-4.198676944100473207
0.309000000000000163,-4.282129640019035399
0.310000000000000164,-4.362835218216337019
0.311000000000000165,-4.440826058063903403
0.312000000000000166,-4.516134929816550958
0.313000000000000167,-4.588794979666795726
0.314000000000000168,-4.658839713841674168
0.315000000000000169,-4.726302981848375495
0.316000000000000170,-4.791218958969013286
0.317000000000000171,-4.853622128099194022
0.318000000000000171,-4.913547261019556522
0.319000000000000172,-4.971029399184481612
0.320000000000000173,-5.026103834106921298
0.321000000000000174,-5.078806087413901160
0.322000000000000175,-5.129171890642554743
0.323000000000000176,-5.177237164842424910
0.324000000000000177,-5.223038000045585605
0.325000000000000178,-5.266610634662218793
0.326000000000000179,-5.307991434855802382
0.327000000000000179,-5.347216873948193339
0.328000000000000180,-5.384323511901731862
0.329000000000000181,-5.419347974922306577
0.330000000000000182,-5.452326935223926085
0.331000000000000183,-5.483297090992916623
0.332000000000000184,-5.512295146586524197
0.333000000000000185,-5.539357792998401919
0.334000000000000186,-5.564521688620783557
0.335000000000000187,-5.587823440330589975
0.336000000000000187,-5.609299584924742454
0.337000000000000188,-5.628986570927184019
0.338000000000000189,-5.646920740788599957
0.339000000000000190,-5.663138313497424470
0.340000000000000191,-5.677675367618829405
0.341000000000000192,-5.690567824776811889
0.342000000000000193,-5.701851433592433516
0.343000000000000194,-5.711561754089929721
0.344000000000000195,-5.719734142580455760
0.345000000000000195,-5.726403737032244479
0.346000000000000196,-5.731605442933992656
0.347000000000000197,-5.735373919657373420
0.348000000000000198,-5.737743567323111193
0.349000000000000199,-5.738748514173795279
0.350000000000000200,-5.738422604455695186
0.351000000000000201,-5.736799386810547574
0.352000000000000202,-5.733912103177321917
0.353000000000000203,-5.729793678203169094
0.354000000000000203,-5.724476709161685051
0.355000000000000204,-5.717993456375811689
0.356000000000000205,-5.710375834142010554
0.357000000000000206,-5.701655402151605045
0.358000000000000207,-5.691863357404272961
0.359000000000000208,-5.681030526608408238
0.360000000000000209,-5.669187359062201281
0.361000000000000210,-5.656363920008812052
0.362000000000000210,-5.642589884458584670
0.363000000000000211,-5.627894531470686523
0.364000000000000212,-5.612306738886247537
0.365000000000000213,-5.595854978504537947
0.366000000000000214,-5.578567311693571007
0.367000000000000215,-5.560471385426010826
0.368000000000000216,-5.541594428731160704
0.369000000000000217,-5.521963249553413000
0.370000000000000218,-5.501604232007470507
0.371000000000000218,-5.480543334020284263
0.372000000000000219,-5.458806085349687365
0.373000000000000220,-5.436417585969465449
0.374000000000000221,-5.413402504810491678
0.375000000000000222,-5.389785078847447508
0.376000000000000223,-5.365589112520771309
0.377000000000000224,-5.340837977483182897
0.378000000000000225,-5.315554612660272404
0.379000000000000226,-5.289761524614565502
0.380000000000000226,-5.263480788202675953
0.381000000000000227,-5.236734047514799428
0.382000000000000228,-5.209542517086357627
0.383000000000000229,-5.181926983371266893
0.384000000000000230,-5.153907806466508035
0.385000000000000231,-5.125504922077954717
0.386000000000000232,-5.096737843717146887
0.387000000000000233,-5.067625665119213529
0.388000000000000234,-5.038187062871918087
0.389000000000000234,-5.008440299246269767
0.390000000000000235,-4.978403225218960948
0.391000000000000236,-4.948093283677353682
0.392000000000000237,-4.917527512797609468
0.393000000000000238,-4.886722549587009468
0.394000000000000239,-4.855694633581390640
0.395000000000000240,-4.824459610689070033
0.396000000000000241,-4.793032937172635677
0.397000000000000242,-4.761429683760206366
0.398000000000000242,-4.729664539878037921
0.399000000000000243,-4.697751817996413948
0.400000000000000244,-4.665705458081021995
0.401000000000000245,-4.633539032142309111
0.402000000000000246,-4.601265748875262851
0.403000000000000247,-4.568898458382514960
0.404000000000000248,-4.536449656973753797
0.405000000000000249,-4.503931492034618067
0.406000000000000250,-4.471355766958476252
0.407000000000000250,-4.438733946134703956
0.408000000000000251,-4.406077159987256131
0.409000000000000252,-4.373396210057533651
0.410000000000000253,-4.340701574125725770
0.411000000000000254,-4.308003411365071145
0.412000000000000255,-4.275311567523541356
0.413000000000000256,-4.242635580127863903
0.414000000000000257,-4.209984683704677266
0.415000000000000258,-4.177367815014173758
0.416000000000000258,-4.144793618291419790
0.417000000000000259,-4.112270450490980167
0.418000000000000260,-4.079806386530522744
0.419000000000000261,-4.047409224529294747
0.420000000000000262,-4.015086491037514804
0.421000000000000263,-3.982845446253000965
0.422000000000000264,-3.950693089221306131
0.423000000000000265,-3.918636163016005813
0.424000000000000266,-3.886681159895915894
0.425000000000000266,-3.854834326435994996
0.426000000000000267,-3.823101668629095506
0.427000000000000268,-3.791488956955681999
0.428000000000000269,-3.760001731418868953
0.429000000000000270,-3.728645306542320181
0.430000000000000271,-3.697424776328502194
0.431000000000000272,-3.666345019175198949
0.432000000000000273,-3.635410702748057332
0.433000000000000274,-3.604626288807263990
0.434000000000000274,-3.573996037986436392
0.435000000000000275,-3.543524014522037469
0.436000000000000276,-3.513214090931695122
0.437000000000000277,-3.483069952639868738
0.438000000000000278,-3.453095102549536222
0.439000000000000279,-3.423292865558618558
0.440000000000000280,-3.393666393019876271
0.441000000000000281,-3.364218667143288322
0.442000000000000282,-3.334952505339908946
0.443000000000000282,-3.305870564506256049
0.444000000000000283,-3.276975345248506866
0.445000000000000284,-3.248269196045752150
0.446000000000000285,-3.219754317351610773
0.447000000000000286,-3.191432765633840596
0.448000000000000287,-3.163306457351221290
0.449000000000000288,-3.135377172867545248
0.450000000000000289,-3.107646560302224970
0.451000000000000290,-3.080116139317320645
0.452000000000000290,-3.052787304840829385
0.453000000000000291,-3.025661330726008735
0.454000000000000292,-2.998739373346777981
0.455000000000000293,-2.972022475129065811
0.456000000000000294,-2.945511568018244652
0.457000000000000295,-2.919207476882695218
0.458000000000000296,-2.893110922853622924
0.459000000000000297,-2.867222526601383326
0.460000000000000298,-2.841542811548465775
0.461000000000000298,-2.816072207019494122
0.462000000000000299,-2.790811051328501602
0.463000000000000300,-2.765759594803842258
0.464000000000000301,-2.740918002751166149
0.465000000000000302,-2.716286358354857988
0.466000000000000303,-2.691864665518374444
0.467000000000000304,-2.667652851644007228
0.468000000000000305,-2.643650770352570678
0.469000000000000306,-2.619858204143529434
0.470000000000000306,-2.596274866996213238
0.471000000000000307,-2.572900406912570936
0.472000000000000308,-2.549734408402236863
0.473000000000000309,-2.526776394910404289
0.474000000000000310,-2.504025831189237827
0.475000000000000311,-2.481482125613436729
0.476000000000000312,-2.459144632440708911
0.477000000000000313,-2.437012654017746804
0.478000000000000314,-2.415085442932482174
0.479000000000000314,-2.393362204113356650
0.480000000000000315,-2.371842096876255912
0.481000000000000316,-2.350524236919958376
0.482000000000000317,-2.329407698270736127
0.483000000000000318,-2.308491515176952280
0.484000000000000319,-2.287774683954360899
0.485000000000000320,-2.267256164782912364
0.486000000000000321,-2.246934883455809828
0.487000000000000322,-2.226809733081618337
0.488000000000000322,-2.206879575740142485
0.489000000000000323,-2.187143244092961680
0.490000000000000324,-2.167599542949292246
0.491000000000000325,-2.148247250788030804
0.492000000000000326,-2.129085121236692579
0.493000000000000327,-2.110111884508112823
0.494000000000000328,-2.091326248795597920
0.495000000000000329,-2.072726901627368168
0.496000000000000330,-2.054312511181004108
0.497000000000000330,-2.036081727558751719
0.498000000000000331,-2.018033184024321969
0.499000000000000332,-2.000165498202093772
0.500000000000000333,-1.982477273239365179
0.501000000000000334,-1.964967098932428824
0.502000000000000335,-1.947633552817260139
0.503000000000000336,-1.930475201225494875
0.504000000000000337,-1.913490600306475553
0.505000000000000338,-1.896678297016062942
0.506000000000000338,-1.880036830072945531
0.507000000000000339,-1.863564730883155107
0.508000000000000340,-1.847260524433473661
0.509000000000000341,-1.831122730154483680
0.510000000000000342,-1.815149862753867804
0.511000000000000343,-1.799340433020710339
0.512000000000000344,-1.783692948601419470
0.513000000000000345,-1.768205914747966290
0.514000000000000346,-1.752877835039094778
0.515000000000000346,-1.737707212075113361
0.516000000000000347,-1.722692548146929514
0.517000000000000348,-1.707832345879990443
0.518000000000000349,-1.693125108853644090
0.519000000000000350,-1.678569342196659209
0.520000000000000351,-1.664163553159391684
0.521000000000000352,-1.649906251663273427
0.522000000000000353,-1.635795950828133893
0.523000000000000353,-1.621831167477974178
0.524000000000000354,-1.608010422625745006
0.525000000000000355,-1.594332241937661099
0.526000000000000356,-1.580795156177607907
0.527000000000000357,-1.567397701632200713
0.528000000000000358,-1.554138420516955055
0.529000000000000359,-1.541015861364161355
0.530000000000000360,-1.528028579392894715
0.531000000000000361,-1.515175136861722116
0.532000000000000361,-1.502454103404533337
0.533000000000000362,-1.489864056350027166
0.534000000000000363,-1.477403581025272805
0.535000000000000364,-1.465071271043842938
0.536000000000000365,-1.452865728578939919
0.537000000000000366,-1.440785564621985371
0.538000000000000367,-1.428829399227049546
0.539000000000000368,-1.416995861741640494
0.540000000000000369,-1.405283591024137024
0.541000000000000369,-1.393691235648406357
0.542000000000000370,-1.382217454095884701
0.543000000000000371,-1.370860914935589037
0.544000000000000372,-1.359620296992403166
0.545000000000000373,-1.348494289504023724
0.546000000000000374,-1.337481592266907215
0.547000000000000375,-1.326580915771594871
0.548000000000000376,-1.315790981327765952
0.549000000000000377,-1.305110521179333904
0.550000000000000377,-1.294538278609928206
0.551000000000000378,-1.284073008039089858
0.552000000000000379,-1.273713475109499615
0.553000000000000380,-1.263458456765521820
0.554000000000000381,-1.253306741323387596
0.555000000000000382,-1.243257128533327371
0.556000000000000383,-1.233308429633862335
0.557000000000000384,-1.223459467398657630
0.558000000000000385,-1.213709076176068269
0.559000000000000385,-1.204056101921770594
0.560000000000000386,-1.194499402224641127
0.561000000000000387,-1.185037846326201461
0.562000000000000388,-1.175670315133821475
0.563000000000000389,-1.166395701227972426
0.564000000000000390,-1.157212908863714862
0.565000000000000391,-1.148120853966676069
0.566000000000000392,-1.139118464123725971
0.567000000000000393,-1.130204678568586418
0.568000000000000393,-1.121378448162541508
0.569000000000000394,-1.112638735370489851
0.570000000000000395,-1.103984514232533076
0.571000000000000396,-1.095414770331252230
0.572000000000000397,-1.086928500754931415
0.573000000000000398,-1.078524714056822376
0.574000000000000399,-1.070202430210715816
0.575000000000000400,-1.061960680562907600
0.576000000000000401,-1.053798507780778770
0.577000000000000401,-1.045714965798157703
0.578000000000000402,-1.037709119757566301
0.579000000000000403,-1.029780045949544087
0.580000000000000404,-1.021926831749214726
0.581000000000000405,-1.014148575550175568
0.582000000000000406,-1.006444386695912963
0.583000000000000407,-0.998813385408833576
0.584000000000000408,-0.991254702717071390
0.585000000000000409,-0.983767480379175496
0.586000000000000409,-0.976350870806805160
0.587000000000000410,-0.969004036985577799
0.588000000000000411,-0.961726152394123068
0.589000000000000412,-0.954516400921537889
0.590000000000000413,-0.947373976783258298
0.591000000000000414,-0.940298084435530312
0.592000000000000415,-0.933287938488539082
0.593000000000000416,-0.926342763618290155
0.594000000000000417,-0.919461794477353322
0.595000000000000417,-0.912644275604578281
0.596000000000000418,-0.905889461333793222
0.597000000000000419,-0.899196615701684188
0.598000000000000420,-0.892565012354821219
0.599000000000000421,-0.885993934456002608
0.600000000000000422,-0.879482674589932123
0.601000000000000423,-0.873030534668333025
0.602000000000000424,-0.866636825834557589
0.603000000000000425,-0.860300868367772198
0.604000000000000425,-0.854021991586753515
0.605000000000000426,-0.847799533753393675
0.606000000000000427,-0.841632841975978985
0.607000000000000428,-0.835521272112215940
0.608000000000000429,-0.829464188672223712
0.609000000000000430,-0.823460964721342448
0.610000000000000431,-0.817510981783005297
0.611000000000000432,-0.811613629741581022
0.612000000000000433,-0.805768306745289875
0.613000000000000433,-0.799974419109265811
