# hydroxyapatite-101-ph10_GLN-AC
# h[nm],U(h)[kJ/mol]
0.149999999999999994,133.219131100171864546
0.150999999999999995,130.457433162652193914
0.151999999999999996,127.834908796410829268
0.152999999999999997,125.315191558229486191
0.153999999999999998,122.875874978254955749
0.154999999999999999,120.501436289542496638
0.156000000000000000,118.180111477857693103
0.157000000000000001,115.902647645971413226
0.158000000000000002,113.661840030013081559
0.159000000000000002,111.452321632783281302
0.160000000000000003,109.270379296776425804
0.161000000000000004,107.113725917113242758
0.162000000000000005,104.981229364506901902
0.163000000000000006,102.872623918792029940
0.164000000000000007,100.788232750333037302
0.165000000000000008,98.728723286140422033
0.166000000000000009,96.694908086696202076
0.167000000000000010,94.687595455847215931
0.168000000000000010,92.707487692305988958
0.169000000000000011,90.755120876134697028
0.170000000000000012,88.830838070626924718
0.171000000000000013,86.934787329410511347
0.172000000000000014,85.066936437446969421
0.173000000000000015,83.227097456849307378
0.174000000000000016,81.414955563279434614
0.175000000000000017,79.630098111351657053
0.176000000000000018,77.872041206873433339
0.177000000000000018,76.140252205345944958
0.178000000000000019,74.434167464556409755
0.179000000000000020,72.753205352695587749
0.180000000000000021,71.096774971855097647
0.181000000000000022,69.464281331225691929
0.182000000000000023,67.855127830783999343
0.183000000000000024,66.268716930673548404
0.184000000000000025,64.704449816917261273
0.185000000000000026,63.161725759079487830
0.186000000000000026,61.639941713405370649
0.187000000000000027,60.138492573979178246
0.188000000000000028,58.656772327924656452
0.189000000000000029,57.194176237760153469
0.190000000000000030,55.750104060336823864
0.191000000000000031,54.323964220128708291
0.192000000000000032,52.915178785657573712
0.193000000000000033,51.523189050605822104
0.194000000000000034,50.147461493735058013
0.195000000000000034,48.787493881467476342
0.196000000000000035,47.442821280979394771
0.197000000000000036,46.113021766904466858
0.198000000000000037,44.797721628360264390
0.199000000000000038,43.496599912347562622
0.200000000000000039,42.209392172278469957
0.201000000000000040,40.935893324468523247
0.202000000000000041,39.675959549235301438
0.203000000000000042,38.429509205486745316
0.204000000000000042,37.196522757380058977
0.205000000000000043,35.977041738107644164
0.206000000000000044,34.771166798688490474
0.207000000000000045,33.579054908601413842
0.208000000000000046,32.400915790152652107
0.209000000000000047,31.237007679729394738
0.210000000000000048,30.087632516764482915
0.211000000000000049,28.953130665616424011
0.212000000000000050,27.833875276991044245
0.213000000000000050,26.730266394374474714
0.214000000000000051,25.642724907588785754
0.215000000000000052,24.571686450409281122
0.216000000000000053,23.517595332561796795
0.217000000000000054,22.480898588698174478
0.218000000000000055,21.462040218446123419
0.219000000000000056,20.461455682638209908
0.220000000000000057,19.479566711590770467
0.221000000000000058,18.516776472059955694
0.222000000000000058,17.573465130420835578
0.223000000000000059,16.649985840865827669
0.224000000000000060,15.746661179113724316
0.225000000000000061,14.863780034362386928
0.226000000000000062,14.001594965074655619
0.227000000000000063,13.160320017706391482
0.228000000000000064,12.340129001696615418
0.229000000000000065,11.541154208949347293
0.230000000000000066,10.763485561646600530
0.231000000000000066,10.007170168519053277
0.232000000000000067,9.272212266645436074
0.233000000000000068,8.558573523414732875
0.234000000000000069,7.866173671431091918
0.235000000000000070,7.194891447823631658
0.236000000000000071,6.544565808598323819
0.237000000000000072,5.914997388285222257
0.238000000000000073,5.305950175147804870
0.239000000000000073,4.717153372582427728
0.240000000000000074,4.148303417996089593
0.241000000000000075,3.599066131371416510
0.242000000000000076,3.069078966860939062
0.243000000000000077,2.557953342061937807
0.244000000000000078,2.065277021071217689
0.245000000000000079,1.590616528971791288
0.246000000000000080,1.133519577031264491
0.247000000000000081,0.693517479564701889
0.248000000000000081,0.270127545111648715
0.249000000000000082,-0.137144573726377672
0.250000000000000111,-0.528802585763446964
0.251000000000000112,-0.905357334352624554
0.252000000000000113,-1.267324648891186900
0.253000000000000114,-1.615223283905234952
0.254000000000000115,-1.949572953444935974
0.255000000000000115,-2.270892467128077019
0.256000000000000116,-2.579697972859341437
0.257000000000000117,-2.876501310026725822
0.258000000000000118,-3.161808475837624144
0.259000000000000119,-3.436118206407917874
0.260000000000000120,-3.699920673256527071
0.261000000000000121,-3.953696294984437198
0.262000000000000122,-4.197914663131133928
0.263000000000000123,-4.433033580497846238
0.264000000000000123,-4.659498209605938968
0.265000000000000124,-4.877740328413909587
0.266000000000000125,-5.088177689946795645
0.267000000000000126,-5.291213482090961762
0.268000000000000127,-5.487235883473394082
0.269000000000000128,-5.676617711071065386
0.270000000000000129,-5.859716154980320724
0.271000000000000130,-6.036872595613560932
0.272000000000000131,-6.208412498475576413
0.273000000000000131,-6.374645381602084271
0.274000000000000132,-6.535864850712686192
0.275000000000000133,-6.692348697136918823
0.276000000000000134,-6.844359053610473254
0.277000000000000135,-6.992142603105556020
0.278000000000000136,-7.135930835952152052
0.279000000000000137,-7.275940350620977881
0.280000000000000138,-7.412373193671944804
0.281000000000000139,-7.545417234521198502
0.282000000000000139,-7.675246570841901317
0.283000000000000140,-7.802021960587109284
0.284000000000000141,-7.925891276804584606
0.285000000000000142,-8.046989981601374353
0.286000000000000143,-8.165441615808479270
0.287000000000000144,-8.281358301090879337
0.288000000000000145,-8.394841251445225083
0.289000000000000146,-8.505981291222797225
0.290000000000000147,-8.614859377011201857
0.291000000000000147,-8.721547120899639793
0.292000000000000148,-8.826107312842193409
0.293000000000000149,-8.928594440017626255
0.294000000000000150,-9.029055201263936681
0.295000000000000151,-9.127529014840011001
0.296000000000000152,-9.224048517934418712
0.297000000000000153,-9.318640056502973223
0.298000000000000154,-9.411324164171158912
0.299000000000000155,-9.502116029085403426
0.300000000000000155,-9.591025947737255919
0.301000000000000156,-9.678059764917835039
0.302000000000000157,-9.763219299085767133
0.303000000000000158,-9.846502752549998405
0.304000000000000159,-9.927905105980364908
0.305000000000000160,-10.007418496862422685
0.306000000000000161,-10.085032581610182234
0.307000000000000162,-10.160734881140291108
0.308000000000000163,-10.234511109794315331
0.309000000000000163,-10.306345487572629693
0.310000000000000164,-10.376221035713664165
0.311000000000000165,-10.444119855716579082
0.312000000000000166,-10.510023391963825290
0.313000000000000167,-10.573912678152904476
0.314000000000000168,-10.635768567794020356
0.315000000000000169,-10.695571949072752105
0.316000000000000170,-10.753303944414522419
0.317000000000000171,-10.808946095120472108
0.318000000000000171,-10.862480531472977319
0.319000000000000172,-10.913890128734136553
0.320000000000000173,-10.963158649480783779
0.321000000000000174,-11.010270872737311976
0.322000000000000175,-11.055212710381450592
0.323000000000000176,-11.097971311309049014
0.324000000000000177,-11.138535153852021864
0.325000000000000178,-11.176894126948949904
0.326000000000000179,-11.213039600571125476
0.327000000000000179,-11.246964485907279041
0.328000000000000180,-11.278663285809244599
0.329000000000000181,-11.308132135997883694
0.330000000000000182,-11.335368837523363439
0.331000000000000183,-11.360372880968427012
0.332000000000000184,-11.383145462875065235
0.333000000000000185,-11.403689494866593890
0.334000000000000186,-11.422009605927371467
0.335000000000000187,-11.438112138291472775
0.336000000000000187,-11.452005137380435684
0.337000000000000188,-11.463698336217570173
0.338000000000000189,-11.473203134734067277
0.339000000000000190,-11.480532574368577770
0.340000000000000191,-11.485701308348245320
0.341000000000000192,-11.488725568025726531
0.342000000000000193,-11.489623125631975853
0.343000000000000194,-11.488413253790939805
0.344000000000000195,-11.485116682127294752
0.345000000000000195,-11.479755551284734238
0.346000000000000196,-11.472353364657237762
0.347000000000000197,-11.462934938122160133
0.348000000000000198,-11.451526348049434034
0.349000000000000199,-11.438154877847406254
0.350000000000000200,-11.422848963292292268
0.351000000000000201,-11.405638136874333810
0.352000000000000202,-11.386552971380973887
0.353000000000000203,-11.365625022924126242
0.354000000000000203,-11.342886773606331019
0.355000000000000204,-11.318371574007908720
0.356000000000000205,-11.292113585665715547
0.357000000000000206,-11.264147723702494730
0.358000000000000207,-11.234509599754122888
0.359000000000000208,-11.203235465332166854
0.360000000000000209,-11.170362155747872279
0.361000000000000210,-11.135927034714182327
0.362000000000000210,-11.099967939732611200
0.363000000000000211,-11.062523128362453662
0.364000000000000212,-11.023631225461224759
0.365000000000000213,-10.983331171476333310
0.366000000000000214,-10.941662171860338404
0.367000000000000215,-10.898663647674078803
0.368000000000000216,-10.854375187434950334
0.369000000000000217,-10.808836500260246893
0.370000000000000218,-10.762087370349345150
0.371000000000000218,-10.714167612841714927
0.372000000000000219,-10.665117031082347765
0.373000000000000220,-10.614975375320247153
0.374000000000000221,-10.563782302860543538
0.375000000000000222,-10.511577339685720389
0.376000000000000223,-10.458399843557042885
0.377000000000000224,-10.404288968602696031
0.378000000000000225,-10.349283631395200800
0.379000000000000226,-10.293422478516884411
0.380000000000000226,-10.236743855608812837
0.381000000000000227,-10.179285777894964582
0.382000000000000228,-10.121085902170952053
0.383000000000000229,-10.062181500243358556
0.384000000000000230,-10.002609433803424821
0.385000000000000231,-9.942406130716573642
0.386000000000000232,-9.881607562706950176
0.387000000000000233,-9.820249224414324019
0.388000000000000234,-9.758366113798944141
0.389000000000000234,-9.695992713868498925
0.390000000000000235,-9.633162975699628205
0.391000000000000236,-9.569910302725649132
0.392000000000000237,-9.506267536260597950
0.393000000000000238,-9.442266942229199600
0.394000000000000239,-9.377940199071211680
0.395000000000000240,-9.313318386788145276
0.396000000000000241,-9.248431977099786039
0.397000000000000242,-9.183310824677274553
0.398000000000000242,-9.117984159419577850
0.399000000000000243,-9.052480579739542677
0.400000000000000244,-8.986828046825749539
0.401000000000000245,-8.921053879846484236
0.402000000000000246,-8.855184752061791897
0.403000000000000247,-8.789246687810031489
0.404000000000000248,-8.723265060335288368
0.405000000000000249,-8.657264590422384387
0.406000000000000250,-8.591269345806336943
0.407000000000000250,-8.525302741323628197
0.408000000000000251,-8.459387539772899700
0.409000000000000252,-8.393545853453231231
0.410000000000000253,-8.327799146348541015
0.411000000000000254,-8.262168236927168508
0.412000000000000255,-8.196673301526349320
0.413000000000000256,-8.131333878291718165
0.414000000000000257,-8.066168871642560134
0.415000000000000258,-8.001196557234424134
0.416000000000000258,-7.936434587390905904
0.417000000000000259,-7.871899996977494318
0.418000000000000260,-7.807609209690755669
0.419000000000000261,-7.743578044736922905
0.420000000000000262,-7.679821723874660222
0.421000000000000263,-7.616354878797478634
0.422000000000000264,-7.553191558831853669
0.423000000000000265,-7.490345238927941018
0.424000000000000266,-7.427828827920589738
0.425000000000000266,-7.365654677038679488
0.426000000000000267,-7.303834588641981540
0.427000000000000268,-7.242379825165102147
0.428000000000000269,-7.181301118248936355
0.429000000000000270,-7.120608678040771800
0.430000000000000271,-7.060312202644669632
0.431000000000000272,-7.000420887704747130
0.432000000000000273,-6.940943436104336506
0.433000000000000274,-6.881888067764954542
0.434000000000000274,-6.823262529529351639
0.435000000000000275,-6.765074105113924929
0.436000000000000276,-6.707329625116078553
0.437000000000000277,-6.650035477062886002
0.438000000000000278,-6.593197615488063157
0.439000000000000279,-6.536821572024793525
0.440000000000000280,-6.480912465502433051
0.441000000000000281,-6.425475012035930078
0.442000000000000282,-6.370513535097159341
0.443000000000000282,-6.316031975557903522
0.444000000000000283,-6.262033901694960214
0.445000000000000284,-6.208522519148101715
0.446000000000000285,-6.155500680822189707
0.447000000000000286,-6.102970896725516958
0.448000000000000287,-6.050935343736339789
0.449000000000000288,-5.999395875290700175
0.450000000000000289,-5.948354030984505769
0.451000000000000290,-5.897811046083614173
0.452000000000000290,-5.847767860936022188
0.453000000000000291,-5.798225130280505013
0.454000000000000292,-5.749183232446688052
0.455000000000000293,-5.700642278441652167
0.456000000000000294,-5.652602120918829520
0.457000000000000295,-5.605062363024969407
0.458000000000000296,-5.558022367121562723
0.459000000000000297,-5.511481263377314477
0.460000000000000298,-5.465437958228546833
0.461000000000000298,-5.419891142704810427
0.462000000000000299,-5.374839300617178850
0.463000000000000300,-5.330280716606994318
0.464000000000000301,-5.286213484053168266
0.465000000000000302,-5.242635512836320899
0.466000000000000303,-5.199544536958254248
0.467000000000000304,-5.156938122015633397
0.468000000000000305,-5.114813672526791422
0.469000000000000306,-5.073168439110909311
0.470000000000000306,-5.031999525519029959
0.471000000000000307,-4.991303895516365330
0.472000000000000308,-4.951078379615872826
0.473000000000000309,-4.911319681662916103
0.474000000000000310,-4.872024385271207514
0.475000000000000311,-4.833188960110251564
0.476000000000000312,-4.794809768044852483
0.477000000000000313,-4.756883069127037622
0.478000000000000314,-4.719405027441281320
0.479000000000000314,-4.682371716803787720
0.480000000000000315,-4.645779126316709196
0.481000000000000316,-4.609623165778478082
0.482000000000000317,-4.573899670951251828
0.483000000000000318,-4.538604408686834901
0.484000000000000319,-4.503733081912336900
0.485000000000000320,-4.469281334477048340
0.486000000000000321,-4.435244755861964094
0.487000000000000322,-4.401618885753577182
0.488000000000000322,-4.368399218483494550
0.489000000000000323,-4.335581207335700071
0.490000000000000324,-4.303160268723090098
0.491000000000000325,-4.271131786235152994
0.492000000000000326,-4.239491114558577856
0.493000000000000327,-4.208233583272781075
0.494000000000000328,-4.177354500522159952
0.495000000000000329,-4.146849156567140149
0.496000000000000330,-4.116712827215902593
0.497000000000000330,-4.086940777138939218
0.498000000000000331,-4.057528263068300944
0.499000000000000332,-4.028470536883776099
0.500000000000000333,-3.999762848587962161
0.501000000000000334,-3.971400449172317160
0.502000000000000335,-3.943378593376346775
0.503000000000000336,-3.915692542341993487
0.504000000000000337,-3.888337566165327441
0.505000000000000338,-3.861308946347662641
0.506000000000000338,-3.834601978148222123
0.507000000000000339,-3.808211972840415349
0.508000000000000340,-3.782134259873851878
0.509000000000000341,-3.756364188944245619
0.510000000000000342,-3.730897131973161862
0.511000000000000343,-3.705728484999820438
0.512000000000000344,-3.680853669986918764
0.513000000000000345,-3.656268136542569547
0.514000000000000346,-3.631967363560426154
0.515000000000000346,-3.607946860779900788
0.516000000000000347,-3.584202170268577792
0.517000000000000348,-3.560728867828800936
0.518000000000000349,-3.537522564330289221
0.519000000000000350,-3.514578906970872829
0.520000000000000351,-3.491893580467137159
0.521000000000000352,-3.469462308176952892
0.522000000000000353,-3.447280853155742619
0.523000000000000353,-3.425345019148255066
0.524000000000000354,-3.403650651517850179
0.525000000000000355,-3.382193638114876499
0.526000000000000356,-3.360969910086047285
0.527000000000000357,-3.339975442626554436
0.528000000000000358,-3.319206255676546480
0.529000000000000359,-3.298658414563767849
0.530000000000000360,-3.278328030593935516
0.531000000000000361,-3.258211261590548524
0.532000000000000361,-3.238304312385678063
0.533000000000000362,-3.218603435263363455
0.534000000000000363,-3.199104930357137722
0.535000000000000364,-3.179805146003184646
0.536000000000000365,-3.160700479050656764
0.537000000000000366,-3.141787375130593141
0.538000000000000367,-3.123062328884831373
0.539000000000000368,-3.104521884156413947
0.540000000000000369,-3.086162634142744388
0.541000000000000369,-3.067981221512941836
0.542000000000000370,-3.049974338490637926
0.543000000000000371,-3.032138726903524706
0.544000000000000372,-3.014471178200953450
0.545000000000000373,-2.996968533440752758
0.546000000000000374,-2.979627683246504510
0.547000000000000375,-2.962445567736437191
0.548000000000000376,-2.945419176425128960
0.549000000000000377,-2.928545548099068530
0.550000000000000377,-2.911821770667224918
0.551000000000000378,-2.895244980987663030
0.552000000000000379,-2.878812364671272217
0.553000000000000380,-2.862521155863599454
0.554000000000000381,-2.846368637005755708
0.555000000000000382,-2.830352138575456422
0.556000000000000383,-2.814469038808961265
0.557000000000000384,-2.798716763405033614
0.558000000000000385,-2.783092785211617404
0.559000000000000385,-2.767594623896236339
0.560000000000000386,-2.752219845600868631
0.561000000000000387,-2.736966062582162351
0.562000000000000388,-2.721830932837762784
0.563000000000000389,-2.706812159719536037
0.564000000000000390,-2.691907491534418106
0.565000000000000391,-2.677114721133647901
0.566000000000000392,-2.662431685491051692
0.567000000000000393,-2.647856265271120613
0.568000000000000393,-2.633386384387452761
0.569000000000000394,-2.619020009552304629
0.570000000000000395,-2.604755149817824300
0.571000000000000396,-2.590589856109536182
0.572000000000000397,-2.576522220752766934
0.573000000000000398,-2.562550376992438039
0.574000000000000399,-2.548672498506916906
0.575000000000000400,-2.534886798916333284
0.576000000000000401,-2.521191531285932985
0.577000000000000401,-2.507584987624990269
0.578000000000000402,-2.494065498381682566
0.579000000000000403,-2.480631431934416931
0.580000000000000404,-2.467281194080114481
0.581000000000000405,-2.454013227519769025
0.582000000000000406,-2.440826011341795887
0.583000000000000407,-2.427718060503488928
0.584000000000000408,-2.414687925311043593
0.585000000000000409,-2.401734190898435095
0.586000000000000409,-2.388855476705578518
0.587000000000000410,-2.376050435956075013
0.588000000000000411,-2.363317755134854536
0.589000000000000412,-2.350656153466093023
0.590000000000000413,-2.338064382391622509
0.591000000000000414,-2.325541225050192118
0.592000000000000415,-2.313085495757837950
0.593000000000000416,-2.300696039489583011
0.594000000000000417,-2.288371731362789596
0.595000000000000417,-2.276111476122397725
0.596000000000000418,-2.263914207628180630
0.597000000000000419,-2.251778888344421858
0.598000000000000420,-2.239704508832029539
0.599000000000000421,-2.227690087243444417
0.600000000000000422,-2.215734668820436681
0.601000000000000423,-2.203837325395011870
0.602000000000000424,-2.191997154893607025
0.603000000000000425,-2.180213280844714330
0.604000000000000425,-2.168484851890104537
0.605000000000000426,-2.156811041299786957
0.606000000000000427,-2.145191046490893427
0.607000000000000428,-2.133624088550477360
0.608000000000000429,-2.122109411762591158
0.609000000000000430,-2.110646283139464785
0.610000000000000431,-2.099233991957175416
0.611000000000000432,-2.087871849295704685
