# hydroxyapatite-101-ph10_SULFAMIDHYD-AC
# h[nm],U(h)[kJ/mol]
0.149999999999999994,85.022258333966391319
0.150999999999999995,82.833312796156263857
0.151999999999999996,80.832200691232372947
0.152999999999999997,78.893955683617718933
0.153999999999999998,76.975370211788074926
0.154999999999999999,75.069147224735985446
0.156000000000000000,73.180553949222073129
0.157000000000000001,71.316712663337199274
0.158000000000000002,69.482601642932777963
0.159000000000000002,67.680321071248130238
0.160000000000000003,65.909710345076533144
0.161000000000000004,64.169323713214879490
0.162000000000000005,62.457305065577067182
0.163000000000000006,60.771997078259801128
0.164000000000000007,59.112269935254040831
0.165000000000000008,57.477620991176607390
0.166000000000000009,55.868116700578710265
0.167000000000000010,54.284244771451504619
0.168000000000000010,52.726731158907469421
0.169000000000000011,51.196360594260248433
0.170000000000000012,49.693824594401618810
0.171000000000000013,48.219608914698895319
0.172000000000000014,46.773923588228974779
0.173000000000000015,45.356672806369559225
0.174000000000000016,43.967458440078480919
0.175000000000000017,42.605609404416966868
0.176000000000000018,41.270228790430266486
0.177000000000000018,39.960251268699430227
0.178000000000000019,38.674504344080254725
0.179000000000000020,37.411768340798104759
0.180000000000000021,36.170831332058021701
0.181000000000000022,34.950536476014619325
0.182000000000000023,33.749820309130072360
0.183000000000000024,32.567741445276524814
0.184000000000000025,31.403499827466941241
0.185000000000000026,30.256447189139464626
0.186000000000000026,29.126089724036670958
0.187000000000000027,28.012084163578617080
0.188000000000000028,26.914228545389466518
0.189000000000000029,25.832448952565862044
0.190000000000000030,24.766783434275744469
0.191000000000000031,23.717364205108076192
0.192000000000000032,22.684399080582217323
0.193000000000000033,21.668152953274976369
0.194000000000000034,20.668929958874894481
0.195000000000000034,19.687056832029036002
0.196000000000000035,18.722867813603333076
0.197000000000000036,17.776691347417617806
0.198000000000000037,16.848838697521252072
0.199000000000000038,15.939594527280883440
0.200000000000000039,15.049209408665708665
0.201000000000000040,14.177894173185734417
0.202000000000000041,13.325815973578244211
0.203000000000000042,12.493095895903765680
0.204000000000000042,11.679807943440732032
0.205000000000000043,10.885979204886671923
0.206000000000000044,10.111591018168670786
0.207000000000000045,9.356580946046442193
0.208000000000000046,8.620845389209646825
0.209000000000000047,7.904242675451490285
0.210000000000000048,7.206596478637953496
0.211000000000000049,6.527699437656155901
0.212000000000000050,5.867316862544187828
0.213000000000000050,5.225190431965876847
0.214000000000000051,4.601041802610796871
0.215000000000000052,3.994576066616267074
0.216000000000000053,3.405485007465948399
0.217000000000000054,2.833450117851471273
0.218000000000000055,2.278145354596129657
0.219000000000000056,1.739239615899554892
0.220000000000000057,1.216398934880045246
0.221000000000000058,0.709288390723457063
0.222000000000000058,0.217573744763112142
0.223000000000000059,-0.259077186380740954
0.224000000000000060,-0.720993404778648816
0.225000000000000061,-1.168499833759365503
0.226000000000000062,-1.601916628709332713
0.227000000000000063,-2.021558674674536427
0.228000000000000064,-2.427735248908315047
0.229000000000000065,-2.820749826623278445
0.230000000000000066,-3.200900008760091620
0.231000000000000066,-3.568477551494214417
0.232000000000000067,-3.923768478379307201
0.233000000000000068,-4.267053257403784272
0.234000000000000069,-4.598607026749759186
0.235000000000000070,-4.918699854638589386
0.236000000000000071,-5.227597020276432360
0.237000000000000072,-5.525559304540349714
0.238000000000000073,-5.812843280636572629
0.239000000000000073,-6.089701596493010349
0.240000000000000074,-6.356383242100346109
0.241000000000000075,-6.613133796371576167
0.242000000000000076,-6.860195649342149871
0.243000000000000077,-7.097808196673456749
0.244000000000000078,-7.326208004448727884
0.245000000000000079,-7.545628943161742264
0.246000000000000080,-7.756302290596670090
0.247000000000000081,-7.958456803986235784
0.248000000000000081,-8.152318762418438780
0.249000000000000082,-8.338111980946667501
0.250000000000000111,-8.516057798250354693
0.251000000000000112,-8.686375040000005043
0.252000000000000113,-8.849279960310687088
0.253000000000000114,-9.004986163826279366
0.254000000000000115,-9.153704511074838734
0.255000000000000115,-9.295643009776416221
0.256000000000000116,-9.431006694778949040
0.257000000000000117,-9.559997499250510344
0.258000000000000118,-9.682814119673748721
0.259000000000000119,-9.799651877077703688
0.260000000000000120,-9.910702576808098740
0.261000000000000121,-10.016154368984306444
0.262000000000000122,-10.116191611625538371
0.263000000000000123,-10.210994738252702874
0.264000000000000123,-10.300740131591069826
0.265000000000000124,-10.385600004814284247
0.266000000000000125,-10.465742291586284551
0.267000000000000126,-10.541330545975622357
0.268000000000000127,-10.612523853139848029
0.269000000000000128,-10.679476751506253862
0.270000000000000129,-10.742339167012062262
0.271000000000000130,-10.801256359812461127
0.272000000000000131,-10.856368883719655472
0.273000000000000131,-10.907812558501214895
0.274000000000000132,-10.955718455041381532
0.275000000000000133,-11.000212893255616464
0.276000000000000134,-11.041417452545683631
0.277000000000000135,-11.079448994490590508
0.278000000000000136,-11.114419697387386776
0.279000000000000137,-11.146437102184737711
0.280000000000000138,-11.175604169290981105
0.281000000000000139,-11.202019345686995422
0.282000000000000139,-11.225776641731481931
0.283000000000000140,-11.246965717012596286
0.284000000000000141,-11.265671974573566061
0.285000000000000142,-11.281976662821797674
0.286000000000000143,-11.295956984419104785
0.287000000000000144,-11.307686211445329150
0.288000000000000145,-11.317233806128399465
0.289000000000000146,-11.324665546438968278
0.290000000000000147,-11.330043655858407448
0.291000000000000147,-11.333426936642990057
0.292000000000000148,-11.334870905925345852
0.293000000000000149,-11.334427934014998485
0.294000000000000150,-11.332147384283812741
0.295000000000000151,-11.328075754048080981
0.296000000000000152,-11.322256815886756698
0.297000000000000153,-11.314731758864784439
0.298000000000000154,-11.305539329160707140
0.299000000000000155,-11.294715969629191221
0.300000000000000155,-11.282295957860664970
0.301000000000000156,-11.268311542332323683
0.302000000000000157,-11.252793076276809359
0.303000000000000158,-11.235769148926546990
0.304000000000000159,-11.217266713823324409
0.305000000000000160,-11.197311213913229366
0.306000000000000161,-11.175926703177491817
0.307000000000000162,-11.153135964578918760
0.308000000000000163,-11.128960624131902790
0.309000000000000163,-11.103421260931344960
0.310000000000000164,-11.076537513002104873
0.311000000000000165,-11.048328178855372883
0.312000000000000166,-11.018811314662427137
0.313000000000000167,-10.988004326978556335
0.314000000000000168,-10.955924060971302225
0.315000000000000169,-10.922586884127131412
0.316000000000000170,-10.888008765429374236
0.317000000000000171,-10.852205350017614549
0.318000000000000171,-10.815192029354811609
0.319000000000000172,-10.776984006943530758
0.320000000000000173,-10.737596359646037314
0.321000000000000174,-10.697044094675684178
0.322000000000000175,-10.655342202338221824
0.323000000000000176,-10.612505704611903568
0.324000000000000177,-10.568549699664345098
0.325000000000000178,-10.523489402412035787
0.326000000000000179,-10.477340181235785366
0.327000000000000179,-10.430117590971100583
0.328000000000000180,-10.381837402297948714
0.329000000000000181,-10.332515627658883872
0.330000000000000182,-10.282168543837531871
0.331000000000000183,-10.230812711332918141
0.332000000000000184,-10.178464990666679313
0.333000000000000185,-10.125142555761877716
0.334000000000000186,-10.070862904532972948
0.335000000000000187,-10.015643866826561492
0.336000000000000187,-9.959503609852472295
0.337000000000000188,-9.902460641243735040
0.338000000000000189,-9.844533809882999975
0.339000000000000190,-9.785742304631225963
0.340000000000000191,-9.726105651092343152
0.341000000000000192,-9.665643706545642644
0.342000000000000193,-9.604376653174563572
0.343000000000000194,-9.542324989718135697
0.344000000000000195,-9.479509521667717209
0.345000000000000195,-9.415951350128940689
0.346000000000000196,-9.351671859464730119
0.347000000000000197,-9.286692703832015283
0.348000000000000198,-9.221035792720844171
0.349000000000000199,-9.154723275600725074
0.350000000000000200,-9.087777525775239340
0.351000000000000201,-9.020221123541819708
0.352000000000000202,-8.952076838749608356
0.353000000000000203,-8.883367612844404348
0.354000000000000203,-8.814116540485404272
0.355000000000000204,-8.744346850814627814
0.356000000000000205,-8.674081888455758005
0.357000000000000206,-8.603345094315310249
0.358000000000000207,-8.532159986254802320
0.359000000000000208,-8.460550139699119399
0.360000000000000209,-8.388539168242157729
0.361000000000000210,-8.316150704307156971
0.362000000000000210,-8.243408379915596385
0.363000000000000211,-8.170335807614755197
0.364000000000000212,-8.096956561610765490
0.365000000000000213,-8.023294159150433202
0.366000000000000214,-7.949372042191922283
0.367000000000000215,-7.875213559401143648
0.368000000000000216,-7.800841948507721391
0.369000000000000217,-7.726280319051279655
0.370000000000000218,-7.651551635546162800
0.371000000000000218,-7.576678701089649692
0.372000000000000219,-7.501684141436411934
0.373000000000000220,-7.426590389559201810
0.374000000000000221,-7.351419670713471355
0.375000000000000222,-7.276193988021208092
0.376000000000000223,-7.200935108587212419
0.377000000000000224,-7.125664550158814059
0.378000000000000225,-7.050403568338150073
0.379000000000000226,-6.975173144354147148
0.380000000000000226,-6.899993973399713987
0.381000000000000227,-6.824886453537741815
0.382000000000000228,-6.749870675178236468
0.383000000000000229,-6.674966411127135402
0.384000000000000230,-6.600193107206088428
0.385000000000000231,-6.525569873441308566
0.386000000000000232,-6.451115475818079759
0.387000000000000233,-6.376848328596699034
0.388000000000000234,-6.302786487184305564
0.389000000000000234,-6.228947641556379367
0.390000000000000235,-6.155349110220400988
0.391000000000000236,-6.082007834713833994
0.392000000000000237,-6.008940374627321113
0.393000000000000238,-5.936162903143778813
0.394000000000000239,-5.863691203083069681
0.395000000000000240,-5.791540663441645087
0.396000000000000241,-5.719726276415937782
0.397000000000000242,-5.648262634897781354
0.398000000000000242,-5.577163930429937189
0.399000000000000243,-5.506443951609297116
0.400000000000000244,-5.436116082925019910
0.401000000000000245,-5.366193304018894494
0.402000000000000246,-5.296688189354661347
0.403000000000000247,-5.227612908283047588
0.404000000000000248,-5.158979225489224163
0.405000000000000249,-5.090798501809151055
0.406000000000000250,-5.023081695401291569
0.407000000000000250,-4.955839363260220232
0.408000000000000251,-4.889081663058506777
0.409000000000000252,-4.822818355303533977
0.410000000000000253,-4.757058805795672640
0.411000000000000254,-4.691811988374635867
0.412000000000000255,-4.627086487940694326
0.413000000000000256,-4.562890503737758507
0.414000000000000257,-4.499231852885291261
0.415000000000000258,-4.436117974146419840
0.416000000000000258,-4.373555931919568707
0.417000000000000259,-4.311552420441283395
0.418000000000000260,-4.250113768188104935
0.419000000000000261,-4.189245942465472439
0.420000000000000262,-4.128954554172060476
0.421000000000000263,-4.069244862728021772
0.422000000000000264,-4.010121781155929099
0.423000000000000265,-3.951589881303463780
0.424000000000000266,-3.893653399197261056
0.425000000000000266,-3.836316240517335441
0.426000000000000267,-3.779581986182102948
0.427000000000000268,-3.723453898034054355
0.428000000000000269,-3.667934924616511161
0.429000000000000270,-3.613027707032238744
0.430000000000000271,-3.558734584874799989
0.431000000000000272,-3.505057602224016300
0.432000000000000273,-3.451998513697051241
0.433000000000000274,-3.399558790546984177
0.434000000000000274,-3.347739626800978474
0.435000000000000275,-3.296541945430481402
0.436000000000000276,-3.245966404546160256
0.437000000000000277,-3.196013403610465708
0.438000000000000278,-3.146683089661163280
0.439000000000000279,-3.097975363539311910
0.440000000000000280,-3.049889886115423554
0.441000000000000281,-3.002426084507918702
0.442000000000000282,-2.955583158288172640
0.443000000000000282,-2.909360085666654605
0.444000000000000283,-2.863755629655064361
0.445000000000000284,-2.818768344199474640
0.446000000000000285,-2.774396580279722802
0.447000000000000286,-2.730638491970770243
0.448000000000000287,-2.687492042461558039
0.449000000000000288,-2.644955010027581377
0.450000000000000289,-2.603024993953228172
0.451000000000000290,-2.561699420400417093
0.452000000000000290,-2.520975548220134588
0.453000000000000291,-2.480850474703710784
0.454000000000000292,-2.441321141270924588
0.455000000000000293,-2.402384339092100696
0.456000000000000294,-2.364036714641710724
0.457000000000000295,-2.326274775181008003
0.458000000000000296,-2.289094894167535088
0.459000000000000297,-2.252493316589439853
0.460000000000000298,-2.216466164222700819
0.461000000000000298,-2.181009440809579480
0.462000000000000299,-2.146119037156719589
0.463000000000000300,-2.111790736151442971
0.464000000000000301,-2.078020217695035754
0.465000000000000302,-2.044803063551842826
0.466000000000000303,-2.012134762113187314
0.467000000000000304,-1.980010713075216700
0.468000000000000305,-1.948426232029996097
0.469000000000000306,-1.917376554969123958
0.470000000000000306,-1.886856842699460746
0.471000000000000307,-1.856862185170438106
0.472000000000000308,-1.827387605712786023
0.473000000000000309,-1.798428065188346636
0.474000000000000310,-1.769978466050959209
0.475000000000000311,-1.742033656318326962
0.476000000000000312,-1.714588433455042971
0.477000000000000313,-1.687637548166771806
0.478000000000000314,-1.661175708105951943
0.479000000000000314,-1.635197581489288954
0.480000000000000315,-1.609697800627358788
0.481000000000000316,-1.584670965366859807
0.482000000000000317,-1.560111646445931477
0.483000000000000318,-1.536014388763179195
0.484000000000000319,-1.512373714560957261
0.485000000000000320,-1.489184126523679819
0.486000000000000321,-1.466440110791788820
0.487000000000000322,-1.444136139892225890
0.488000000000000322,-1.422266675586170592
0.489000000000000323,-1.400826171634966588
0.490000000000000324,-1.379809076485072339
0.491000000000000325,-1.359209835873020022
0.492000000000000326,-1.339022895351288600
0.493000000000000327,-1.319242702736159734
0.494000000000000328,-1.299863710478524892
0.495000000000000329,-1.280880377958713678
0.496000000000000330,-1.262287173706419408
0.497000000000000330,-1.244078577546813280
0.498000000000000331,-1.226249082673946278
0.499000000000000332,-1.208793197652601403
0.500000000000000333,-1.191705448349711371
0.501000000000000334,-1.174980379796509933
0.502000000000000335,-1.158612557982588998
0.503000000000000336,-1.142596571583055942
0.504000000000000337,-1.126927033619943952
0.505000000000000338,-1.111598583059103973
0.506000000000000338,-1.096605886343773761
0.507000000000000339,-1.081943638866002200
0.508000000000000340,-1.067606566377163002
0.509000000000000341,-1.053589426338770174
0.510000000000000342,-1.039887009214769176
0.511000000000000343,-1.026494139706544129
0.512000000000000344,-1.013405677931821236
0.513000000000000345,-1.000616520548690769
0.514000000000000346,-0.988121601825930229
0.515000000000000346,-0.975915894660823624
0.516000000000000347,-0.963994411545643137
0.517000000000000348,-0.952352205484039649
0.518000000000000349,-0.940984370858400032
0.519000000000000350,-0.929886044249437438
0.520000000000000351,-0.919052405209119128
0.521000000000000352,-0.908478676988073497
0.522000000000000353,-0.898160127218622706
0.523000000000000353,-0.888092068554550584
0.524000000000000354,-0.878269859268738018
0.525000000000000355,-0.868688903809728075
0.526000000000000356,-0.859344653318336649
0.527000000000000357,-0.850232606105382871
0.528000000000000358,-0.841348308091560915
0.529000000000000359,-0.832687353210551207
0.530000000000000360,-0.824245383776360585
0.531000000000000361,-0.816018090815941788
0.532000000000000361,-0.808001214368058052
0.533000000000000362,-0.800190543749431216
0.534000000000000363,-0.792581917789099255
0.535000000000000364,-0.785171225031968678
0.536000000000000365,-0.777954403912499037
0.537000000000000366,-0.770927442899453919
0.538000000000000367,-0.764086380612605032
0.539000000000000368,-0.757427305912339088
0.540000000000000369,-0.750946357962976707
0.541000000000000369,-0.744639726270738711
0.542000000000000370,-0.738503650697171277
0.543000000000000371,-0.732534421448854167
0.544000000000000372,-0.726728379044258355
0.545000000000000373,-0.721081914258498990
0.546000000000000374,-0.715591468046812285
0.547000000000000375,-0.710253531447492370
0.548000000000000376,-0.705064645465096951
0.549000000000000377,-0.700021400934594862
0.550000000000000377,-0.695120438367220483
0.551000000000000378,-0.690358447778749218
0.552000000000000379,-0.685732168500854389
0.553000000000000380,-0.681238388976261655
0.554000000000000381,-0.676873946538326332
0.555000000000000382,-0.672635727175725506
0.556000000000000383,-0.668520665282844595
0.557000000000000384,-0.664525743396533142
0.558000000000000385,-0.660647991919787736
0.559000000000000385,-0.656884488832987556
0.560000000000000386,-0.653232359393217221
0.561000000000000387,-0.649688775822285236
0.562000000000000388,-0.646250956983950187
0.563000000000000389,-0.642916168050900572
0.564000000000000390,-0.639681720162005751
0.565000000000000391,-0.636544970070350047
0.566000000000000392,-0.633503319782534380
0.567000000000000393,-0.630554216189734840
0.568000000000000393,-0.627695150690970372
0.569000000000000394,-0.624923658809062532
0.570000000000000395,-0.622237319799689659
0.571000000000000396,-0.619633756253996304
0.572000000000000397,-0.617110633695181932
0.573000000000000398,-0.614665660169423811
0.574000000000000399,-0.612296585831602624
0.575000000000000400,-0.610001202526142983
0.576000000000000401,-0.607777343363386957
0.577000000000000401,-0.605622882291846021
0.578000000000000402,-0.603535733666678786
0.579000000000000403,-0.601513851814725831
0.580000000000000404,-0.599555230596453548
0.581000000000000405,-0.597657902965104015
0.582000000000000406,-0.595819940523359071
0.583000000000000407,-0.594039453077838564
0.584000000000000408,-0.592314588191689140
0.585000000000000409,-0.590643530735563749
0.586000000000000409,-0.589024502437263009
0.587000000000000410,-0.587455761430284662
0.588000000000000411,-0.585935601801542139
0.589000000000000412,-0.584462353138497148
0.590000000000000413,-0.583034380075927783
0.591000000000000414,-0.581650081842575495
0.592000000000000415,-0.580307891807877008
0.593000000000000416,-0.579006277028988325
0.594000000000000417,-0.577743737798319890
0.595000000000000417,-0.576518807191757521
0.596000000000000418,-0.575330050617762767
0.597000000000000419,-0.574176065367543731
0.598000000000000420,-0.573055480166449471
0.599000000000000421,-0.571966954726766064
0.600000000000000422,-0.570909179302076075
0.601000000000000423,-0.569880874243321012
0.602000000000000424,-0.568880789556718613
0.603000000000000425,-0.567907704463691987
0.604000000000000425,-0.566960426962906938
0.605000000000000426,-0.566037793394574495
0.606000000000000427,-0.565138668007150402
0.607000000000000428,-0.564261942526484872
0.608000000000000429,-0.563406535727644431
0.609000000000000430,-0.562571393009367426
0.610000000000000431,-0.561755485971402901
0.611000000000000432,-0.560957811994712841
