# hydroxyapatite-101-ph10_TRIFLUOROMETHANE
# h[nm],U(h)[kJ/mol]
0.149999999999999994,67.206775309856539025
0.150999999999999995,65.534355389963280913
0.151999999999999996,64.046926383716439091
0.152999999999999997,62.625651743935655702
0.153999999999999998,61.218666062705530351
0.154999999999999999,59.809288416014247503
0.156000000000000000,58.397553978831140853
0.157000000000000001,56.989983654083722797
0.158000000000000002,55.594313921186447658
0.159000000000000002,54.217107211615584106
0.160000000000000003,52.862950716800298778
0.161000000000000004,51.534462425194760726
0.162000000000000005,50.232649218754986009
0.163000000000000006,48.957365694212107599
0.164000000000000007,47.707746452678954086
0.165000000000000008,46.482557427936541217
0.166000000000000009,45.280452355635119943
0.167000000000000010,44.100141179098343969
0.168000000000000010,42.940486109082577570
0.169000000000000011,41.800543333875367580
0.170000000000000012,40.679567197642271026
0.171000000000000013,39.576990944735996436
0.172000000000000014,38.492394966536799927
0.173000000000000015,37.425470473902016977
0.174000000000000016,36.375983928332701112
0.175000000000000017,35.343745490979102897
0.176000000000000018,34.328583181941716873
0.177000000000000018,33.330323324234470306
0.178000000000000019,32.348777099000578517
0.179000000000000020,31.383732580707352611
0.180000000000000021,30.434951379661111304
0.181000000000000022,29.502168931789015005
0.182000000000000023,28.585097491749660747
0.183000000000000024,27.683430965967637860
0.184000000000000025,26.796850838057231670
0.185000000000000026,25.925032569556215378
0.186000000000000026,25.067651989831965409
0.187000000000000027,24.224391311477308619
0.188000000000000028,23.394944516321920958
0.189000000000000029,22.579021949932290170
0.190000000000000030,21.776354038624969434
0.191000000000000031,20.986694103272775180
0.192000000000000032,20.209820289977219687
0.193000000000000033,19.445536670830225745
0.194000000000000034,18.693673590450334387
0.195000000000000034,17.954087347675805830
0.196000000000000035,17.226659308522613401
0.197000000000000036,16.511294547870488003
0.198000000000000037,15.807920114710370285
0.199000000000000038,15.116483010336670745
0.200000000000000039,14.436947961553045161
0.201000000000000040,13.769295062542459718
0.202000000000000041,13.113517350124590521
0.203000000000000042,12.469618368133648545
0.204000000000000042,11.837609767921957626
0.205000000000000043,11.217508983756392382
0.206000000000000044,10.609337014269462074
0.207000000000000045,10.013116334240143246
0.208000000000000046,9.428868954845112782
0.209000000000000047,8.856614645140131969
0.210000000000000048,8.296369322878465624
0.211000000000000049,7.748143618807536548
0.212000000000000050,7.211941615251629578
0.213000000000000050,6.687759757032710972
0.214000000000000051,6.175585930538856516
0.215000000000000052,5.675398704963564356
0.216000000000000053,5.187166728350544709
0.217000000000000054,4.710848270033821450
0.218000000000000055,4.246390900312617234
0.219000000000000056,3.793731297700921434
0.220000000000000057,3.352795173799560047
0.221000000000000058,2.923497305724538364
0.222000000000000058,2.505741666050896654
0.223000000000000059,2.099421640377139742
0.224000000000000060,1.704420322852695069
0.225000000000000061,1.320610880323112246
0.226000000000000062,0.947856976117326666
0.227000000000000063,0.586013244913707099
0.228000000000000064,0.234925810566143589
0.229000000000000065,-0.105567160763947676
0.230000000000000066,-0.435634879344277359
0.231000000000000066,-0.755453329167530496
0.232000000000000067,-1.065204650010612042
0.233000000000000068,-1.365076509980223340
0.234000000000000069,-1.655261473793488758
0.235000000000000070,-1.935956371579198532
0.236000000000000071,-2.207361672534754682
0.237000000000000072,-2.469680867339518748
0.238000000000000073,-2.723119862806669289
0.239000000000000073,-2.967886391854889006
0.240000000000000074,-3.204189441500302049
0.241000000000000075,-3.432238701206017595
0.242000000000000076,-3.652244033584228333
0.243000000000000077,-3.864414969123288301
0.244000000000000078,-4.068960226309455308
0.245000000000000079,-4.266087258230460755
0.246000000000000080,-4.456001826484902395
0.247000000000000081,-4.638907602978596501
0.248000000000000081,-4.815005799964248823
0.249000000000000082,-4.984494828475360961
0.250000000000000111,-5.147569985117796065
0.251000000000000112,-5.304423167012132012
0.252000000000000113,-5.455242614527431755
0.253000000000000114,-5.600212681309274743
0.254000000000000115,-5.739513630984385273
0.255000000000000115,-5.873321459816980727
0.256000000000000116,-6.001807744499775055
0.257000000000000117,-6.125139514183314482
0.258000000000000118,-6.243479145780264972
0.259000000000000119,-6.356984281526552927
0.260000000000000120,-6.465807767737231870
0.261000000000000121,-6.570097613660793812
0.262000000000000122,-6.669996969311656088
0.263000000000000123,-6.765644121144509526
0.264000000000000123,-6.857172504426773507
0.265000000000000124,-6.944710731164801309
0.266000000000000125,-7.028382632445905998
0.267000000000000126,-7.108307314070055227
0.268000000000000127,-7.184599224363038772
0.269000000000000128,-7.257368233084690701
0.270000000000000129,-7.326719720372238953
0.271000000000000130,-7.392754674688956307
0.272000000000000131,-7.455569798781118251
0.273000000000000131,-7.515257622682145033
0.274000000000000132,-7.571906622840467449
0.275000000000000133,-7.625601346487481003
0.276000000000000134,-7.676422540402789707
0.277000000000000135,-7.724447283275840626
0.278000000000000136,-7.769749120905876438
0.279000000000000137,-7.812398203525066087
0.280000000000000138,-7.852461424572683590
0.281000000000000139,-7.890002560291324407
0.282000000000000139,-7.925082409558642738
0.283000000000000140,-7.957758933410069346
0.284000000000000141,-7.988087393749310650
0.285000000000000142,-8.016120490783626096
0.286000000000000143,-8.041908498760420798
0.287000000000000144,-8.065499399619382004
0.288000000000000145,-8.086939014211935728
0.289000000000000146,-8.106271130774548084
0.290000000000000147,-8.123537630377265728
0.291000000000000147,-8.138778609100949524
0.292000000000000148,-8.152032496728363498
0.293000000000000149,-8.163336171763528881
0.294000000000000150,-8.172725072622068154
0.295000000000000151,-8.180233304861953769
0.296000000000000152,-8.185893744348755163
0.297000000000000153,-8.189738136273492231
0.298000000000000154,-8.191797189962748860
0.299000000000000155,-8.192100669441554572
0.300000000000000155,-8.190677479728428523
0.301000000000000156,-8.187555748859763227
0.302000000000000157,-8.182762905656897345
0.303000000000000158,-8.176325753264233498
0.304000000000000159,-8.168270538500497224
0.305000000000000160,-8.158623017077378137
0.306000000000000161,-8.147408514751388608
0.307000000000000162,-8.134651984484566611
0.308000000000000163,-8.120378059698751372
0.309000000000000163,-8.104611103716163001
0.310000000000000164,-8.087375255485943271
0.311000000000000165,-8.068694471702320570
0.312000000000000166,-8.048592565425371603
0.313000000000000167,-8.027093241319557038
0.314000000000000168,-8.004220127628824955
0.315000000000000169,-7.979996805009943905
0.316000000000000170,-7.954446832347933594
0.317000000000000171,-7.927593769678859204
0.318000000000000171,-7.899461198346338975
0.319000000000000172,-7.870072738518556044
0.320000000000000173,-7.839452064192355074
0.321000000000000174,-7.807622915810607189
0.322000000000000175,-7.774609110617982211
0.323000000000000176,-7.740434550879063735
0.324000000000000177,-7.705123230080991092
0.325000000000000178,-7.668699237240792499
0.326000000000000179,-7.631186759435576228
0.327000000000000179,-7.592610082670961269
0.328000000000000180,-7.552993591200615420
0.329000000000000181,-7.512361765406952330
0.330000000000000182,-7.470739178349703025
0.331000000000000183,-7.428150491086327634
0.332000000000000184,-7.384620446864540888
0.333000000000000185,-7.340173864284116334
0.334000000000000186,-7.294835629521581488
0.335000000000000187,-7.248630687707897202
0.336000000000000187,-7.201584033545765706
0.337000000000000188,-7.153720701249470793
0.338000000000000189,-7.105065753886835367
0.339000000000000190,-7.055644272199119271
0.340000000000000191,-7.005481342971137337
0.341000000000000192,-6.954602047020593147
0.342000000000000193,-6.903031446871791488
0.343000000000000194,-6.850794574175834484
0.344000000000000195,-6.797916416935658290
0.345000000000000195,-6.744421906591371751
0.346000000000000196,-6.690335905017699147
0.347000000000000197,-6.635683191482455001
0.348000000000000198,-6.580488449611829438
0.349000000000000199,-6.524776254405068698
0.350000000000000200,-6.468571059338576568
0.351000000000000201,-6.411897183596240168
0.352000000000000202,-6.354778799460283345
0.353000000000000203,-6.297239919894307647
0.354000000000000203,-6.239304386347471976
0.355000000000000204,-6.180995856806434929
0.356000000000000205,-6.122337794119262711
0.357000000000000206,-6.063353454613344518
0.358000000000000207,-6.004065877026912190
0.359000000000000208,-5.944497871772068898
0.360000000000000209,-5.884672010544915288
0.361000000000000210,-5.824610616296650889
0.362000000000000210,-5.764335753577664256
0.363000000000000211,-5.703869219264921853
0.364000000000000212,-5.643232533681393548
0.365000000000000213,-5.582446932114594418
0.366000000000000214,-5.521533356740036425
0.367000000000000215,-5.460512448953858566
0.368000000000000216,-5.399404542117731687
0.369000000000000217,-5.338229654717857819
0.370000000000000218,-5.277007483938787047
0.371000000000000218,-5.215757399651645088
0.372000000000000219,-5.154498438815489969
0.373000000000000220,-5.093249300289492076
0.374000000000000221,-5.032028340052820070
0.375000000000000222,-4.970853566828295378
0.376000000000000223,-4.909742638105218937
0.377000000000000224,-4.848712856555989603
0.378000000000000225,-4.787781166840629155
0.379000000000000226,-4.726964152792658247
0.380000000000000226,-4.666278034979414180
0.381000000000000227,-4.605738668629197896
0.382000000000000228,-4.545361541917520398
0.383000000000000229,-4.485161774604111251
0.384000000000000230,-4.425154117012082722
0.385000000000000231,-4.365352949340507216
0.386000000000000232,-4.305772281301175397
0.387000000000000233,-4.246425752070289938
0.388000000000000234,-4.187326630545525674
0.389000000000000234,-4.128487815898927771
0.390000000000000235,-4.069921838415739401
0.391000000000000236,-4.011640860609477777
0.392000000000000237,-3.953656678603198138
0.393000000000000238,-3.895980723767157539
0.394000000000000239,-3.838624064602816244
0.395000000000000240,-3.781597408863312637
0.396000000000000241,-3.724911105900506669
0.397000000000000242,-3.668575149228681997
0.398000000000000242,-3.612599179295239882
0.399000000000000243,-3.556992486448584234
0.400000000000000244,-3.501764014093624588
0.401000000000000245,-3.446922362025497844
0.402000000000000246,-3.392475789932071883
0.403000000000000247,-3.338432221056012228
0.404000000000000248,-3.284799246007410911
0.405000000000000249,-3.231584126718039407
0.406000000000000250,-3.178793800528445068
0.407000000000000250,-3.126434884399402314
0.408000000000000251,-3.074513679239242681
0.409000000000000252,-3.023036174338957327
0.410000000000000253,-2.972008051906966042
0.411000000000000254,-2.921434691695824259
0.412000000000000255,-2.871321175713197338
0.413000000000000256,-2.821672293009736432
0.414000000000000257,-2.772492544536584003
0.415000000000000258,-2.723786148065584278
0.416000000000000258,-2.675557043165359694
0.417000000000000259,-2.627808896226672353
0.418000000000000260,-2.580545105530728023
0.419000000000000261,-2.533768806354186331
0.420000000000000262,-2.487482876105016505
0.421000000000000263,-2.441689939483366878
0.422000000000000264,-2.396392373661945019
0.423000000000000265,-2.351592313480516783
0.424000000000000266,-2.307291656649494094
0.425000000000000266,-2.263492068957537295
0.426000000000000267,-2.220194989478531333
0.427000000000000268,-2.177401635773345223
0.428000000000000269,-2.135113009082029834
0.429000000000000270,-2.093329899502318625
0.430000000000000271,-2.052052891150391911
0.431000000000000272,-2.011282367300179175
0.432000000000000273,-1.971018515497529933
0.433000000000000274,-1.931261332645868078
0.434000000000000274,-1.892010630059984155
0.435000000000000275,-1.853266038484956413
0.436000000000000276,-1.815027013077210594
0.437000000000000277,-1.777292838344934012
0.438000000000000278,-1.740062633045270868
0.439000000000000279,-1.703335355035817900
0.440000000000000280,-1.667109806078070688
0.441000000000000281,-1.631384636590678339
0.442000000000000282,-1.596158350350506572
0.443000000000000282,-1.561429309139519717
0.444000000000000283,-1.527195737335822923
0.445000000000000284,-1.493455726447174170
0.446000000000000285,-1.460207239585417316
0.447000000000000286,-1.427448115880576296
0.448000000000000287,-1.395176074833164748
0.449000000000000288,-1.363388720603701643
0.450000000000000289,-1.332083546238278071
0.451000000000000290,-1.301257937829272127
0.452000000000000290,-1.270909178610361234
0.453000000000000291,-1.241034452985061431
0.454000000000000292,-1.211630850488173428
0.455000000000000293,-1.182695369679508834
0.456000000000000294,-1.154224921969494222
0.457000000000000295,-1.126216335376180933
0.458000000000000296,-1.098666358213393535
0.459000000000000297,-1.071571662709749573
0.460000000000000298,-1.044928848558391410
0.461000000000000298,-1.018734446397324689
0.462000000000000299,-0.992984921220350869
0.463000000000000300,-0.967676675718580626
0.464000000000000301,-0.942806053552668111
0.465000000000000302,-0.918369342555906853
0.466000000000000303,-0.894362777868353276
0.467000000000000304,-0.870782545002268593
0.468000000000000305,-0.847624782839198510
0.469000000000000306,-0.824885586558989581
0.470000000000000306,-0.802561010501216865
0.471000000000000307,-0.780647070959362255
0.472000000000000308,-0.759139748908335243
0.473000000000000309,-0.738034992665751233
0.474000000000000310,-0.717328720487585447
0.475000000000000311,-0.697016823098738025
0.476000000000000312,-0.677095166159198514
0.477000000000000313,-0.657559592666341564
0.478000000000000314,-0.638405925294117660
0.479000000000000314,-0.619629968669814124
0.480000000000000315,-0.601227511589053298
0.481000000000000316,-0.583194329169842929
0.482000000000000317,-0.565526184946374300
0.483000000000000318,-0.548218832903384579
0.484000000000000319,-0.531268019451840323
0.485000000000000320,-0.514669485346806455
0.486000000000000321,-0.498418967548254543
0.487000000000000322,-0.482512201025693255
0.488000000000000322,-0.466944920507435302
0.489000000000000323,-0.451712862175380425
0.490000000000000324,-0.436811765306153954
0.491000000000000325,-0.422237373859487897
0.492000000000000326,-0.407985438014690338
0.493000000000000327,-0.394051715656121793
0.494000000000000328,-0.380431973808531498
0.495000000000000329,-0.367121990023154099
0.496000000000000330,-0.354117553715446620
0.497000000000000330,-0.341414467455363302
0.498000000000000331,-0.329008548211042862
0.499000000000000332,-0.316895628546821573
0.500000000000000333,-0.305071557776432412
0.501000000000000334,-0.293532203072287889
0.502000000000000335,-0.282273450531724923
0.503000000000000336,-0.271291206201106694
0.504000000000000337,-0.260581397058618269
0.505000000000000338,-0.250139971956666374
0.506000000000000338,-0.239962902524729321
0.507000000000000339,-0.230046184033503742
0.508000000000000340,-0.220385836221222486
0.509000000000000341,-0.210977904082985279
0.510000000000000342,-0.201818458623926139
0.511000000000000343,-0.192903597577061159
0.512000000000000344,-0.184229446086636717
0.513000000000000345,-0.175792157357792911
0.514000000000000346,-0.167587913273355038
0.515000000000000346,-0.159612924978532689
0.516000000000000347,-0.151863433434328371
0.517000000000000348,-0.144335709940454832
0.518000000000000349,-0.137026056628470227
0.519000000000000350,-0.129930806925957543
0.520000000000000351,-0.123046325992464983
0.521000000000000352,-0.116369011127939209
0.522000000000000353,-0.109895292154407187
0.523000000000000353,-0.103621631771595113
0.524000000000000354,-0.097544525887220818
0.525000000000000355,-0.091660503922636888
0.526000000000000356,-0.085966129094512095
0.527000000000000357,-0.080457998673253192
0.528000000000000358,-0.075132744218780828
0.529000000000000359,-0.069987031794368854
0.530000000000000360,-0.065017562159150111
0.531000000000000361,-0.060221070939945200
0.532000000000000361,-0.055594328783006984
0.533000000000000362,-0.051134141486330109
0.534000000000000363,-0.046837350113084729
0.535000000000000364,-0.042700831086784588
0.536000000000000365,-0.038721496268760994
0.537000000000000366,-0.034896293018507982
0.538000000000000367,-0.031222204237444984
0.539000000000000368,-0.027696248396667567
0.540000000000000369,-0.024315479549172292
0.541000000000000369,-0.021076987327131903
0.542000000000000370,-0.017977896924696701
0.543000000000000371,-0.015015369066820361
0.544000000000000372,-0.012186599964635825
0.545000000000000373,-0.009488821257820700
0.546000000000000374,-0.006919299944447577
0.547000000000000375,-0.004475338298759624
0.548000000000000376,-0.002154273777350813
0.549000000000000377,0.000046521085842799
0.550000000000000377,0.002129638795308564
0.551000000000000378,0.004097637020017387
0.552000000000000379,0.005953038729440452
0.553000000000000380,0.007698332339048974
0.554000000000000381,0.009335971864964288
0.555000000000000382,0.010868377087336466
0.556000000000000383,0.012297933722111487
0.557000000000000384,0.013626993600792092
0.558000000000000385,0.014857874857870457
0.559000000000000385,0.015992862125553529
0.560000000000000386,0.017034206735486147
0.561000000000000387,0.017984126927099563
0.562000000000000388,0.018844808062296402
0.563000000000000389,0.019618402846150684
0.564000000000000390,0.020307031553323029
0.565000000000000391,0.020912782259886110
0.566000000000000392,0.021437711080291910
0.567000000000000393,0.021883842409180398
0.568000000000000393,0.022253169167779040
0.569000000000000394,0.022547653054604998
0.570000000000000395,0.022769224800242949
0.571000000000000396,0.022919784425921998
0.572000000000000397,0.023001201505657719
0.573000000000000398,0.023015315431743046
0.574000000000000399,0.022963935683319735
0.575000000000000400,0.022848842097853761
0.576000000000000401,0.022671785145265154
0.577000000000000401,0.022434486204519509
0.578000000000000402,0.022138637842468702
0.579000000000000403,0.021785904094768792
0.580000000000000404,0.021377920748647437
0.581000000000000405,0.020916295627364856
0.582000000000000406,0.020402608876186633
0.583000000000000407,0.019838413249677188
0.584000000000000408,0.019225234400173718
0.585000000000000409,0.018564571167262622
0.586000000000000409,0.017857895868094276
0.587000000000000410,0.017106654588410385
0.588000000000000411,0.016312267474112054
0.589000000000000412,0.015476129023244800
0.590000000000000413,0.014599608378257311
0.591000000000000414,0.013684049618400796
0.592000000000000415,0.012730772052148943
0.593000000000000416,0.011741070509508145
0.594000000000000417,0.010716215634107806
0.595000000000000417,0.009657454174953607
0.596000000000000418,0.008566009277732545
0.597000000000000419,0.007443080775569655
0.598000000000000420,0.006289845479129541
0.599000000000000421,0.005107457465975384
0.600000000000000422,0.003897048369077338
0.601000000000000423,0.002659727664394285
0.602000000000000424,0.001396582957440984
0.603000000000000425,0.000108680268742645
0.604000000000000425,-0.001202935681876016
0.605000000000000426,-0.002537241192257755
0.606000000000000427,-0.003893233296223775
0.607000000000000428,-0.005269929483245739
0.608000000000000429,-0.006666367419630781
0.609000000000000430,-0.008081604671167808
0.610000000000000431,-0.009514718427419067
0.611000000000000432,-0.010964805227619556
0.612000000000000433,-0.012430980688269089
0.613000000000000433,-0.013912379232504346
0.614000000000000434,-0.015408153821235327
