# hydroxyapatite-101-ph10_SULFONICACID
# h[nm],U(h)[kJ/mol]
0.149999999999999994,76.829023250055769267
0.150999999999999995,74.265457405772480115
0.151999999999999996,71.895382666966384022
0.152999999999999997,69.613846971373973815
0.153999999999999998,67.375633929062431093
0.154999999999999999,65.164970143837123828
0.156000000000000000,62.979057637841343364
0.157000000000000001,60.819699927893942970
0.158000000000000002,58.689476692825699899
0.159000000000000002,56.590329767655283888
0.160000000000000003,54.523314739039413723
0.161000000000000004,52.488825433623887307
0.162000000000000005,50.486932584268672031
0.163000000000000006,48.517672550232042283
0.164000000000000007,46.581229644740211882
0.165000000000000008,44.678010546098946065
0.166000000000000009,42.808633318491722264
0.167000000000000010,40.973860486547508231
0.168000000000000010,39.174503801009919357
0.169000000000000011,37.411322766478306789
0.170000000000000012,35.684932460810266264
0.171000000000000013,33.995730095934831638
0.172000000000000014,32.343844781805778155
0.173000000000000015,30.729111229500421842
0.174000000000000016,29.151065593492422323
0.175000000000000017,27.608960122935549464
0.176000000000000018,26.101792548588491627
0.177000000000000018,24.628345963903363725
0.178000000000000019,23.187235181061929268
0.179000000000000020,21.776956005221457247
0.180000000000000021,20.395934457646582416
0.181000000000000022,19.042573606860578650
0.182000000000000023,17.715296278972004984
0.183000000000000024,16.412582477499139344
0.184000000000000025,15.133000828978083518
0.185000000000000026,13.875233774783016116
0.186000000000000026,12.638096551441453386
0.187000000000000027,11.420550246148883033
0.188000000000000028,10.221709389189214789
0.189000000000000029,9.040844660145086920
0.190000000000000030,7.877381350184019304
0.191000000000000031,6.730894248092745613
0.192000000000000032,5.601099612101814174
0.193000000000000033,4.487844860871875952
0.194000000000000034,3.391096572152584088
0.195000000000000034,2.310927322275360574
0.196000000000000035,1.247501838429953436
0.197000000000000036,0.201062872236492052
0.198000000000000037,-0.828082859770092439
0.199000000000000038,-1.839578383450533039
0.200000000000000039,-2.833029593219895226
0.201000000000000040,-3.808017619575947865
0.202000000000000041,-4.764110306609063983
0.203000000000000042,-5.700872708629810326
0.204000000000000042,-6.617876550058523932
0.205000000000000043,-7.514708622425414042
0.206000000000000044,-8.390978117068190301
0.207000000000000045,-9.246322912289084428
0.208000000000000046,-10.080414849795170440
0.209000000000000047,-10.892964047656189308
0.210000000000000048,-11.683722306232084520
0.211000000000000049,-12.452485669986399941
0.212000000000000050,-13.199096212230500669
0.213000000000000050,-13.923443112010593481
0.214000000000000051,-14.625463092907702745
0.215000000000000052,-15.305140292772032140
0.216000000000000053,-15.962505631631350056
0.217000000000000054,-16.597635742433318740
0.218000000000000055,-17.210651526107533016
0.219000000000000056,-17.801716388833447979
0.220000000000000057,-18.371034215526591993
0.221000000000000058,-18.918847129516183969
0.222000000000000058,-19.445433084293803461
0.223000000000000059,-19.951103329130141617
0.224000000000000060,-20.436199786357203578
0.225000000000000061,-20.901092374238793070
0.226000000000000062,-21.346176305640415904
0.227000000000000063,-21.771869389186331745
0.228000000000000064,-22.178609356272779962
0.229000000000000065,-22.566851234204893473
0.230000000000000066,-22.937064782841876109
0.231000000000000066,-23.289732009475407892
0.232000000000000067,-23.625344774222362787
0.233000000000000068,-23.944402495983130308
0.234000000000000069,-24.247409966990193908
0.235000000000000070,-24.534875282141193509
0.236000000000000071,-24.807307887664016732
0.237000000000000072,-25.065216752191098237
0.238000000000000073,-25.309108662011336577
0.239000000000000073,-25.539486641111292187
0.240000000000000074,-25.756848495603254179
0.241000000000000075,-25.961685481252239072
0.242000000000000076,-26.154481092048492030
0.243000000000000077,-26.335709967117271191
0.244000000000000078,-26.505836912702257280
0.245000000000000079,-26.665316035494718960
0.246000000000000080,-26.814589983199521583
0.247000000000000081,-26.954089287922592177
0.248000000000000081,-27.084231807725029029
0.249000000000000082,-27.205422261510285864
0.250000000000000111,-27.318051852286259873
0.251000000000000112,-27.422497973766674306
0.252000000000000113,-27.519123995243308656
0.253000000000000114,-27.608279119662121559
0.254000000000000115,-27.690298309874396665
0.255000000000000115,-27.765502278097567768
0.256000000000000116,-27.834197533710909767
0.257000000000000117,-27.896676484622144443
0.258000000000000118,-27.953217587569518798
0.259000000000000119,-28.004085542868288883
0.260000000000000120,-28.049531529267255792
0.261000000000000121,-28.089793474746716839
0.262000000000000122,-28.125096359264336598
0.263000000000000123,-28.155652545634687556
0.264000000000000123,-28.181662134913597839
0.265000000000000124,-28.203313342843905787
0.266000000000000125,-28.220782894108527472
0.267000000000000126,-28.234236431323569860
0.268000000000000127,-28.243828935891674092
0.269000000000000128,-28.249705158019754236
0.270000000000000129,-28.252000053387092748
0.271000000000000130,-28.250839224127798133
0.272000000000000131,-28.246339361964697190
0.273000000000000131,-28.238608691500918013
0.274000000000000132,-28.227747411838180369
0.275000000000000133,-28.213848134849190075
0.276000000000000134,-28.196996318582954189
0.277000000000000135,-28.177270694427154041
0.278000000000000136,-28.154743686791722013
0.279000000000000137,-28.129481824209953800
0.280000000000000138,-28.101546140879982261
0.281000000000000139,-28.070992567789396333
0.282000000000000139,-28.037872312678892683
0.283000000000000140,-28.002232228207663667
0.284000000000000141,-27.964115167783564431
0.285000000000000142,-27.923560328615685933
0.286000000000000143,-27.880603581634176180
0.287000000000000144,-27.835277788004837873
0.288000000000000145,-27.787613102041898827
0.289000000000000146,-27.737637260392649097
0.290000000000000147,-27.685375857433076163
0.291000000000000147,-27.630852606872785771
0.292000000000000148,-27.574089589622861496
0.293000000000000149,-27.515107488029361349
0.294000000000000150,-27.453925806620937067
0.295000000000000151,-27.390563079559314019
0.296000000000000152,-27.325037065018257465
0.297000000000000153,-27.257364926748863354
0.298000000000000154,-27.187563403117916749
0.299000000000000155,-27.115648963931270998
0.300000000000000155,-27.041637955375751545
0.301000000000000156,-26.965546733432052662
0.302000000000000157,-26.887391786126642046
0.303000000000000158,-26.807189845003573936
0.304000000000000159,-26.724957986207670046
0.305000000000000160,-26.640713721578244133
0.306000000000000161,-26.554475080158603362
0.307000000000000162,-26.466260680530176330
0.308000000000000163,-26.376089794381833542
0.309000000000000163,-26.283982401725399569
0.310000000000000164,-26.189959238166714783
0.311000000000000165,-26.094041834638801447
0.312000000000000166,-25.996252549999574910
0.313000000000000167,-25.896614596891275539
0.314000000000000168,-25.795152061252327513
0.315000000000000169,-25.691889915865125715
0.316000000000000170,-25.586854028315222820
0.317000000000000171,-25.480071163728592154
0.318000000000000171,-25.371568982643893264
0.319000000000000172,-25.261376034367362564
0.320000000000000173,-25.149521746146934476
0.321000000000000174,-25.036036408491703753
0.322000000000000175,-24.920951156951808514
0.323000000000000176,-24.804297950662462569
0.324000000000000177,-24.686109547944447229
0.325000000000000178,-24.566419479241584867
0.326000000000000179,-24.445262017664592946
0.327000000000000179,-24.322672147398485265
0.328000000000000180,-24.198685530219453454
0.329000000000000181,-24.073338470355679419
0.330000000000000182,-23.946667877914613598
0.331000000000000183,-23.818711231088776970
0.332000000000000184,-23.689506537340150771
0.333000000000000185,-23.559092293752939895
0.334000000000000186,-23.427507446733564223
0.335000000000000187,-23.294791351226109555
0.336000000000000187,-23.160983729601586134
0.337000000000000188,-23.026124630369039892
0.338000000000000189,-22.890254386847182388
0.339000000000000190,-22.753413575925712564
0.340000000000000191,-22.615642977036166883
0.341000000000000192,-22.476983531444069797
0.342000000000000193,-22.337476301964649394
0.343000000000000194,-22.197162433197362930
0.344000000000000195,-22.056083112365531207
0.345000000000000195,-21.914279530840914845
0.346000000000000196,-21.771792846424865786
0.347000000000000197,-21.628664146451612282
0.348000000000000198,-21.484934411772062646
0.349000000000000199,-21.340644481670558719
0.350000000000000200,-21.195835019760913553
0.351000000000000201,-21.050546480902387003
0.352000000000000202,-20.904819079170813723
0.353000000000000203,-20.758692756915202438
0.354000000000000203,-20.612207154924952590
0.355000000000000204,-20.465401583728592527
0.356000000000000205,-20.318314996040474085
0.357000000000000206,-20.170985960367978862
0.358000000000000207,-20.023452635787712950
0.359000000000000208,-19.875752747896008543
0.360000000000000209,-19.727923565935480354
0.361000000000000210,-19.580001881096407601
0.362000000000000210,-19.432023985988745807
0.363000000000000211,-19.284025655277996947
0.364000000000000212,-19.136042127475889174
0.365000000000000213,-18.988108087874071117
0.366000000000000214,-18.840257652607476757
0.367000000000000215,-18.692524353831764472
0.368000000000000216,-18.544941125997674192
0.369000000000000217,-18.397540293203554995
0.370000000000000218,-18.250353557605734522
0.371000000000000218,-18.103411988865516946
0.372000000000000219,-17.956746014609876738
0.373000000000000220,-17.810385411882549533
0.374000000000000221,-17.664359299560921102
0.375000000000000222,-17.518696131713436870
0.376000000000000223,-17.373423691871771268
0.377000000000000224,-17.228569088191182601
0.378000000000000225,-17.084158749472411643
0.379000000000000226,-16.940218422017601085
0.380000000000000226,-16.796773167293128637
0.381000000000000227,-16.653847360371251796
0.382000000000000228,-16.511464689123265259
0.383000000000000229,-16.369648154135969520
0.384000000000000230,-16.228420069323881592
0.385000000000000231,-16.087802063209455383
0.386000000000000232,-15.947815080843772861
0.387000000000000233,-15.808479386340374973
0.388000000000000234,-15.669814565995006106
0.389000000000000234,-15.531839531964768852
0.390000000000000235,-15.394572526479873176
0.391000000000000236,-15.258031126562148216
0.392000000000000237,-15.122232249224373035
0.393000000000000238,-14.987192157125457825
0.394000000000000239,-14.852926464656288630
0.395000000000000240,-14.719450144432263627
0.396000000000000241,-14.586777534168424708
0.397000000000000242,-14.454922343914006433
0.398000000000000242,-14.323897663623631260
0.399000000000000243,-14.193715971042895063
0.400000000000000244,-14.064389139886625202
0.401000000000000245,-13.935928448288915860
0.402000000000000246,-13.808344587504274514
0.403000000000000247,-13.681647670839941711
0.404000000000000248,-13.555847242800211916
0.405000000000000249,-13.430952288423892327
0.406000000000000250,-13.306971242796830524
0.407000000000000250,-13.183912000721880631
0.408000000000000251,-13.061781926529430820
0.409000000000000252,-12.940587864012144337
0.410000000000000253,-12.820336146468003236
0.411000000000000254,-12.701032606836607286
0.412000000000000255,-12.582682587914026939
0.413000000000000256,-12.465290952632193111
0.414000000000000257,-12.348862094389254196
0.415000000000000258,-12.233399947418055476
0.416000000000000258,-12.118907997180331293
0.417000000000000259,-12.005389290774687083
0.418000000000000260,-11.892846447347150018
0.419000000000000261,-11.781281668493329917
0.420000000000000262,-11.670696748642056306
0.421000000000000263,-11.561093085410584891
0.422000000000000264,-11.452471689922024467
0.423000000000000265,-11.344833197076178877
0.424000000000000266,-11.238177875765490654
0.425000000000000266,-11.132505639027987954
0.426000000000000267,-11.027816054129838008
0.427000000000000268,-10.924108352570474523
0.428000000000000269,-10.821381440003555952
0.429000000000000270,-10.719633906067546292
0.430000000000000271,-10.618864034120074180
0.431000000000000272,-10.519069810870595560
0.432000000000000273,-10.420248935906178289
0.433000000000000274,-10.322398831105804362
0.434000000000000274,-10.225516649938601432
0.435000000000000275,-10.129599286642072542
0.436000000000000276,-10.034643385276535099
0.437000000000000277,-9.940645348652248359
0.438000000000000278,-9.847601347126197169
0.439000000000000279,-9.755507327265657835
0.440000000000000280,-9.664359020375856701
0.441000000000000281,-9.574151950889557838
0.442000000000000282,-9.484881444616487300
0.443000000000000282,-9.396542636850687913
0.444000000000000283,-9.309130480334360414
0.445000000000000284,-9.222639753076800062
0.446000000000000285,-9.137065066027210136
0.447000000000000286,-9.052400870600674665
0.448000000000000287,-8.968641466056293865
0.449000000000000288,-8.885781006727224707
0.450000000000000289,-8.803813509102010215
0.451000000000000290,-8.722732858757209939
0.452000000000000290,-8.642532817141205470
0.453000000000000291,-8.563207028209310678
0.454000000000000292,-8.484749024910538395
0.455000000000000293,-8.407152235526307749
0.456000000000000294,-8.330409989861809805
0.457000000000000295,-8.254515525290544886
0.458000000000000296,-8.179461992652894864
0.459000000000000297,-8.105242462009680793
0.460000000000000298,-8.031849928251551418
0.461000000000000298,-7.959277316565506410
0.462000000000000299,-7.887517487759578394
0.463000000000000300,-7.816563243447037124
0.464000000000000301,-7.746407331091442749
0.465000000000000302,-7.677042448914042083
0.466000000000000303,-7.608461250664904085
0.467000000000000304,-7.540656350259423490
0.468000000000000305,-7.473620326281857906
0.469000000000000306,-7.407345726357472238
0.470000000000000306,-7.341825071395136959
0.471000000000000307,-7.277050859702027807
0.472000000000000308,-7.213015570972399537
0.473000000000000309,-7.149711670152105292
0.474000000000000310,-7.087131611180922164
0.475000000000000311,-7.025267840614421111
0.476000000000000312,-6.964112801127586572
0.477000000000000313,-6.903658934901781841
0.478000000000000314,-6.843898686897378347
0.479000000000000314,-6.784824508013929112
0.480000000000000315,-6.726428858139785305
0.481000000000000316,-6.668704209093412771
0.482000000000000317,-6.611643047458234612
0.483000000000000318,-6.555237877313163430
0.484000000000000319,-6.499481222860779894
0.485000000000000320,-6.444365630955327440
0.486000000000000321,-6.389883673532408714
0.487000000000000322,-6.336027949942544701
0.488000000000000322,-6.282791089190550515
0.489000000000000323,-6.230165752082823971
0.490000000000000324,-6.178144633284513354
0.491000000000000325,-6.126720463288622298
0.492000000000000326,-6.075886010298946260
0.493000000000000327,-6.025634082028982874
0.494000000000000328,-5.975957527418631621
0.495000000000000329,-5.926849238270742504
0.496000000000000330,-5.878302150809378013
0.497000000000000330,-5.830309247161769015
0.498000000000000331,-5.782863556765786228
0.499000000000000332,-5.735958157704904359
0.500000000000000333,-5.689586177972435266
0.501000000000000334,-5.643740796666882886
0.502000000000000335,-5.598415245120259343
0.503000000000000336,-5.553602807961160792
0.504000000000000337,-5.509296824114310098
0.505000000000000338,-5.465490687738368436
0.506000000000000338,-5.422177849103727354
0.507000000000000339,-5.379351815411911097
0.508000000000000340,-5.337006151558364664
0.509000000000000341,-5.295134480840170355
0.510000000000000342,-5.253730485610374146
0.511000000000000343,-5.212787907880466420
0.512000000000000344,-5.172300549872590913
0.513000000000000345,-5.132262274523045065
0.514000000000000346,-5.092667005938551483
0.515000000000000346,-5.053508729806781119
0.516000000000000347,-5.014781493762574094
0.517000000000000348,-4.976479407711368097
0.518000000000000349,-4.938596644111066247
0.519000000000000350,-4.901127438213881859
0.520000000000000351,-4.864066088269434651
0.521000000000000352,-4.827406955690408452
0.522000000000000353,-4.791144465182070711
0.523000000000000353,-4.755273104836918563
0.524000000000000354,-4.719787426195717117
0.525000000000000355,-4.684682044276087254
0.526000000000000356,-4.649951637569847307
0.527000000000000357,-4.615590948010327210
0.528000000000000358,-4.581594780910663189
0.529000000000000359,-4.547958004874290694
0.530000000000000360,-4.514675551678672960
0.531000000000000361,-4.481742416133322138
0.532000000000000361,-4.449153655913114846
0.533000000000000362,-4.416904391367979521
0.534000000000000363,-4.384989805309876587
0.535000000000000364,-4.353405142778017378
0.536000000000000365,-4.322145710783328987
0.537000000000000366,-4.291206878033003491
0.538000000000000367,-4.260584074636023288
0.539000000000000368,-4.230272791790598674
0.540000000000000369,-4.200268581454235317
0.541000000000000369,-4.170567055997368655
0.542000000000000370,-4.141163887841304181
0.543000000000000371,-4.112054809081213236
0.544000000000000372,-4.083235611095014761
0.545000000000000373,-4.054702144138796704
0.546000000000000374,-4.026450316929547135
0.547000000000000375,-3.998476096215820341
0.548000000000000376,-3.970775506337120841
0.549000000000000377,-3.943344628772545324
0.550000000000000377,-3.916179601679337985
0.551000000000000378,-3.889276619422058268
0.552000000000000379,-3.862631932092845055
0.553000000000000380,-3.836241845023427910
0.554000000000000381,-3.810102718289404944
0.555000000000000382,-3.784210966207386839
0.556000000000000383,-3.758563056825442228
0.557000000000000384,-3.733155511407452387
0.558000000000000385,-3.707984903911788699
0.559000000000000385,-3.683047860464859546
0.560000000000000386,-3.658341058829907233
0.561000000000000387,-3.633861227871589161
0.562000000000000388,-3.609605147016710536
0.563000000000000389,-3.585569645711539355
0.564000000000000390,-3.561751602876134459
0.565000000000000391,-3.538147946356030360
0.566000000000000392,-3.514755652371696293
0.567000000000000393,-3.491571744966103008
0.568000000000000393,-3.468593295450739245
0.569000000000000394,-3.445817421850453144
0.570000000000000395,-3.423241288347408151
0.571000000000000396,-3.400862104724449608
0.572000000000000397,-3.378677125808251525
0.573000000000000398,-3.356683650912425154
0.574000000000000399,-3.334879023280989507
0.575000000000000400,-3.313260629532345458
0.576000000000000401,-3.291825899104105169
0.577000000000000401,-3.270572303698974004
0.578000000000000402,-3.249497356731929187
0.579000000000000403,-3.228598612778910137
0.580000000000000404,-3.207873667027263398
0.581000000000000405,-3.187320154728124244
0.582000000000000406,-3.166935750650922810
0.583000000000000407,-3.146718168540238558
0.584000000000000408,-3.126665160575150981
0.585000000000000409,-3.106774516831257049
0.586000000000000409,-3.087044064745547267
0.587000000000000410,-3.067471668584270006
0.588000000000000411,-3.048055228913928438
0.589000000000000412,-3.028792682075575726
0.590000000000000413,-3.009681999662510155
0.591000000000000414,-2.990721188001516317
0.592000000000000415,-2.971908287637776258
0.593000000000000416,-2.953241372823531385
0.594000000000000417,-2.934718551010633725
0.595000000000000417,-2.916337962347093971
0.596000000000000418,-2.898097779177645883
0.597000000000000419,-2.879996205548546406
0.598000000000000420,-2.862031476716546230
0.599000000000000421,-2.844201858662230631
0.600000000000000422,-2.826505647607711502
0.601000000000000423,-2.808941169538816673
0.602000000000000424,-2.791506779731762755
0.603000000000000425,-2.774200862284423419
0.604000000000000425,-2.757021829652224199
0.605000000000000426,-2.739968122188695343
0.606000000000000427,-2.723038207690795964
0.607000000000000428,-2.706230580948907338
