# AlFCC100UCD_HISAA: HID 0.14621171572600097 HIE 0.5848468629040039 HIP 0.2689414213699952
# h[nm],U(h)[kJ/mol]
0.149999999999999994,148.942066982919953944
0.150999999999999995,142.911480802886956099
0.151999999999999996,138.538595983917161902
0.152999999999999997,134.609623452028870361
0.153999999999999998,130.669859185203648622
0.154999999999999999,126.622600592586394441
0.156000000000000000,122.513124186598460597
0.157000000000000001,118.421121312635392542
0.158000000000000002,114.414057308957069381
0.159000000000000002,110.532697280789989236
0.160000000000000003,106.791976032344990699
0.161000000000000004,103.187822528117663978
0.162000000000000005,99.705059528252462542
0.163000000000000006,96.324141977897212996
0.164000000000000007,93.025971182514865632
0.165000000000000008,89.794781530068462416
0.166000000000000009,86.619435639938359373
0.167000000000000010,83.493567241453163774
0.168000000000000010,80.414992594922296121
0.169000000000000011,77.384738557311308682
0.170000000000000012,74.405946826099281566
0.171000000000000013,71.482829598833504292
0.172000000000000014,68.619781009491788382
0.173000000000000015,65.820694066727782001
0.174000000000000016,63.088493846582494484
0.175000000000000017,60.424872198891030450
0.176000000000000018,57.830194471532948342
0.177000000000000018,55.303542023356953905
0.178000000000000019,52.842853181727676315
0.179000000000000020,50.445127827863863956
0.180000000000000021,48.106665427348517028
0.181000000000000022,45.823311932453570705
0.182000000000000023,43.590696777450681054
0.183000000000000024,41.404446653090346331
0.184000000000000025,39.260367578349018913
0.185000000000000026,37.154590838043077383
0.186000000000000026,35.083681584492637739
0.187000000000000027,33.044711342524593078
0.188000000000000028,31.035297385866513764
0.189000000000000029,29.053613068443809198
0.190000000000000030,27.098373803470913401
0.191000000000000031,25.168803592024282523
0.192000000000000032,23.264586908559991230
0.193000000000000033,21.385810439710255082
0.194000000000000034,19.532898717818039103
0.195000000000000034,17.706547152019336266
0.196000000000000035,15.907655384741612892
0.197000000000000036,14.137263326422496945
0.198000000000000037,12.396491672371753978
0.199000000000000038,10.686488200996800302
0.200000000000000039,9.008380703263728861
0.201000000000000040,7.363237005034086735
0.202000000000000041,5.752032218400522368
0.203000000000000042,4.175623093856072998
0.204000000000000042,2.634729138405888182
0.205000000000000043,1.129920010484043003
0.206000000000000044,-0.338391405156705960
0.207000000000000045,-1.769950906837052917
0.208000000000000046,-3.164660567339157460
0.209000000000000047,-4.522572710565413878
0.210000000000000048,-5.843880960063026819
0.211000000000000049,-7.128909012222168329
0.212000000000000050,-8.378097740622445500
0.213000000000000050,-9.591991183066774340
0.214000000000000051,-10.771221902671618054
0.215000000000000052,-11.916496151759700339
0.216000000000000053,-13.028579204490904786
0.217000000000000054,-14.108281162952604149
0.218000000000000055,-15.156443483171116782
0.219000000000000056,-16.173926413186599405
0.220000000000000057,-17.161597485635688543
0.221000000000000058,-18.120321162599623221
0.222000000000000058,-19.050949691008280951
0.223000000000000059,-19.954315192633323761
0.224000000000000060,-20.831222983544336103
0.225000000000000061,-21.682446093602038673
0.226000000000000062,-22.508720936815141300
0.227000000000000063,-23.310744067834704651
0.228000000000000064,-24.089169948107812758
0.229000000000000065,-24.844609636859129154
0.230000000000000066,-25.577630316700791013
0.231000000000000066,-26.288755560895364027
0.232000000000000067,-26.978466248725069931
0.233000000000000068,-27.647202036697144933
0.234000000000000069,-28.295363296103509754
0.235000000000000070,-28.923313431448789856
0.236000000000000071,-29.531381499187617123
0.237000000000000072,-30.119865051828487168
0.238000000000000073,-30.689033138546484736
0.239000000000000073,-31.239129399818075683
0.240000000000000074,-31.770375200089254975
0.241000000000000075,-32.282972748974373189
0.242000000000000076,-32.777108167850492748
0.243000000000000077,-33.252954464870043694
0.244000000000000078,-33.710674387290858078
0.245000000000000079,-34.150423125564643101
0.246000000000000080,-34.572350848792815725
0.247000000000000081,-34.976605055927940668
0.248000000000000081,-35.363332731451947666
0.249000000000000082,-35.732682298195783233
0.250000000000000111,-36.084805363480413121
0.251000000000000112,-36.419858257863928941
0.252000000000000113,-36.738003368491249034
0.253000000000000114,-37.039410271371956185
0.254000000000000115,-37.324256668889802313
0.255000000000000115,-37.592729140486113693
0.256000000000000116,-37.845023715792329710
0.257000000000000117,-38.081346280533992399
0.258000000000000118,-38.301912826316808491
0.259000000000000119,-38.506949555961284659
0.260000000000000120,-38.696692856400183302
0.261000000000000121,-38.871389151314303945
0.262000000000000122,-39.031294645685157718
0.263000000000000123,-39.176674974302926557
0.264000000000000123,-39.307804766011848585
0.265000000000000124,-39.424967135115878136
0.266000000000000125,-39.528453110927685543
0.267000000000000126,-39.618561015935192415
0.268000000000000127,-39.695595802501443927
0.269000000000000128,-39.759868357413559181
0.270000000000000129,-39.811694782970988626
0.271000000000000130,-39.851395662660586083
0.272000000000000131,-39.879295318814861560
0.273000000000000131,-39.895721069000359194
0.274000000000000132,-39.901002487239153993
0.275000000000000133,-39.895470675537538341
0.276000000000000134,-39.879457550583325087
0.277000000000000135,-39.853295149883429360
0.278000000000000136,-39.817314961048722921
0.279000000000000137,-39.771847277396133791
0.280000000000000138,-39.717220582530813999
0.281000000000000139,-39.653760966094573348
0.282000000000000139,-39.581791572422915237
0.283000000000000140,-39.501632083440213705
0.284000000000000141,-39.413598236742920733
0.285000000000000142,-39.318001379472754309
0.286000000000000143,-39.215148058264922781
0.287000000000000144,-39.105339645270127846
0.288000000000000145,-38.988871999993129691
0.289000000000000146,-38.866035166461436745
0.290000000000000147,-38.737113105037309424
0.291000000000000147,-38.602383458009882133
0.292000000000000148,-38.462117347953935109
0.293000000000000149,-38.316579207712209154
0.294000000000000150,-38.166026640751660182
0.295000000000000151,-38.010710310556440561
0.296000000000000152,-37.850873857650697119
0.297000000000000153,-37.686753842792391822
0.298000000000000154,-37.518579714841841621
0.299000000000000155,-37.346573801785680757
0.300000000000000155,-37.170951323386482557
0.301000000000000156,-36.991920423928704054
0.302000000000000157,-36.809682223543120472
0.303000000000000158,-36.624430886611001768
0.304000000000000159,-36.436353705777754897
0.305000000000000160,-36.245631200139285966
0.306000000000000161,-36.052437226205526599
0.307000000000000162,-35.856939100290404099
0.308000000000000163,-35.659297731026697420
0.309000000000000163,-35.459667760757369592
0.310000000000000164,-35.258197714610219009
0.311000000000000165,-35.055030156119599383
0.312000000000000166,-34.850301848318537168
0.313000000000000167,-34.644143919283379773
0.314000000000000168,-34.436682031173830865
0.315000000000000169,-34.228036551870772541
0.316000000000000170,-34.018322728374343455
0.317000000000000171,-33.807650861183368818
0.318000000000000171,-33.596126478935097737
0.319000000000000172,-33.383850512641252806
0.320000000000000173,-33.170919468910881278
0.321000000000000174,-32.957425601604462884
0.322000000000000175,-32.743457081415201060
0.323000000000000176,-32.529098162922984727
0.324000000000000177,-32.314429348714405421
0.325000000000000178,-32.099527550207206161
0.326000000000000179,-31.884466244861759066
0.327000000000000179,-31.669315629502381881
0.328000000000000180,-31.454142769510461619
0.329000000000000181,-31.239011743688827494
0.330000000000000182,-31.023983784629681537
0.331000000000000183,-30.809117414452430239
0.332000000000000184,-30.594468575806430977
0.333000000000000185,-30.380090758062703316
0.334000000000000186,-30.166035118643868884
0.335000000000000187,-29.952350599466072367
0.336000000000000187,-29.739084038488400097
0.337000000000000188,-29.526280276385225676
0.338000000000000189,-29.313982258375975931
0.339000000000000190,-29.102231131262623620
0.340000000000000191,-28.891066335740514859
0.341000000000000192,-28.680525694062115605
0.342000000000000193,-28.470645493143916127
0.343000000000000194,-28.261460563218694375
0.344000000000000195,-28.053004352143357636
0.345000000000000195,-27.845308995481307335
0.346000000000000196,-27.638405382484471318
0.347000000000000197,-27.432323218106308360
0.348000000000000198,-27.227091081181175269
0.349000000000000199,-27.022736478909582303
0.350000000000000200,-26.819285897791438344
0.351000000000000201,-26.616764851151192062
0.352000000000000202,-26.415197923400377533
0.353000000000000203,-26.214608811183151005
0.354000000000000203,-26.015020361550558192
0.355000000000000204,-25.816454607308411795
0.356000000000000205,-25.618932799682582413
0.357000000000000206,-25.422475438443647988
0.358000000000000207,-25.227102299630690396
0.359000000000000208,-25.032832461011821579
0.360000000000000209,-24.839684325415763766
0.361000000000000210,-24.647675642066044333
0.362000000000000210,-24.456823526045695871
0.363000000000000211,-24.267144476016969890
0.364000000000000212,-24.078654390316629019
0.365000000000000213,-23.891368581543545702
0.366000000000000214,-23.705301789751274555
0.367000000000000215,-23.520468194353789215
0.368000000000000216,-23.336881424849124755
0.369000000000000217,-23.154554570460280871
0.370000000000000218,-22.973500188789575560
0.371000000000000218,-22.793730313577320601
0.372000000000000219,-22.615256461652091247
0.373000000000000220,-22.438089639155325727
0.374000000000000221,-22.262240347118687822
0.375000000000000222,-22.087718586468394477
0.376000000000000223,-21.914533862526944574
0.377000000000000224,-21.742695189078155238
0.378000000000000225,-21.572211092057813175
0.379000000000000226,-21.403089612928095420
0.380000000000000226,-21.235338311790506793
0.381000000000000227,-21.068964270287832363
0.382000000000000228,-20.903974094342792966
0.383000000000000229,-20.740373916776935204
0.384000000000000230,-20.578169399850267496
0.385000000000000231,-20.417365737759237021
0.386000000000000232,-20.257967659126823179
0.387000000000000233,-20.099979429516302787
0.388000000000000234,-19.943404853996813841
0.389000000000000234,-19.788247279786659760
0.390000000000000235,-19.634509598997023971
0.391000000000000236,-19.482194251497105597
0.392000000000000237,-19.331303227918446908
0.393000000000000238,-19.181838072814819895
0.394000000000000239,-19.033799887991204258
0.395000000000000240,-18.887189336013889829
0.396000000000000241,-18.742006643911597763
0.397000000000000242,-18.598251607075717118
0.398000000000000242,-18.455923593366307500
0.399000000000000243,-18.315021547428603554
0.400000000000000244,-18.175543995223506499
0.401000000000000245,-18.037489048774311584
0.402000000000000246,-17.900854411130264765
0.403000000000000247,-17.765637381546618201
0.404000000000000248,-17.631834860879820326
0.405000000000000249,-17.499443357195257676
0.406000000000000250,-17.368458991584191153
0.407000000000000250,-17.238877504185637690
0.408000000000000251,-17.110694260408131129
0.409000000000000252,-16.983904257345837863
0.410000000000000253,-16.858502130382344575
0.411000000000000254,-16.734482159975662796
0.412000000000000255,-16.611838278616616549
0.413000000000000256,-16.490564077953163036
0.414000000000000257,-16.370652816072102098
0.415000000000000258,-16.252097424929885960
0.416000000000000258,-16.134890517923572872
0.417000000000000259,-16.019024397592851017
0.418000000000000260,-15.904491063444069709
0.419000000000000261,-15.791282219886607407
0.420000000000000262,-15.679389284272398086
0.421000000000000263,-15.568803395028893988
0.422000000000000264,-15.459515419875888398
0.423000000000000265,-15.351515964116600799
0.424000000000000266,-15.244795378993657664
0.425000000000000266,-15.139343770100218478
0.426000000000000267,-15.035151005836937088
0.427000000000000268,-14.932206725905569300
0.428000000000000269,-14.830500349829842222
0.429000000000000270,-14.730021085494719557
0.430000000000000271,-14.630757937695115345
0.431000000000000272,-14.532699716685419489
0.432000000000000273,-14.435835046721294361
0.433000000000000274,-14.340152374585546369
0.434000000000000274,-14.245639978089915445
0.435000000000000275,-14.152285974545073088
0.436000000000000276,-14.060078329191142643
0.437000000000000277,-13.969004863581444553
0.438000000000000278,-13.879053263912386029
0.439000000000000279,-13.790211089292711222
0.440000000000000280,-13.702465779945436353
0.441000000000000281,-13.615804665336261436
0.442000000000000282,-13.530214972222486480
0.443000000000000282,-13.445683832616486697
0.444000000000000283,-13.362198291658499372
0.445000000000000284,-13.279745315393357785
0.446000000000000285,-13.198311798446152210
0.447000000000000286,-13.117884571592517418
0.448000000000000287,-13.038450409218597770
0.449000000000000288,-12.959996036667092767
0.450000000000000289,-12.882508137465071840
0.451000000000000290,-12.805973360430222385
0.452000000000000290,-12.730378326652072474
0.453000000000000291,-12.655709636345006786
0.454000000000000292,-12.581953875570388135
0.455000000000000293,-12.509097622824938867
0.456000000000000294,-12.437127455493220296
0.457000000000000295,-12.366029956161860071
0.458000000000000296,-12.295791718793733338
0.459000000000000297,-12.226399354760344451
0.460000000000000298,-12.157839498730870886
0.461000000000000298,-12.090098814416654349
0.462000000000000299,-12.023164000170023513
0.463000000000000300,-11.957021794436512252
0.464000000000000301,-11.891658981059862299
0.465000000000000302,-11.827062394439224136
0.466000000000000303,-11.763218924538268340
0.467000000000000304,-11.700115521745939162
0.468000000000000305,-11.637739201588987115
0.469000000000000306,-11.576077049296294774
0.470000000000000306,-11.515116224215425689
0.471000000000000307,-11.454843964081687702
0.472000000000000308,-11.395247589140478084
0.473000000000000309,-11.336314506123477130
0.474000000000000310,-11.278032212079601493
0.475000000000000311,-11.220388298061656940
0.476000000000000312,-11.163370452669875377
0.477000000000000313,-11.106966465453302462
0.478000000000000314,-11.051164230170519076
0.479000000000000314,-10.995951747911067997
0.480000000000000315,-10.941317130078903830
0.481000000000000316,-10.887248601239656765
0.482000000000000317,-10.833734501833163222
0.483000000000000318,-10.780763290753098360
0.484000000000000319,-10.728323547795419302
0.485000000000000320,-10.676403975977601490
0.486000000000000321,-10.624993403730432107
0.487000000000000322,-10.574080786964435319
0.488000000000000322,-10.523655211012899358
0.489000000000000323,-10.473705892453628152
0.490000000000000324,-10.424222180811515415
0.491000000000000325,-10.375193560144072791
0.492000000000000326,-10.326609650512070360
0.493000000000000327,-10.278460209337634268
0.494000000000000328,-10.230735132651897601
0.495000000000000329,-10.183424456234593691
0.496000000000000330,-10.136518356647780337
0.497000000000000330,-10.090007152166117876
0.498000000000000331,-10.043881303605878941
0.499000000000000332,-9.998131415055180327
0.500000000000000333,-9.952748234507652114
0.501000000000000334,-9.907722654401936779
0.502000000000000335,-9.863045712069373749
0.503000000000000336,-9.818708590092194655
0.504000000000000337,-9.774702616574591829
0.505000000000000338,-9.731019265328978207
0.506000000000000338,-9.687650155979774524
0.507000000000000339,-9.644587053987057956
0.508000000000000340,-9.601821870592374353
0.509000000000000341,-9.559346662689007346
0.510000000000000342,-9.517153632618981618
0.511000000000000343,-9.475235127899086507
0.512000000000000344,-9.433583640878122623
0.513000000000000345,-9.392191808327607916
0.514000000000000346,-9.351052410968272000
0.515000000000000346,-9.310158372934253634
0.516000000000000347,-9.269502761177395911
0.517000000000000348,-9.229078784813747660
0.518000000000000349,-9.188879794414178903
0.519000000000000350,-9.148899281241439141
0.520000000000000351,-9.109130876435568069
0.521000000000000352,-9.069568350149699754
0.522000000000000353,-9.030205610638269320
0.523000000000000353,-8.991036703299549515
0.524000000000000354,-8.952055809674551057
0.525000000000000355,-8.913257246403983203
0.526000000000000356,-8.874635464145363528
0.527000000000000357,-8.836185046451983993
0.528000000000000358,-8.797900708615511434
0.529000000000000359,-8.759777296474094754
0.530000000000000360,-8.721809785187613073
0.531000000000000361,-8.683993277981809200
0.532000000000000361,-8.646323004862967565
0.533000000000000362,-8.608794321304740649
0.534000000000000363,-8.571402706908788360
0.535000000000000364,-8.534143764040672764
0.536000000000000365,-8.497013216442665495
0.537000000000000366,-8.460006907824862310
0.538000000000000367,-8.423120800436075584
0.539000000000000368,-8.386350973616032434
0.540000000000000369,-8.349693622330043752
0.541000000000000369,-8.313145055687767737
0.542000000000000370,-8.276701695447176377
0.543000000000000371,-8.240360074505076682
0.544000000000000372,-8.204116835375506511
0.545000000000000373,-8.167968728657131194
0.546000000000000374,-8.131912611490832887
0.547000000000000375,-8.095945446008700586
0.548000000000000376,-8.060064297775520359
0.549000000000000377,-8.024266334223833397
0.550000000000000377,-7.988548823083585937
0.551000000000000378,-7.952909130807499949
0.552000000000000379,-7.917344720993040319
0.553000000000000380,-7.881853152802033691
0.554000000000000381,-7.846432079378764968
0.555000000000000382,-7.811079246267617293
0.556000000000000383,-7.775792489830903875
0.557000000000000384,-7.740569735667952145
0.558000000000000385,-7.705408997036116148
0.559000000000000385,-7.670308373274544067
0.560000000000000386,-7.635266048231460267
0.561000000000000387,-7.600280288695707931
0.562000000000000388,-7.565349442833218419
0.563000000000000389,-7.530471938629105466
0.564000000000000390,-7.495646282336054789
0.565000000000000391,-7.460871056929576639
0.566000000000000392,-7.426144920570796337
0.567000000000000393,-7.391466605077325447
0.568000000000000393,-7.356834914402714531
0.569000000000000394,-7.322248723125098557
0.570000000000000395,-7.287706974945542981
0.571000000000000396,-7.253208681196439578
0.572000000000000397,-7.218752919360619025
0.573000000000000398,-7.184338831601436937
0.574000000000000399,-7.149965623304360918
0.575000000000000400,-7.115632561630416575
0.576000000000000401,-7.081338974081841542
0.577000000000000401,-7.047084247080424468
0.578000000000000402,-7.012867824558681740
0.579000000000000403,-6.978689206564355985
0.580000000000000404,-6.944547947878460192
0.581000000000000405,-6.910443656647172972
0.582000000000000406,-6.876375993027829203
0.583000000000000407,-6.842344667849280526
0.584000000000000408,-6.808349441286860149
0.585000000000000409,-6.774390121552151811
0.586000000000000409,-6.740466563597753868
0.587000000000000410,-6.706578667837294283
0.588000000000000411,-6.672726378880753373
0.589000000000000412,-6.638909684285389190
0.590000000000000413,-6.605128613322252207
0.591000000000000414,-6.571383235758581520
0.592000000000000415,-6.537673660656095009
0.593000000000000416,-6.504000035185277362
0.594000000000000417,-6.470362543455818738
0.595000000000000417,-6.436761405363278676
0.596000000000000418,-6.403196875451911296
0.597000000000000419,-6.369669241793977754
0.598000000000000420,-6.336178824885267957
0.599000000000000421,-6.302725976557146836
0.600000000000000422,-6.269311078904978629
0.601000000000000423,-6.235934543233022431
0.602000000000000424,-6.202596809015783030
0.603000000000000425,-6.169298342875829455
0.604000000000000425,-6.136039637578032391
