# AlFCC100UCD_PHESCA-AC
# h[nm],U(h)[kJ/mol]
0.149999999999999994,130.186008895675371377
0.150999999999999995,125.937334531989520769
0.151999999999999996,121.767839762510561741
0.152999999999999997,117.693574625233580377
0.153999999999999998,113.740836451375528782
0.154999999999999999,109.924629555914023626
0.156000000000000000,106.245130949401271891
0.157000000000000001,102.691399961191905277
0.158000000000000002,99.246849324830037631
0.159000000000000002,95.894010570274403449
0.160000000000000003,92.617758422028146015
0.161000000000000004,89.406969689435726423
0.162000000000000005,86.254934617372398975
0.163000000000000006,83.158929244881136356
0.164000000000000007,80.119324910533038064
0.165000000000000008,77.138529381887607883
0.166000000000000009,74.219962856913667792
0.167000000000000010,71.367190555892449311
0.168000000000000010,68.583269301353269043
0.169000000000000011,65.870319501085674574
0.170000000000000012,63.229304312771510865
0.171000000000000013,60.659981258746938693
0.172000000000000014,58.160984771763921231
0.173000000000000015,55.729998019728405723
0.174000000000000016,53.363976361360400347
0.175000000000000017,51.059390998246342974
0.176000000000000018,48.812468427227621248
0.177000000000000018,46.619408232153865868
0.178000000000000019,44.476568017316424175
0.179000000000000020,42.380609576943328420
0.180000000000000021,40.328604607126351311
0.181000000000000022,38.318101416483337118
0.182000000000000023,36.347156275476606879
0.183000000000000024,34.414334398713172902
0.184000000000000025,32.518686232595442220
0.185000000000000026,30.659704873851769236
0.186000000000000026,28.837270212287641868
0.187000000000000027,27.051584895344412018
0.188000000000000028,25.303106554357931657
0.189000000000000029,23.592479994113549679
0.190000000000000030,21.920472290746435107
0.191000000000000031,20.287913013720544342
0.192000000000000032,18.695641116640981494
0.193000000000000033,17.144459448299794957
0.194000000000000034,15.635097329560114332
0.195000000000000034,14.168181226213921065
0.196000000000000035,12.744213220368322936
0.197000000000000036,11.363556737169400179
0.198000000000000037,10.026428811429248356
0.199000000000000038,8.732898070407390634
0.200000000000000039,7.482887554591509449
0.201000000000000040,6.276181487944382908
0.202000000000000041,5.112435133406025400
0.203000000000000042,3.991186919950133749
0.204000000000000042,2.911872096648765229
0.205000000000000043,1.873837250501647844
0.206000000000000044,0.876355112770319189
0.207000000000000045,-0.081360831229857267
0.208000000000000046,-1.000142325022835621
0.209000000000000047,-1.880853227790150628
0.210000000000000048,-2.724377537416143191
0.211000000000000049,-3.531608710415797159
0.212000000000000050,-4.303440375850948740
0.213000000000000050,-5.040758485247062382
0.214000000000000051,-5.744434893910201900
0.215000000000000052,-6.415322330659392946
0.216000000000000053,-7.054250682384830995
0.217000000000000054,-7.662024496429046039
0.218000000000000055,-8.239421586882984982
0.219000000000000056,-8.787192619761309942
0.220000000000000057,-9.306061545924118050
0.221000000000000058,-9.796726748799036599
0.222000000000000058,-10.259862775724226225
0.223000000000000059,-10.696122526399436836
0.224000000000000060,-11.106139778886916503
0.225000000000000061,-11.490531942283823241
0.226000000000000062,-11.849902935093359346
0.227000000000000063,-12.184846099018047383
0.228000000000000064,-12.495947069006803076
0.229000000000000065,-12.783786531593557712
0.230000000000000066,-13.048942814601719675
0.231000000000000066,-13.291994261947589706
0.232000000000000067,-13.513521357387318744
0.233000000000000068,-13.714108570492138384
0.234000000000000069,-13.894345906815875225
0.235000000000000070,-14.054830152078352512
0.236000000000000071,-14.196165807198212860
0.237000000000000072,-14.318965717160253348
0.238000000000000073,-14.423851402005288591
0.239000000000000073,-14.511453102710301977
0.240000000000000074,-14.582409558421307594
0.241000000000000075,-14.637367534456080520
0.242000000000000076,-14.676981122761038279
0.243000000000000077,-14.701910838144858218
0.244000000000000078,-14.712822534678915432
0.245000000000000079,-14.710386167211183306
0.246000000000000080,-14.695274423048090284
0.247000000000000081,-14.668161248574454802
0.248000000000000081,-14.629720294962055505
0.249000000000000082,-14.580623306216844881
0.250000000000000111,-14.521538471682495341
0.251000000000000112,-14.453128763800549450
0.252000000000000113,-14.376050280468950504
0.253000000000000114,-14.290950609776867708
0.254000000000000115,-14.198467233263485809
0.255000000000000115,-14.099225982178179351
0.256000000000000116,-13.993839559540450779
0.257000000000000117,-13.882906139130511747
0.258000000000000118,-13.767008050907392658
0.259000000000000119,-13.646710560767264298
0.260000000000000120,-13.522560751034280457
0.261000000000000121,-13.395086506630525136
0.262000000000000122,-13.264795610510187629
0.263000000000000123,-13.132174950671188896
0.264000000000000123,-12.997689839881179097
0.265000000000000124,-12.861783448174790578
0.266000000000000125,-12.724876347199105098
0.267000000000000126,-12.587366164601331064
0.268000000000000127,-12.449627345868018224
0.269000000000000128,-12.312011020334889366
0.270000000000000129,-12.174844967487791436
0.271000000000000130,-12.038433679164983303
0.272000000000000131,-11.903058512844532757
0.273000000000000131,-11.768977930852823732
0.274000000000000132,-11.636427820057004823
0.275000000000000133,-11.505621886400124509
0.276000000000000134,-11.376752118496757049
0.277000000000000135,-11.249989314425457465
0.278000000000000136,-11.125483665825326440
0.279000000000000137,-11.003365393423404583
0.280000000000000138,-10.883745428182425741
0.281000000000000139,-10.766716132358700619
0.282000000000000139,-10.652352054894617339
0.283000000000000140,-10.540710715733341729
0.284000000000000141,-10.431833413831750335
0.285000000000000142,-10.325746053856866169
0.286000000000000143,-10.222459986777584717
0.287000000000000144,-10.121972859803584299
0.288000000000000145,-10.024269471374690710
0.289000000000000146,-9.929322627162147086
0.290000000000000147,-9.837093993307323814
0.291000000000000147,-9.747534943389482009
0.292000000000000148,-9.660587395881261585
0.293000000000000149,-9.576184639115822961
0.294000000000000150,-9.494252141051525484
0.295000000000000151,-9.414708341377984624
0.296000000000000152,-9.337465423758063210
0.297000000000000153,-9.262430066245446625
0.298000000000000154,-9.189504168152785368
0.299000000000000155,-9.118585551873346517
0.300000000000000155,-9.049568638376381813
0.301000000000000156,-8.982345095304259175
0.302000000000000157,-8.916804456796491252
0.303000000000000158,-8.852834714352342260
0.304000000000000159,-8.790322878219271274
0.305000000000000160,-8.729155508958820420
0.306000000000000161,-8.669219218995532827
0.307000000000000162,-8.610401144096908155
0.308000000000000163,-8.552589384864466737
0.309000000000000163,-8.495673418437366564
0.310000000000000164,-8.439544480721124842
0.311000000000000165,-8.384095919554967580
0.312000000000000166,-8.329223519322740188
0.313000000000000167,-8.274825797594271393
0.314000000000000168,-8.220804274457005789
0.315000000000000169,-8.167063715262177226
0.316000000000000170,-8.113512347566009808
0.317000000000000171,-8.060062053094805279
0.318000000000000171,-8.006628535603798724
0.319000000000000172,-7.953131465533911815
0.320000000000000173,-7.899494602398047682
0.321000000000000174,-7.845645895850028140
0.322000000000000175,-7.791517566405187445
0.323000000000000176,-7.737046166792183044
0.324000000000000177,-7.682172624921042470
0.325000000000000178,-7.626842269453788958
0.326000000000000179,-7.571004838960954331
0.327000000000000179,-7.514614475640392754
0.328000000000000180,-7.457629704564668671
0.329000000000000181,-7.400013399410208415
0.330000000000000182,-7.341732735604776572
0.331000000000000183,-7.282759131811973319
0.332000000000000184,-7.223068180650085601
0.333000000000000185,-7.162639569520311333
0.334000000000000186,-7.101456992394939327
0.335000000000000187,-7.039508053390143516
0.336000000000000187,-6.976784162921444654
0.337000000000000188,-6.913280427211408785
0.338000000000000189,-6.848995531890963662
0.339000000000000190,-6.783931620405962981
0.340000000000000191,-6.718094167910743764
0.341000000000000192,-6.651491851301027047
0.342000000000000193,-6.584136416007186021
0.343000000000000194,-6.516042540139754813
0.344000000000000195,-6.447227696548088360
0.345000000000000195,-6.377712013323735718
0.346000000000000196,-6.307518133250168191
0.347000000000000197,-6.236671072671411409
0.348000000000000198,-6.165198080223557753
0.349000000000000199,-6.093128495844640113
0.350000000000000200,-6.020493610451347344
0.351000000000000201,-5.947326526643594846
0.352000000000000202,-5.873662020772317582
0.353000000000000203,-5.799536406680201317
0.354000000000000203,-5.724987401400489340
0.355000000000000204,-5.650053993075277781
0.356000000000000205,-5.574776311331739898
0.357000000000000206,-5.499195500332641373
0.358000000000000207,-5.423353594696150637
0.359000000000000208,-5.347293398459769698
0.360000000000000209,-5.271058367243657727
0.361000000000000210,-5.194692493749878182
0.362000000000000210,-5.118240196716550727
0.363000000000000211,-5.041746213428902834
0.364000000000000212,-4.965255495873231339
0.365000000000000213,-4.888813110604526280
0.366000000000000214,-4.812464142384290433
0.367000000000000215,-4.736253601631404742
0.368000000000000216,-4.660226335716316726
0.369000000000000217,-4.584426944116618330
0.370000000000000218,-4.508899697441193233
0.371000000000000218,-4.433688460319293867
0.372000000000000219,-4.358836618141436858
0.373000000000000220,-4.284387007629804067
0.374000000000000221,-4.210381851207416481
0.375000000000000222,-4.136862695127685008
0.376000000000000223,-4.063870351318747076
0.377000000000000224,-3.991444842890445877
0.378000000000000225,-3.919625353245963506
0.379000000000000226,-3.848450178734504679
0.380000000000000226,-3.777956684776801577
0.381000000000000227,-3.708181265390508852
0.382000000000000228,-3.639159306038977526
0.383000000000000229,-3.570925149723211067
0.384000000000000230,-3.503512066233774647
0.385000000000000231,-3.436952224477086926
0.386000000000000232,-3.371276667787910242
0.387000000000000233,-3.306515292138294093
0.388000000000000234,-3.242696827151550387
0.389000000000000234,-3.179848819828778872
0.390000000000000235,-3.117997620894353172
0.391000000000000236,-3.057168373666501626
0.392000000000000237,-2.997385005358414567
0.393000000000000238,-2.938670220715591253
0.394000000000000239,-2.881045497894959340
0.395000000000000240,-2.824531086491904652
0.396000000000000241,-2.769146007621813954
0.397000000000000242,-2.714908055963420441
0.398000000000000242,-2.661833803672364773
0.399000000000000243,-2.609938606074196255
0.400000000000000244,-2.559236609047380817
0.401000000000000245,-2.509740758008372818
0.402000000000000246,-2.461462808411975622
0.403000000000000247,-2.414413337681934557
0.404000000000000248,-2.368601758488486198
0.405000000000000249,-2.324036333291080503
0.406000000000000250,-2.280724190066522716
0.407000000000000250,-2.238671339144533867
0.408000000000000251,-2.197882691074734218
0.409000000000000252,-2.158362075451078166
0.410000000000000253,-2.120112260621599631
0.411000000000000254,-2.083134974213707302
0.412000000000000255,-2.047430924406993480
0.413000000000000256,-2.012999821887958340
0.414000000000000257,-1.979840402422824663
0.415000000000000258,-1.947950449987092103
0.416000000000000258,-1.917326820392288855
0.417000000000000259,-1.887965465352683392
0.418000000000000260,-1.859861456936798163
0.419000000000000261,-1.833009012350549582
0.420000000000000262,-1.807401519001110568
0.421000000000000263,-1.783031559792521703
0.422000000000000264,-1.759890938606071931
0.423000000000000265,-1.737970705920619974
0.424000000000000266,-1.717261184529980111
0.425000000000000266,-1.697751995316303608
0.426000000000000267,-1.679432083040488521
0.427000000000000268,-1.662289742112440738
0.428000000000000269,-1.646312642305881813
0.429000000000000270,-1.631487854384152225
0.430000000000000271,-1.617801875605354045
0.431000000000000272,-1.605240655076751510
0.432000000000000273,-1.593789618930121943
0.433000000000000274,-1.583433695291408316
0.434000000000000274,-1.574157339019562007
0.435000000000000275,-1.565944556191032566
0.436000000000000276,-1.558778928307942735
0.437000000000000277,-1.552643636209338540
0.438000000000000278,-1.547521483666413067
0.439000000000000279,-1.543394920643982537
0.440000000000000280,-1.540246066211750975
0.441000000000000281,-1.538056731090220230
0.442000000000000282,-1.536808439817463734
0.443000000000000282,-1.536482452523924902
0.444000000000000283,-1.537059786303841324
0.445000000000000284,-1.538521236172825990
0.446000000000000285,-1.540847395602211733
0.447000000000000286,-1.544018676621973452
0.448000000000000287,-1.548015329484741187
0.449000000000000288,-1.552817461884647088
0.450000000000000289,-1.558405057725477549
0.451000000000000290,-1.564757995433514903
0.452000000000000290,-1.571856065811325198
0.453000000000000291,-1.579678989429469382
0.454000000000000292,-1.588206433553952079
0.455000000000000293,-1.597418028607841878
0.456000000000000294,-1.607293384166293748
0.457000000000000295,-1.617812104484719793
0.458000000000000296,-1.628953803560647229
0.459000000000000297,-1.640698119730171545
0.460000000000000298,-1.653024729800697923
0.461000000000000298,-1.665913362721917590
0.462000000000000299,-1.679343812797785329
0.463000000000000300,-1.693295952442377850
0.464000000000000301,-1.707749744483236132
0.465000000000000302,-1.722685254015997813
0.466000000000000303,-1.738082659814692121
0.467000000000000304,-1.753922265302194416
0.468000000000000305,-1.770184509085924729
0.469000000000000306,-1.786849975063990570
0.470000000000000306,-1.803899402107333128
0.471000000000000307,-1.821313693323702410
0.472000000000000308,-1.839073924909538915
0.473000000000000309,-1.857161354596011504
0.474000000000000310,-1.875557429695660305
0.475000000000000311,-1.894243794756450772
0.476000000000000312,-1.913202298829852266
0.477000000000000313,-1.932415002360144740
0.478000000000000314,-1.951864183701872646
0.479000000000000314,-1.971532345272824838
0.480000000000000315,-1.991402219349746927
0.481000000000000316,-2.011456773514287200
0.482000000000000317,-2.031679215756603263
0.483000000000000318,-2.052052999244213805
0.484000000000000319,-2.072561826763653414
0.485000000000000320,-2.093189654842587011
0.486000000000000321,-2.113920697560018880
0.487000000000000322,-2.134739430052260190
0.488000000000000322,-2.155630591722333733
0.489000000000000323,-2.176579189160442240
0.490000000000000324,-2.197570498783199433
0.491000000000000325,-2.218590069199206205
0.492000000000000326,-2.239623723308549419
0.493000000000000327,-2.260657560143808809
0.494000000000000328,-2.281677956460041123
0.495000000000000329,-2.302671568081218645
0.496000000000000330,-2.323625331010451767
0.497000000000000330,-2.344526462311410597
0.498000000000000331,-2.365362460768104746
0.499000000000000332,-2.386121107330224422
0.500000000000000333,-2.406790465351168695
0.501000000000000334,-2.427358880625726911
0.502000000000000335,-2.447814981234348597
0.503000000000000336,-2.468147677200810630
0.504000000000000337,-2.488346159970050930
0.505000000000000338,-2.508399901712729196
0.506000000000000338,-2.528298654463101869
0.507000000000000339,-2.548032449096619523
0.508000000000000340,-2.567591594153535883
0.509000000000000341,-2.586966674514741715
0.510000000000000342,-2.606148549935944914
0.511000000000000343,-2.625128353446157359
0.512000000000000344,-2.643897489616347851
0.513000000000000345,-2.662447632704012523
0.514000000000000346,-2.680770724679362615
0.515000000000000346,-2.698858973138550610
0.516000000000000347,-2.716704849109409015
0.517000000000000348,-2.734301084754981570
0.518000000000000349,-2.751640670979991210
0.519000000000000350,-2.768716854945307837
0.520000000000000351,-2.785523137495371504
0.521000000000000352,-2.802053270503365834
0.522000000000000353,-2.818301254138816603
0.523000000000000353,-2.834261334062278426
0.524000000000000354,-2.849927998551490038
0.525000000000000355,-2.865295975563415087
0.526000000000000356,-2.880360229736353528
0.527000000000000357,-2.895115959336288736
0.528000000000000358,-2.909558593151507111
0.529000000000000359,-2.923683787339267592
0.530000000000000360,-2.937487422228480582
0.531000000000000361,-2.950965599081934787
0.532000000000000361,-2.964114636821747251
0.533000000000000362,-2.976931068721412110
0.534000000000000363,-2.989411639067888871
0.535000000000000364,-3.001553299796941410
0.536000000000000365,-3.013353207104877640
0.537000000000000366,-3.024808718039779798
0.538000000000000367,-3.035917387075126150
0.539000000000000368,-3.046676962668721345
0.540000000000000369,-3.057085383809635459
0.541000000000000369,-3.067140776555851822
0.542000000000000370,-3.076841450565185543
0.543000000000000371,-3.086185895621937902
0.544000000000000372,-3.095172778161714433
0.545000000000000373,-3.103800937796649784
0.546000000000000374,-3.112069383843320214
0.547000000000000375,-3.119977291855402957
0.548000000000000376,-3.127524000163213636
0.549000000000000377,-3.134709006421998456
0.550000000000000377,-3.141531964170942270
0.551000000000000378,-3.147992679404640004
0.552000000000000379,-3.154091107158830454
0.553000000000000380,-3.159827348111972967
0.554000000000000381,-3.165201645204308800
0.555000000000000382,-3.170214380275933941
0.556000000000000383,-3.174866070725225864
0.557000000000000384,-3.179157366189154121
0.558000000000000385,-3.183089045246648929
0.559000000000000385,-3.186662012146351142
0.560000000000000386,-3.189877293559908900
0.561000000000000387,-3.192736035361929403
0.562000000000000388,-3.195239499437668051
0.563000000000000389,-3.197389060519453707
0.564000000000000390,-3.199186203052784006
0.565000000000000391,-3.200632518093008194
0.566000000000000392,-3.201729700233427955
0.567000000000000393,-3.202479544565602687
0.568000000000000393,-3.202883943672579115
0.569000000000000394,-3.202944884655777535
0.570000000000000395,-3.202664446196165748
0.571000000000000396,-3.202044795650239362
0.572000000000000397,-3.201088186181503037
0.573000000000000398,-3.199796953927835030
0.574000000000000399,-3.198173515205249284
0.575000000000000400,-3.196220363748506710
0.576000000000000401,-3.193940067988890519
0.577000000000000401,-3.191335268369589251
0.578000000000000402,-3.188408674698907763
0.579000000000000403,-3.185163063541631256
0.580000000000000404,-3.181601275648800353
0.581000000000000405,-3.177726213426045110
0.582000000000000406,-3.173540838440718215
0.583000000000000407,-3.169048168967924628
0.584000000000000408,-3.164251277575615529
0.585000000000000409,-3.159153288748775434
0.586000000000000409,-3.153757376552795311
0.587000000000000410,-3.148066762336100499
0.588000000000000411,-3.142084712471942431
0.589000000000000412,-3.135814536139463815
0.590000000000000413,-3.129259583143877421
0.591000000000000414,-3.122423241775794445
0.592000000000000415,-3.115308936709563881
0.593000000000000416,-3.107920126940520333
0.594000000000000417,-3.100260303761040337
0.595000000000000417,-3.092332988775268188
0.596000000000000418,-3.084141731952279919
0.597000000000000419,-3.075690109717642340
0.598000000000000420,-3.066981723082997213
0.599000000000000421,-3.058020195813640374
0.600000000000000422,-3.048809172633723641
0.601000000000000423,-3.039352317468915210
0.602000000000000424,-3.029653311726256071
0.603000000000000425,-3.019715852610944662
0.604000000000000425,-3.009543651479728688
0.605000000000000426,-2.999140432230693154
0.606000000000000427,-2.988509929729083581
0.607000000000000428,-2.977655888268849527
0.608000000000000429,-2.966582060069646865
0.609000000000000430,-2.955292203808892459
0.610000000000000431,-2.943790083188602580
0.611000000000000432,-2.932079465536602036
