# AlFCC100UCD_PROSCA-JS
# h[nm],U(h)[kJ/mol]
0.149999999999999994,150.916488981520330981
0.150999999999999995,150.455714615780550503
0.151999999999999996,146.366437837949149525
0.152999999999999997,141.533862452384312292
0.153999999999999998,137.087307107473492351
0.154999999999999999,133.285765615135630924
0.156000000000000000,130.017253357236398870
0.157000000000000001,127.062288919634127637
0.158000000000000002,124.218319459781326941
0.159000000000000002,121.346137303199981261
0.160000000000000003,118.375763789793339242
0.161000000000000004,115.293988679896827421
0.162000000000000005,112.126036962154188359
0.163000000000000006,108.917818966583396900
0.164000000000000007,105.721624583992863222
0.165000000000000008,102.586081100966367785
0.166000000000000009,99.550125956065244281
0.167000000000000010,96.640267052929999636
0.168000000000000010,93.870265176127276163
0.169000000000000011,91.242417530098705925
0.170000000000000012,88.749751113080677101
0.171000000000000013,86.378592047304593393
0.172000000000000014,84.111130275101700704
0.173000000000000015,81.927732457228600538
0.174000000000000016,79.808863477303404466
0.175000000000000017,77.736558257551635620
0.176000000000000018,75.695443155809002178
0.177000000000000018,73.673343863082664029
0.178000000000000019,71.661538590080994027
0.179000000000000020,69.654725326042992606
0.180000000000000021,67.650773483373114914
0.181000000000000022,65.650326121282688518
0.182000000000000023,63.656311389929115307
0.183000000000000024,61.673412530151153987
0.184000000000000025,59.707535914174869163
0.185000000000000026,57.765307049237307524
0.186000000000000026,55.853615717135696173
0.187000000000000027,53.979223786820320186
0.188000000000000028,52.148442844314239153
0.189000000000000029,50.366883646008957953
0.190000000000000030,48.639275450537333256
0.191000000000000031,46.969350405566771656
0.192000000000000032,45.359786218186187057
0.193000000000000033,43.812199171287105059
0.194000000000000034,42.327179016002993706
0.195000000000000034,40.904357234079476768
0.196000000000000035,39.542500500264786467
0.197000000000000036,38.239621775886121213
0.198000000000000037,36.993102239954495758
0.199000000000000038,35.799818138970266546
0.200000000000000039,34.656267551785070680
0.201000000000000040,33.558692975706115647
0.202000000000000041,32.503196510657609508
0.203000000000000042,31.485845225862004071
0.204000000000000042,30.502765022747077239
0.205000000000000043,29.550221949969632362
0.206000000000000044,28.624690478237955205
0.207000000000000045,27.722908704768713051
0.208000000000000046,26.841920833476155650
0.209000000000000047,25.979107573222602667
0.210000000000000048,25.132205319873150984
0.211000000000000049,24.299315146490709338
0.212000000000000050,23.478902728068941741
0.213000000000000050,22.669790380982924205
0.214000000000000051,21.871142410769799369
0.215000000000000052,21.082444942377655650
0.216000000000000053,20.303481361463688870
0.217000000000000054,19.534304429820299021
0.218000000000000055,18.775206057985215580
0.219000000000000056,18.026685628256316818
0.220000000000000057,17.289417665696799276
0.221000000000000058,16.564219556647934439
0.222000000000000058,15.852019916512782416
0.223000000000000059,15.153828113348472684
0.224000000000000060,14.470705362816243422
0.225000000000000061,13.803737724571913503
0.226000000000000062,13.154011251141820793
0.227000000000000063,12.522589468307595340
0.228000000000000064,11.910493301338075156
0.229000000000000065,11.318683504151124453
0.230000000000000066,10.748045598585004967
0.231000000000000066,10.199377288178480327
0.232000000000000067,9.673378274872103333
0.233000000000000068,9.170642377433631864
0.234000000000000069,8.691651826712684326
0.235000000000000070,8.236773594537982746
0.236000000000000071,7.806257599665704205
0.237000000000000072,7.400236625144512637
0.238000000000000073,7.018727776266016072
0.239000000000000073,6.661635306420509828
0.240000000000000074,6.328754639197962106
0.241000000000000075,6.019777418519891121
0.242000000000000076,5.734297424040333269
0.243000000000000077,5.471817196132784389
0.244000000000000078,5.231755223137418476
0.245000000000000079,5.013453552867455976
0.246000000000000080,4.816185700385777757
0.247000000000000081,4.639164734519381383
0.248000000000000081,4.481551436265991839
0.249000000000000082,4.342462432980999765
0.250000000000000111,4.220978222857718620
0.251000000000000112,4.116151014600370139
0.252000000000000113,4.027012317229662131
0.253000000000000114,3.952580224571010881
0.254000000000000115,3.891866348087212657
0.255000000000000115,3.843882360283247923
0.256000000000000116,3.807646118894030707
0.257000000000000117,3.782187349446386015
0.258000000000000118,3.766552870553257826
0.259000000000000119,3.759811352450005195
0.260000000000000120,3.761057604827149792
0.261000000000000121,3.769416394965705130
0.262000000000000122,3.784045801558215683
0.263000000000000123,3.804140113426245140
0.264000000000000123,3.828932285649041312
0.265000000000000124,3.857695968429462052
0.266000000000000125,3.889747126371669417
0.267000000000000126,3.924445267765011458
0.268000000000000127,3.961194304990964810
0.269000000000000128,3.999443068329225248
0.270000000000000129,4.038685496266870345
0.271000000000000130,4.078460525943237158
0.272000000000000131,4.118351707622954549
0.273000000000000131,4.157986567111106702
0.274000000000000132,4.197035739834448442
0.275000000000000133,4.235211899939275604
0.276000000000000134,4.272268507224088907
0.277000000000000135,4.307998394056832048
0.278000000000000136,4.342232213645306871
0.279000000000000137,4.374836770154055365
0.280000000000000138,4.405713250210553156
0.281000000000000139,4.434795374335558371
0.282000000000000139,4.462047485780646916
0.283000000000000140,4.487462593175683523
0.284000000000000141,4.511060382291432802
0.285000000000000142,4.532885211119229041
0.286000000000000143,4.553004101369891643
0.287000000000000144,4.571504738406947155
0.288000000000000145,4.588493490560866306
0.289000000000000146,4.604093457729192984
0.290000000000000147,4.618442558155871680
0.291000000000000147,4.631691661307588248
0.292000000000000148,4.644002773827698327
0.293000000000000149,4.655547284653374973
0.294000000000000150,4.666504274530479890
0.295000000000000151,4.677058894354585661
0.296000000000000152,4.687400816007668780
0.297000000000000153,4.697722758647280727
0.298000000000000154,4.708219092740129952
0.299000000000000155,4.719084523513334517
0.300000000000000155,4.730512854924397104
0.301000000000000156,4.742695834724221626
0.302000000000000157,4.755822080704628085
0.303000000000000158,4.770076087782283203
0.304000000000000159,4.785637315172314388
0.305000000000000160,4.802679352546945779
0.306000000000000161,4.821369163753664644
0.307000000000000162,4.841866406383685373
0.308000000000000163,4.864322825232179071
0.309000000000000163,4.888881717474609090
0.310000000000000164,4.915677467197735240
0.311000000000000165,4.944835146766682676
0.312000000000000166,4.976470182379097551
0.313000000000000167,5.010688081052687259
0.314000000000000168,5.047584216210505126
0.315000000000000169,5.087243668968525867
0.316000000000000170,5.129741122189494185
0.317000000000000171,5.175140804345197409
0.318000000000000171,5.223496480223781546
0.319000000000000172,5.274851485528336603
0.320000000000000173,5.329238802436056410
0.321000000000000174,5.386681173222934937
0.322000000000000175,5.447191249104966992
0.323000000000000176,5.510771771502848360
0.324000000000000177,5.577415783001624661
0.325000000000000178,5.647106865348325400
0.326000000000000179,5.719819401908625700
0.327000000000000179,5.795518862087066125
0.328000000000000180,5.874162105303289749
0.329000000000000181,5.955697702207570110
0.330000000000000182,6.040066270914209667
0.331000000000000183,6.127200826126697919
0.332000000000000184,6.217027139127244695
0.333000000000000185,6.309464106701530461
0.334000000000000186,6.404424127168954151
0.335000000000000187,6.501813481787438675
0.336000000000000187,6.601532719900314206
0.337000000000000188,6.703477046290235997
0.338000000000000189,6.807536709301027500
0.339000000000000190,6.913597388382839881
0.340000000000000191,7.021540579808641880
0.341000000000000192,7.131243979399940258
0.342000000000000193,7.242581861188279291
0.343000000000000194,7.355425451023694272
0.344000000000000195,7.469643294224776575
0.345000000000000195,7.585101616444307915
0.346000000000000196,7.701664677001767600
0.347000000000000197,7.819195114008090641
0.348000000000000198,7.937554280678646990
0.349000000000000199,8.056602572298933396
0.350000000000000200,8.176199743371622475
0.351000000000000201,8.296205214536106709
0.352000000000000202,8.416478368909604768
0.353000000000000203,8.536878837555033073
0.354000000000000203,8.657266773833310225
0.355000000000000204,8.777503116447221032
0.356000000000000205,8.897449841030773854
0.357000000000000206,9.016970200181942730
0.358000000000000207,9.135928951877453130
0.359000000000000208,9.254192576246824231
0.360000000000000209,9.371629480718404182
0.361000000000000210,9.488110193583278118
0.362000000000000210,9.603507546053609900
0.363000000000000211,9.717696842920112488
0.364000000000000212,9.830556021939305111
0.365000000000000213,9.941965802104999028
0.366000000000000214,10.051809820979874743
0.367000000000000215,10.159974761282770217
0.368000000000000216,10.266350466944743403
0.369000000000000217,10.370830048862796247
0.370000000000000218,10.473309980594205371
0.371000000000000218,10.573690184246634871
0.372000000000000219,10.671874106829939421
0.373000000000000220,10.767768787345032067
0.374000000000000221,10.861284914892561204
0.375000000000000222,10.952336878091195160
0.376000000000000223,11.040842806100044982
0.377000000000000224,11.126724601544220050
0.378000000000000225,11.209907965645097505
0.379000000000000226,11.290322415859179728
0.380000000000000226,11.367901296330114036
0.381000000000000227,11.442581781458635248
0.382000000000000228,11.514304872894554066
0.383000000000000229,11.583015390253097010
0.384000000000000230,11.648661955856182360
0.385000000000000231,11.711196973795862775
0.386000000000000232,11.770576603614051336
0.387000000000000233,11.826760728888645602
0.388000000000000234,11.879712921011526205
0.389000000000000234,11.929400398439222286
0.390000000000000235,11.975793981691664314
0.391000000000000236,12.018868044368659298
0.392000000000000237,12.058600460448129610
0.393000000000000238,12.094972548123546829
0.394000000000000239,12.127969010431765895
0.395000000000000240,12.157577872915812378
0.396000000000000241,12.183790418560244362
0.397000000000000242,12.206601120229773727
0.398000000000000242,12.226007570834864779
0.399000000000000243,12.242010411440727324
0.400000000000000244,12.254613257529076265
0.401000000000000245,12.263822623614501595
0.402000000000000246,12.269647846410364878
0.403000000000000247,12.272101006731622519
0.404000000000000248,12.271196850314820992
0.405000000000000249,12.266952707728332683
0.406000000000000250,12.259388413538664153
0.407000000000000250,12.248526224891671532
0.408000000000000251,12.234390739660522485
0.409000000000000252,12.217008814305174269
0.410000000000000253,12.196409481581602208
0.411000000000000254,12.172623868232024691
0.412000000000000255,12.145685112781055892
0.413000000000000256,12.115628283556050704
0.414000000000000257,12.082490297043756655
0.415000000000000258,12.046309836689108153
0.416000000000000258,12.007127272236088444
0.417000000000000259,11.964984579704486478
0.418000000000000260,11.919925262090993456
0.419000000000000261,11.871994270877143762
0.420000000000000262,11.821237928421458818
0.421000000000000263,11.767703851307768304
0.422000000000000264,11.711440874716673832
0.423000000000000265,11.652498977882133957
0.424000000000000266,11.590929210690347873
0.425000000000000266,11.526783621473667196
0.426000000000000267,11.460115186047634239
0.427000000000000268,11.390977738035031663
0.428000000000000269,11.319425900516803196
0.429000000000000270,11.245515019045637217
0.430000000000000271,11.169301096054059741
0.431000000000000272,11.090840726685620155
0.432000000000000273,11.010191036073823767
0.433000000000000274,10.927409618090416998
0.434000000000000274,10.842554475581128060
0.435000000000000275,10.755683962104340523
0.436000000000000276,10.666856725184759469
0.437000000000000277,10.576131651091639441
0.438000000000000278,10.483567811148528648
0.439000000000000279,10.389224409578755370
0.440000000000000280,10.293160732888617659
0.441000000000000281,10.195436100788104028
0.442000000000000282,10.096109818646464618
0.443000000000000282,9.995241131478424634
0.444000000000000283,9.892889179454414261
0.445000000000000284,9.789112954926860510
0.446000000000000285,9.683971260962488614
0.447000000000000286,9.577522671369401053
0.448000000000000287,9.469825492205801609
0.449000000000000288,9.360937724756270839
0.450000000000000289,9.250917029959827786
0.451000000000000290,9.139820694273122825
0.452000000000000290,9.027705596950861278
0.453000000000000291,8.914628178724459673
0.454000000000000292,8.800644411859245508
0.455000000000000293,8.685809771569294568
0.456000000000000294,8.570179208768598400
0.457000000000000295,8.453807124136258011
0.458000000000000296,8.336747343472826088
0.459000000000000297,8.219053094324495490
0.460000000000000298,8.100776983850963120
0.461000000000000298,7.981970977912906662
0.462000000000000299,7.862686381353884535
0.463000000000000300,7.742973819451859363
0.464000000000000301,7.622883220514706792
0.465000000000000302,7.502463799594252691
0.466000000000000303,7.381764043292669442
0.467000000000000304,7.260831695635626026
0.468000000000000305,7.139713744985786370
0.469000000000000306,7.018456411970620756
0.470000000000000306,6.897105138398421431
0.471000000000000307,6.775704577136147932
0.472000000000000308,6.654298582923199312
0.473000000000000309,6.532930204094895998
0.474000000000000310,6.411641675189950540
0.475000000000000311,6.290474410415733963
0.476000000000000312,6.169468997946353284
0.477000000000000313,6.048665195027352226
0.478000000000000314,5.928101923862410416
0.479000000000000314,5.807817268256739496
0.480000000000000315,5.687848470992505234
0.481000000000000316,5.568231931911862276
0.482000000000000317,5.449003206683362244
0.483000000000000318,5.330197006227916035
0.484000000000000319,5.211847196780730940
0.485000000000000320,5.093986800566062456
0.486000000000000321,4.976647997061862227
0.487000000000000322,4.859862124831852981
0.488000000000000322,4.743659683902835766
0.489000000000000323,4.628070338665610350
0.490000000000000324,4.513122921277934907
0.491000000000000325,4.398845435548695448
0.492000000000000326,4.285265061282586885
0.493000000000000327,4.172408159065231992
0.494000000000000328,4.060300275468838649
0.495000000000000329,3.948966148659096120
0.496000000000000330,3.838429714384357538
0.497000000000000330,3.728714112328498143
0.498000000000000331,3.619841692809360190
0.499000000000000332,3.511834023805187943
0.500000000000000333,3.404711898291515659
0.501000000000000334,3.298495341871838349
0.502000000000000335,3.193203620685514554
0.503000000000000336,3.088855249576941020
0.504000000000000337,2.985468000510203446
0.505000000000000338,2.883058911214190001
0.506000000000000338,2.781644294043211563
0.507000000000000339,2.681239745038737965
0.508000000000000340,2.581860153178310746
0.509000000000000341,2.483519709797998409
0.510000000000000342,2.386231918175160338
0.511000000000000343,2.290009603258698512
0.512000000000000344,2.194864921534386060
0.513000000000000345,2.100809371013263593
0.514000000000000346,2.007853801331264787
0.515000000000000346,1.916008423948981632
0.516000000000000347,1.825282822440448927
0.517000000000000348,1.735685962860493703
0.518000000000000349,1.647226204180286313
0.519000000000000350,1.559911308781408490
0.520000000000000351,1.473748452998687952
0.521000000000000352,1.388744237702765449
0.522000000000000353,1.304904698913501138
0.523000000000000353,1.222235318435531459
0.524000000000000354,1.140741034508030660
0.525000000000000355,1.060426252460447749
0.526000000000000356,0.981294855366899532
0.527000000000000357,0.903350214691766795
0.528000000000000358,0.826595200919381101
0.529000000000000359,0.751032194161412869
0.530000000000000360,0.676663094735141302
0.531000000000000361,0.603489333706703435
0.532000000000000361,0.531511883393240181
0.533000000000000362,0.460731267818483503
0.534000000000000363,0.391147573116239822
0.535000000000000364,0.322760457876700102
0.536000000000000365,0.255569163430730772
0.537000000000000366,0.189572524067410764
0.538000000000000367,0.124768977180458249
0.539000000000000368,0.061156573339312681
0.540000000000000369,-0.001267013719110421
0.541000000000000369,-0.062504477181719587
0.542000000000000370,-0.122558867337173166
0.543000000000000371,-0.181433581843842451
0.544000000000000372,-0.239132356090889509
0.545000000000000373,-0.295659253655466192
0.546000000000000374,-0.351018656858879008
0.547000000000000375,-0.405215257424210662
0.548000000000000376,-0.458254047237945994
0.549000000000000377,-0.510140309217770760
0.550000000000000377,-0.560879608288783027
0.551000000000000378,-0.610477782469869279
0.552000000000000379,-0.658940934072243190
0.553000000000000380,-0.706275421011632432
0.554000000000000381,-0.752487848235712020
0.555000000000000382,-0.797585059268120844
0.556000000000000383,-0.841574127870267752
0.557000000000000384,-0.884462349822079608
0.558000000000000385,-0.926257234822615239
0.559000000000000385,-0.966966498511455996
0.560000000000000386,-1.006598054611576920
0.561000000000000387,-1.045160007194352536
0.562000000000000388,-1.082660643067190120
0.563000000000000389,-1.119108424284293246
0.564000000000000390,-1.154511980780744684
0.565000000000000391,-1.188880103130269150
0.566000000000000392,-1.222221735426735290
0.567000000000000393,-1.254545968289460633
0.568000000000000393,-1.285862031992275556
0.569000000000000394,-1.316179289716260303
0.570000000000000395,-1.345507230925942377
0.571000000000000396,-1.373855464868629195
0.572000000000000397,-1.401233714196659541
0.573000000000000398,-1.427651808712065318
0.574000000000000399,-1.453119679233173756
0.575000000000000400,-1.477647351582707769
0.576000000000000401,-1.501244940696663033
0.577000000000000401,-1.523922644853440200
0.578000000000000402,-1.545690740022434229
0.579000000000000403,-1.566559574331380267
0.580000000000000404,-1.586539562651656965
0.581000000000000405,-1.605641181300660580
0.582000000000000406,-1.623874962860438753
0.583000000000000407,-1.641251491111543004
0.584000000000000408,-1.657781396081289049
0.585000000000000409,-1.673475349205253426
0.586000000000000409,-1.688344058601089825
0.587000000000000410,-1.702398264453591992
0.588000000000000411,-1.715648734509788609
0.589000000000000412,-1.728106259683143353
0.590000000000000413,-1.739781649765498539
0.591000000000000414,-1.750685729245746503
0.592000000000000415,-1.760829333233965954
0.593000000000000416,-1.770223303489788069
0.594000000000000417,-1.778878484553806816
0.595000000000000417,-1.786805719980754104
0.596000000000000418,-1.794015848673145230
0.597000000000000419,-1.800519701314184484
0.598000000000000420,-1.806328096898537794
0.599000000000000421,-1.811451839359754290
0.600000000000000422,-1.815901714292973423
0.601000000000000423,-1.819688485771563169
0.602000000000000424,-1.822822893256437649
0.603000000000000425,-1.825315648596671725
0.604000000000000425,-1.827177433119992811
0.605000000000000426,-1.828418894811954187
0.606000000000000427,-1.829050645582307011
0.607000000000000428,-1.829083258617258068
0.608000000000000429,-1.828527265816298097
0.609000000000000430,-1.827393155312157402
0.610000000000000431,-1.825691369072639514
0.611000000000000432,-1.823432300582868093
0.612000000000000433,-1.820626292606682295
0.613000000000000433,-1.817283635025803479
0.614000000000000434,-1.813414562755411241
0.615000000000000435,-1.809029253734788512
0.616000000000000436,-1.804137826991739413
0.617000000000000437,-1.798750340779433854
0.618000000000000438,-1.792876790784314167
