# AlFCC100UCD_ASPPSCA-AC
# h[nm],U(h)[kJ/mol]
0.200000000000000011,99.328926755121727865
0.201000000000000012,92.912342176890618362
0.202000000000000013,89.222411862605085275
0.203000000000000014,86.732384966351816047
0.204000000000000015,84.607724458599960826
0.205000000000000016,82.443420413970400773
0.206000000000000016,80.088041371841129035
0.207000000000000017,77.528840389037412706
0.208000000000000018,74.819215250871877743
0.209000000000000019,72.035029039438398968
0.210000000000000020,69.250156841266814922
0.211000000000000021,66.524466226787907885
0.212000000000000022,63.899515529093875443
0.213000000000000023,61.398757506322127142
0.214000000000000024,59.030113262034682009
0.215000000000000024,56.789543436673547205
0.216000000000000025,54.664774553805195012
0.217000000000000026,52.638701033792287376
0.218000000000000027,50.692224876865779493
0.219000000000000028,48.806450353770685524
0.220000000000000029,46.964246029563867069
0.221000000000000030,45.151239960872835866
0.222000000000000031,43.356339623474411837
0.223000000000000032,41.571875836756490230
0.224000000000000032,39.793466565862942730
0.225000000000000033,38.019686792723078383
0.226000000000000034,36.251617899106932441
0.227000000000000035,34.492336327801623952
0.228000000000000036,32.746388016576197799
0.229000000000000037,31.019283011369786607
0.230000000000000038,29.317034155411469953
0.231000000000000039,27.645754959997770328
0.232000000000000040,26.011324667088786100
0.233000000000000040,24.419122991712434612
0.234000000000000041,22.873832907847603479
0.235000000000000042,21.379306916639638558
0.236000000000000043,19.938490309512790333
0.237000000000000044,18.553393820051301333
0.238000000000000045,17.225107573844546494
0.239000000000000046,15.953848242251524425
0.240000000000000047,14.739031653783428055
0.241000000000000048,13.579363706749768781
0.242000000000000048,12.472943170382393419
0.243000000000000049,11.417370788450623920
0.244000000000000050,10.409859954964522544
0.245000000000000051,9.447345075103246614
0.246000000000000052,8.526584526624279903
0.247000000000000053,7.644255877693599821
0.248000000000000054,6.797041683881893448
0.249000000000000055,5.981704773498413452
0.250000000000000056,5.195152434552598564
0.251000000000000056,4.434489339932504492
0.252000000000000057,3.697059393796565452
0.253000000000000058,2.980476957293197948
0.254000000000000059,2.282648122178336791
0.255000000000000060,1.601782853875235002
0.256000000000000061,0.936398928350557491
0.257000000000000062,0.285318647091517996
0.258000000000000063,-0.352340661639354014
0.259000000000000064,-0.977181352780036150
0.260000000000000064,-1.589544412554098951
0.261000000000000065,-2.189531719303152268
0.262000000000000066,-2.777030753175568023
0.263000000000000067,-3.351740961885265158
0.264000000000000068,-3.913201067009981493
0.265000000000000069,-4.460816675765469697
0.266000000000000070,-4.993887644440523133
0.267000000000000071,-5.511634719742958488
0.268000000000000071,-6.013225061629372981
0.269000000000000072,-6.497796324585264571
0.270000000000000073,-6.964479042909874629
0.271000000000000074,-7.412417128741840777
0.272000000000000075,-7.840786348967657027
0.273000000000000076,-8.248810698603495695
0.274000000000000077,-8.635776633715233075
0.275000000000000078,-9.001045166543786280
0.276000000000000079,-9.344061859441133322
0.277000000000000079,-9.664364782777118634
0.278000000000000080,-9.961590525483163816
0.279000000000000081,-10.235478365733175821
0.280000000000000082,-10.485872723818332020
0.281000000000000083,-10.712724029960705607
0.282000000000000084,-10.916088147038315981
0.283000000000000085,-11.096124492363506064
0.284000000000000086,-11.253093004154164802
0.285000000000000087,-11.387350097534625348
0.286000000000000087,-11.499343752146749864
0.287000000000000088,-11.589607869066931300
0.288000000000000089,-11.658756029009341049
0.289000000000000090,-11.707474777023170631
0.290000000000000091,-11.736516551306340972
0.291000000000000092,-11.746692365582891426
0.292000000000000093,-11.738864345918344156
0.293000000000000094,-11.713938214050392261
0.294000000000000095,-11.672855800438233231
0.295000000000000095,-11.616587661410159527
0.296000000000000096,-11.546125866123798431
0.297000000000000097,-11.462477010635007346
0.298000000000000098,-11.366655508272945241
0.299000000000000099,-11.259677197798980686
0.300000000000000100,-11.142553303528828224
0.301000000000000101,-11.016284774754314668
0.302000000000000102,-10.881857025435525799
0.303000000000000103,-10.740235089258078460
0.304000000000000103,-10.592359199769251887
0.305000000000000104,-10.439140800419409061
0.306000000000000105,-10.281458984933665946
0.307000000000000106,-10.120157364510422582
0.308000000000000107,-9.956041354873535809
0.309000000000000108,-9.789875873173166099
0.310000000000000109,-9.622383432115265478
0.311000000000000110,-9.454242616479088923
0.312000000000000111,-9.286086925329557928
0.313000000000000111,-9.118503961723373408
0.314000000000000112,-8.952034950517509415
0.315000000000000113,-8.787174563990520326
0.316000000000000114,-8.624371034356572707
0.317000000000000115,-8.464026531862938185
0.318000000000000116,-8.306497786990572507
0.319000000000000117,-8.152096935301276659
0.320000000000000118,-8.001092563670614055
0.321000000000000119,-7.853710936993111957
0.322000000000000119,-7.710137384924787618
0.323000000000000120,-7.570517828819073536
0.324000000000000121,-7.434960429698509010
0.325000000000000122,-7.303537338869837470
0.326000000000000123,-7.176286533619228969
0.327000000000000124,-7.053213721303710493
0.328000000000000125,-6.934294296072647690
0.329000000000000126,-6.819475333396349370
0.330000000000000127,-6.708677608538972770
0.331000000000000127,-6.601797626080386117
0.332000000000000128,-6.498709648557050578
0.333000000000000129,-6.399267713250476497
0.334000000000000130,-6.303307627094616450
0.335000000000000131,-6.210648930597555406
0.336000000000000132,-6.121096822571447937
0.337000000000000133,-6.034444038335357696
0.338000000000000134,-5.950472674894190739
0.339000000000000135,-5.868955957401811752
0.340000000000000135,-5.789659941983950731
0.341000000000000136,-5.712345150726891418
0.342000000000000137,-5.636768135328791729
0.343000000000000138,-5.562682966561565578
0.344000000000000139,-5.489842647302226375
0.345000000000000140,-5.418000447463693803
0.346000000000000141,-5.346911159685637571
0.347000000000000142,-5.276332275137824546
0.348000000000000143,-5.206025079241462628
0.349000000000000143,-5.135755667529141810
0.350000000000000144,-5.065295882242941694
0.351000000000000145,-4.994424170613484648
0.352000000000000146,-4.922926366072025495
0.353000000000000147,-4.850596393924242911
0.354000000000000148,-4.777236903259930223
0.355000000000000149,-4.702659827088268685
0.356000000000000150,-4.626686872876216938
0.357000000000000151,-4.549149945828381725
0.358000000000000151,-4.469891507382738993
0.359000000000000152,-4.388764871509117427
0.360000000000000153,-4.305634441487980801
0.361000000000000154,-4.220375889917248102
0.362000000000000155,-4.132876284746060946
0.363000000000000156,-4.043034164168421540
0.364000000000000157,-3.950759563227054905
0.365000000000000158,-3.855973994981240160
0.366000000000000159,-3.758610389081627368
0.367000000000000159,-3.658612990572530865
0.368000000000000160,-3.555937221708957541
0.369000000000000161,-3.450549509531784853
0.370000000000000162,-3.342427081892623164
0.371000000000000163,-3.231557734560232653
0.372000000000000164,-3.117939571973116664
0.373000000000000165,-3.001580724131218680
0.374000000000000166,-2.882499042041433146
0.375000000000000167,-2.760721774050385324
0.376000000000000167,-2.636285225312589908
0.377000000000000168,-2.509234402554073373
0.378000000000000169,-2.379622646201494440
0.379000000000000170,-2.247511251855254244
0.380000000000000171,-2.112969082992001368
0.381000000000000172,-1.976072176689274373
0.382000000000000173,-1.836903344071153743
0.383000000000000174,-1.695551767081423522
0.384000000000000175,-1.552112593097972448
0.385000000000000175,-1.406686528811420756
0.386000000000000176,-1.259379434700775402
0.387000000000000177,-1.110301921350860033
0.388000000000000178,-0.959568948769832786
0.389000000000000179,-0.807299429780592326
0.390000000000000180,-0.653615838478014521
0.391000000000000181,-0.498643824663722757
0.392000000000000182,-0.342511835093461225
0.393000000000000183,-0.185350742296650411
0.394000000000000183,-0.027293481656393316
0.395000000000000184,0.131525302631399915
0.396000000000000185,0.290969602167711894
0.397000000000000186,0.450902379040077850
0.398000000000000187,0.611185890164600343
0.399000000000000188,0.771682000910562160
0.400000000000000189,0.932252487692682541
0.401000000000000190,1.092759329269089363
0.402000000000000191,1.253064986531670755
0.403000000000000191,1.413032670623189491
0.404000000000000192,1.572526599258934565
0.405000000000000193,1.731412241172466837
0.406000000000000194,1.889556548643779532
0.407000000000000195,2.046828178104352247
0.408000000000000196,2.203097698847715336
0.409000000000000197,2.358237789905375692
0.410000000000000198,2.512123425177080094
0.411000000000000199,2.664632046931490361
0.412000000000000199,2.815643727817990882
0.413000000000000200,2.965041321552865039
0.414000000000000201,3.112710602464002108
0.415000000000000202,3.258540394096998138
0.416000000000000203,3.402422687102097942
0.417000000000000204,3.544252746637249096
0.418000000000000205,3.683929209535318883
0.419000000000000206,3.821354171495866758
0.420000000000000207,3.956433264572336128
0.421000000000000207,4.089075725233921155
0.422000000000000208,4.219194453289789593
0.423000000000000209,4.346706061968875545
0.424000000000000210,4.471530919454156816
0.425000000000000211,4.593593182173987266
0.426000000000000212,4.712820820156100154
0.427000000000000213,4.829145634751829341
0.428000000000000214,4.942503269038927449
0.429000000000000214,5.052833211211764208
0.430000000000000215,5.160078791266751175
0.431000000000000216,5.264187171289404610
0.432000000000000217,5.365109329647625103
0.433000000000000218,5.462800039392614160
0.434000000000000219,5.557217841165787320
0.435000000000000220,5.648325010906041221
0.436000000000000221,5.736087522647405734
0.437000000000000222,5.820475006692310771
0.438000000000000222,5.901460703440456257
0.439000000000000223,5.979021413147701303
0.440000000000000224,6.053137441883693626
0.441000000000000225,6.123792543950567158
0.442000000000000226,6.190973861018695068
0.443000000000000227,6.254671858229108317
0.444000000000000228,6.314880257505068428
0.445000000000000229,6.371595968308618296
0.446000000000000230,6.424819016070675737
0.447000000000000230,6.474552468516321824
0.448000000000000231,6.520802360099490436
0.449000000000000232,6.563577614754064982
0.450000000000000233,6.602889967161270413
0.451000000000000234,6.638753882725566768
0.452000000000000235,6.671186476444447067
0.453000000000000236,6.700207430849846268
0.454000000000000237,6.725838913191863000
0.455000000000000238,6.748105492028400931
0.456000000000000238,6.767034053376988822
0.457000000000000239,6.782653716578385783
0.458000000000000240,6.794995750014308555
0.459000000000000241,6.804093486815098402
0.460000000000000242,6.809982240686286659
0.461000000000000243,6.812699221976510344
0.462000000000000244,6.812283454102756153
0.463000000000000245,6.808775690442681494
0.464000000000000246,6.802218331797464046
0.465000000000000246,6.792655344522700034
0.466000000000000247,6.780132179418989935
0.467000000000000248,6.764695691468118000
0.468000000000000249,6.746394060495137346
0.469000000000000250,6.725276712831299797
0.470000000000000251,6.701394244047520488
0.471000000000000252,6.674798342822986008
0.472000000000000253,6.645541716008493083
0.473000000000000254,6.613678014939513794
0.474000000000000254,6.579261763049220058
0.475000000000000255,6.542348284827309790
0.476000000000000256,6.502993636166261027
0.477000000000000257,6.461254536132402748
0.478000000000000258,6.417188300195229900
0.479000000000000259,6.370852774944795627
0.480000000000000260,6.322306274322986752
0.481000000000000261,6.271607517391317721
0.482000000000000262,6.218815567654303322
0.483000000000000262,6.163989773954461349
0.484000000000000263,6.107189712951648808
0.485000000000000264,6.048475133196910214
0.486000000000000265,5.987905900807750648
0.487000000000000266,5.925541946749552480
0.488000000000000267,5.861443215725107514
0.489000000000000268,5.795669616671750290
0.490000000000000269,5.728280974863675823
0.491000000000000270,5.659336985614467963
0.492000000000000270,5.588897169573196599
0.493000000000000271,5.517020829605245424
0.494000000000000272,5.443767009247657995
0.495000000000000273,5.369194452726423705
0.496000000000000274,5.293361566522442274
0.497000000000000275,5.216326382470701795
0.498000000000000276,5.138146522376075609
0.499000000000000277,5.058879164128178729
0.500000000000000222,4.978581009295875326
0.501000000000000334,4.897308252181715282
0.502000000000000224,4.815116550314946231
0.503000000000000336,4.732060996361082239
0.504000000000000226,4.648196091425369048
0.505000000000000338,4.563575719726108204
0.506000000000000227,4.478253124614011149
0.507000000000000339,4.392280885912074773
0.508000000000000229,4.305710898551081023
0.509000000000000341,4.218594352474013931
0.510000000000000231,4.130981713783739906
0.511000000000000343,4.042922707106401781
0.512000000000000233,3.954466299144115737
0.513000000000000345,3.865660683388952634
0.514000000000000234,3.776553265971253293
0.515000000000000346,3.687190652613928421
0.516000000000000236,3.597618636665522729
0.517000000000000348,3.507882188183484296
0.518000000000000238,3.418025444040368566
0.519000000000000350,3.328091699024322558
0.520000000000000240,3.238123397906689238
0.521000000000000352,3.148162128448265040
0.522000000000000242,3.058248615317165076
0.523000000000000353,2.968422714890043057
0.524000000000000243,2.878723410910072555
0.525000000000000355,2.789188810973805666
0.526000000000000245,2.699856143820624332
0.527000000000000357,2.610761757397465299
0.528000000000000247,2.521941117673047295
0.529000000000000359,2.433428808174921354
0.530000000000000249,2.345258530223992999
0.531000000000000361,2.257463103840664509
0.532000000000000250,2.170074469297884168
0.533000000000000362,2.083123689295811154
0.534000000000000252,1.996640951734422575
0.535000000000000364,1.910655573059142132
0.536000000000000254,1.825196002156924013
0.537000000000000366,1.740289824778592731
0.538000000000000256,1.655963768465515740
0.539000000000000368,1.572243707957537540
0.540000000000000258,1.489154671060909596
0.541000000000000369,1.406720844954006511
0.542000000000000259,1.324965582910592854
0.543000000000000371,1.243911411419248880
0.544000000000000261,1.163580037679385892
0.545000000000000373,1.083992357453780420
0.546000000000000263,1.005168463258713896
0.547000000000000375,0.927127652872399510
0.548000000000000265,0.849888438144084879
0.549000000000000377,0.773468554085119164
0.550000000000000266,0.697884968225329305
0.551000000000000378,0.623153890217044593
0.552000000000000268,0.549290781670774386
0.553000000000000380,0.476310366206029179
0.554000000000000270,0.404226639702016055
0.555000000000000382,0.333052880732614631
0.556000000000000272,0.262801661171275847
0.557000000000000384,0.193484856951168294
0.558000000000000274,0.125113658966919172
0.559000000000000385,0.057698584104281456
0.560000000000000275,-0.008750513615103605
0.561000000000000387,-0.074224431786778802
0.562000000000000277,-0.138714608286230584
0.563000000000000389,-0.202213109853597833
0.564000000000000279,-0.264712620611304739
0.565000000000000391,-0.326206430526081448
0.566000000000000281,-0.386688423825592764
0.567000000000000393,-0.446153067380369084
0.568000000000000282,-0.504595399060514649
0.569000000000000394,-0.562011016077144765
0.570000000000000284,-0.618396063317212419
0.571000000000000396,-0.673747221681129771
0.572000000000000286,-0.728061696431071659
0.573000000000000398,-0.781337205558539694
0.574000000000000288,-0.833571968178626888
0.575000000000000400,-0.884764692958789900
0.576000000000000290,-0.934914566588880058
0.577000000000000401,-0.984021242299708776
0.578000000000000291,-1.032084828436254709
0.579000000000000403,-1.079105877092085608
0.580000000000000293,-1.125085372810641360
0.581000000000000405,-1.170024721359375741
0.582000000000000295,-1.213925738581693503
0.583000000000000407,-1.256790639332309167
0.584000000000000297,-1.298622026500330984
0.585000000000000409,-1.339422880125183513
0.586000000000000298,-1.379196546609230856
0.587000000000000410,-1.417946728031617365
0.588000000000000300,-1.455677471566801717
0.589000000000000412,-1.492393159011788928
0.590000000000000302,-1.528098496425103869
0.591000000000000414,-1.562798503881020595
0.592000000000000304,-1.596498505341780172
0.593000000000000416,-1.629204118650728006
0.594000000000000306,-1.660921245648841138
0.595000000000000417,-1.691656062417175921
0.596000000000000307,-1.721415009647218053
0.597000000000000419,-1.750204783141384279
0.598000000000000309,-1.778032324445386392
0.599000000000000421,-1.804904811614137738
0.600000000000000311,-1.830829650112781648
0.601000000000000423,-1.855814463854191132
0.602000000000000313,-1.879867086374002128
0.603000000000000425,-1.902995552144543412
0.604000000000000314,-1.925208088028198095
0.605000000000000426,-1.946513104871343547
0.606000000000000316,-1.966919189239229038
0.607000000000000428,-1.986435095292506503
0.608000000000000318,-2.005069736805739744
0.609000000000000430,-2.022832179328190261
0.610000000000000320,-2.039731632487018054
0.611000000000000432,-2.055777442433060820
0.612000000000000322,-2.070979084429035222
0.613000000000000433,-2.085346155580104721
0.614000000000000323,-2.098888367706572833
0.615000000000000435,-2.111615540358363852
0.616000000000000325,-2.123537593970835857
0.617000000000000437,-2.134664543161575168
0.618000000000000327,-2.145006490167430169
0.619000000000000439,-2.154573618421260939
0.620000000000000329,-2.163376186267647050
0.621000000000000441,-2.171424520816734205
0.622000000000000330,-2.178729011935435889
0.623000000000000442,-2.185300106375040574
0.624000000000000332,-2.191148302034197748
0.625000000000000444,-2.196284142356398128
0.626000000000000334,-2.200718210860707291
0.627000000000000446,-2.204461125804733079
0.628000000000000336,-2.207523534978614421
0.629000000000000448,-2.209916110628820540
0.630000000000000338,-2.211649544510453147
0.631000000000000449,-2.212734543066847692
0.632000000000000339,-2.213181822735061921
0.633000000000000451,-2.213002105375883932
0.634000000000000341,-2.212206113826991949
0.635000000000000453,-2.210804567577862478
0.636000000000000343,-2.208808178564861446
0.637000000000000455,-2.206227647085185595
0.638000000000000345,-2.203073657828010568
0.639000000000000457,-2.199356876021419716
0.640000000000000346,-2.195087943693536214
0.641000000000000458,-2.190277476046284200
0.642000000000000348,-2.184936057940241039
0.643000000000000460,-2.179074240488944714
0.644000000000000350,-2.172702537761123320
0.645000000000000462,-2.165831423589141824
0.646000000000000352,-2.158471328482156171
0.647000000000000464,-2.150632636642261009
0.648000000000000353,-2.142325683082067833
0.649000000000000465,-2.133560750841988707
0.650000000000000355,-2.124348068305722759
0.651000000000000467,-2.114697806612133579
0.652000000000000357,-2.104620077162081770
0.653000000000000469,-2.094124929218307507
0.654000000000000359,-2.083222347597041946
0.655000000000000471,-2.071922250449420577
0.656000000000000361,-2.060234487131254344
0.657000000000000473,-2.048168836159431017
0.658000000000000362,-2.035735003253390296
0.659000000000000474,-2.022942619460012192
0.660000000000000364,-2.009801239360329284
0.661000000000000476,-1.996320339356446372
0.662000000000000366,-1.982509316037128544
0.663000000000000478,-1.968377484620364104
0.664000000000000368,-1.953934077471480180
0.665000000000000480,-1.939188242695119468
0.666000000000000369,-1.924149042799599085
