# AlFCC100UCD_CS-218-AC
# h[nm],U(h)[kJ/mol]
0.149999999999999994,109.772977004758672592
0.150999999999999995,109.997886304490592124
0.151999999999999996,107.319533866345324213
0.152999999999999997,104.054563459377078516
0.153999999999999998,101.075144330778655899
0.154999999999999999,98.560848415084109320
0.156000000000000000,96.410789692875340506
0.157000000000000001,94.453346095032742369
0.158000000000000002,92.539951557054195064
0.159000000000000002,90.576170046765099642
0.160000000000000003,88.521802447123363322
0.161000000000000004,86.378188391722659389
0.162000000000000005,84.172459842950033249
0.163000000000000006,81.943462379971506948
0.164000000000000007,79.731164681328465349
0.165000000000000008,77.569818508977363081
0.166000000000000009,75.484382269421942624
0.167000000000000010,73.489441202983726953
0.168000000000000010,71.589832588267000801
0.169000000000000011,69.782284182265783556
0.170000000000000012,68.057521442698217129
0.171000000000000013,66.402451171762038484
0.172000000000000014,64.802164617281292180
0.173000000000000015,63.241613039800085971
0.174000000000000016,61.706891814936511764
0.175000000000000017,60.186127584457928208
0.176000000000000018,58.670000764589154585
0.177000000000000018,57.151957273305882268
0.178000000000000019,55.628172825252192979
0.179000000000000020,54.097334184483315767
0.180000000000000021,52.560297314761633913
0.181000000000000022,51.019674715593808401
0.182000000000000023,49.479395075006458171
0.183000000000000024,47.944268899941128836
0.184000000000000025,46.419584790312129030
0.185000000000000026,44.910752979011512309
0.186000000000000026,43.423005911383299349
0.187000000000000027,41.961160062980532359
0.188000000000000028,40.529438861562987029
0.189000000000000029,39.131353386281716666
0.190000000000000030,37.769635322957682888
0.191000000000000031,36.446215301866843106
0.192000000000000032,35.162239074885661694
0.193000000000000033,33.918113852455846313
0.194000000000000034,32.713577382644999147
0.195000000000000034,31.547782897487724796
0.196000000000000035,30.419393777468076934
0.197000000000000036,29.326682613453858295
0.198000000000000037,28.267630213629626468
0.199000000000000038,27.240020963180132441
0.200000000000000039,26.241531761941047307
0.201000000000000040,25.269812516262575741
0.202000000000000041,24.322556831234425800
0.203000000000000042,23.397562130672056924
0.204000000000000042,22.492778922864140156
0.205000000000000043,21.606349332152898768
0.206000000000000044,20.736635335005487946
0.207000000000000045,19.882237381337471760
0.208000000000000046,19.042004255625606390
0.209000000000000047,18.215035146506064478
0.210000000000000048,17.400674956879221611
0.211000000000000049,16.598503907552849768
0.212000000000000050,15.808322474156776494
0.213000000000000050,15.030132656799244373
0.214000000000000051,14.264116521283821015
0.215000000000000052,13.510612875449647063
0.216000000000000053,12.770092859314342348
0.217000000000000054,12.043135137390189371
0.218000000000000055,11.330401289285912725
0.219000000000000056,10.632611903302963796
0.220000000000000057,9.950523789385842477
0.221000000000000058,9.284908644165209779
0.222000000000000058,8.636533423136668830
0.223000000000000059,8.006142604064901747
0.224000000000000060,7.394442461961533652
0.225000000000000061,6.802087419661003942
0.226000000000000062,6.229668489091034544
0.227000000000000063,5.677703776608730379
0.228000000000000064,5.146630990924383475
0.229000000000000065,4.636801863735072970
0.230000000000000066,4.148478370752181732
0.231000000000000066,3.681830623793078239
0.232000000000000067,3.236936292467942344
0.233000000000000068,2.813781406167021881
0.234000000000000069,2.412262382996644305
0.235000000000000070,2.032189131494337442
0.236000000000000071,1.673289072876301686
0.237000000000000072,1.335211935765563407
0.238000000000000073,1.017535181388525167
0.239000000000000073,0.719769924719595777
0.240000000000000074,0.441367225644692218
0.241000000000000075,0.181724633595583218
0.242000000000000076,-0.059807120998929555
0.243000000000000077,-0.283917384928431604
0.244000000000000078,-0.491328876323179009
0.245000000000000079,-0.682791090778273935
0.246000000000000080,-0.859073885670421200
0.247000000000000081,-1.020961299308784209
0.248000000000000081,-1.169245652458328788
0.249000000000000082,-1.304721971186442397
0.250000000000000111,-1.428182761962007774
0.251000000000000112,-1.540413162513581291
0.252000000000000113,-1.642186485150207931
0.253000000000000114,-1.734260163070112437
0.254000000000000115,-1.817372104628406815
0.255000000000000115,-1.892237455590245032
0.256000000000000116,-1.959545765044879762
0.257000000000000117,-2.019958546872425043
0.258000000000000118,-2.074107225411304434
0.259000000000000119,-2.122591451239075333
0.260000000000000120,-2.165977770718325424
0.261000000000000121,-2.204798631137466547
0.262000000000000122,-2.239551701858605526
0.263000000000000123,-2.270699490834410472
0.264000000000000123,-2.298669235139047640
0.265000000000000124,-2.323853043738983271
0.266000000000000125,-2.346608270576197697
0.267000000000000126,-2.367258096115743449
0.268000000000000127,-2.386092295793099893
0.269000000000000128,-2.403368174254737255
0.270000000000000129,-2.419311644892453650
0.271000000000000130,-2.434118434902978745
0.272000000000000131,-2.447955396937170569
0.273000000000000131,-2.460961909316613294
0.274000000000000132,-2.473251347771314279
0.275000000000000133,-2.484912612673368493
0.276000000000000134,-2.496011696792462153
0.277000000000000135,-2.506593279667070018
0.278000000000000136,-2.516682335757636224
0.279000000000000137,-2.526285744614938267
0.280000000000000138,-2.535393892349111944
0.281000000000000139,-2.543982254714638902
0.282000000000000139,-2.552012953127753114
0.283000000000000140,-2.559436275899600322
0.284000000000000141,-2.566192157896710846
0.285000000000000142,-2.572211612726690966
0.286000000000000143,-2.577418112388548455
0.287000000000000144,-2.581728910121884546
0.288000000000000145,-2.585056302936572958
0.289000000000000146,-2.587308831002677501
0.290000000000000147,-2.588392411730620957
0.291000000000000147,-2.588211406972642514
0.292000000000000148,-2.586669622330611595
0.293000000000000149,-2.583671238061816755
0.294000000000000150,-2.579121671535816951
0.295000000000000151,-2.572928371612778431
0.296000000000000152,-2.565001545688368356
0.297000000000000153,-2.555254820484908151
0.298000000000000154,-2.543605837963710758
0.299000000000000155,-2.529976787992791909
0.300000000000000155,-2.514294879628330648
0.301000000000000156,-2.496492753059926795
0.302000000000000157,-2.476508834431156547
0.303000000000000158,-2.454287635879672358
0.304000000000000159,-2.429780003247806075
0.305000000000000160,-2.402943313996517283
0.306000000000000161,-2.373741627915688213
0.307000000000000162,-2.342145793262845999
0.308000000000000163,-2.308133510982990799
0.309000000000000163,-2.271689359666095864
0.310000000000000164,-2.232804783887194056
0.311000000000000165,-2.191478048548749946
0.312000000000000166,-2.147714161807868560
0.313000000000000167,-2.101524769122747216
0.314000000000000168,-2.052928020895416150
0.315000000000000169,-2.001948416122367291
0.316000000000000170,-1.948616624392244479
0.317000000000000171,-1.892969288491525459
0.318000000000000171,-1.835048809795962299
0.319000000000000172,-1.774903118538677660
0.320000000000000173,-1.712585430955796628
0.321000000000000174,-1.648153995218095691
0.322000000000000175,-1.581671827963581745
0.323000000000000176,-1.513206443151117409
0.324000000000000177,-1.442829574860269304
0.325000000000000178,-1.370616895567880134
0.326000000000000179,-1.296647731337945197
0.327000000000000179,-1.221004775268414777
0.328000000000000180,-1.143773800447113853
0.329000000000000181,-1.065043373579938057
0.330000000000000182,-0.984904570366274434
0.331000000000000183,-0.903450693612430578
0.332000000000000184,-0.820776994990697339
0.333000000000000185,-0.736980401272254171
0.334000000000000186,-0.652159245785183028
0.335000000000000187,-0.566413005774824119
0.336000000000000187,-0.479842046273014300
0.337000000000000188,-0.392547371014814961
0.338000000000000189,-0.304630380876934115
0.339000000000000190,-0.216192640250500945
0.340000000000000191,-0.127335651702511515
0.341000000000000192,-0.038160639225514298
0.342000000000000193,0.051231659677453432
0.343000000000000194,0.140741192873917953
0.344000000000000195,0.230268783296766422
0.345000000000000195,0.319716309342942095
0.346000000000000196,0.408986875906570346
0.347000000000000197,0.497984976014154868
0.348000000000000198,0.586616643063889498
0.349000000000000199,0.674789593703210677
0.350000000000000200,0.762413361407743961
0.351000000000000201,0.849399420851962517
0.352000000000000202,0.935661303186138937
0.353000000000000203,1.021114702356521686
0.354000000000000203,1.105677572625870742
0.355000000000000204,1.189270217469354352
0.356000000000000205,1.271815370037014503
0.357000000000000206,1.353238265388273742
0.358000000000000207,1.433466704716379825
0.359000000000000208,1.512431111791568750
0.360000000000000209,1.590064581860918258
0.361000000000000210,1.666302923250796209
0.362000000000000210,1.741084691924068339
0.363000000000000211,1.814351219249468627
0.364000000000000212,1.886046633244375714
0.365000000000000213,1.956117873555120124
0.366000000000000214,2.024514700440576576
0.367000000000000215,2.091189698025721189
0.368000000000000216,2.156098272091559132
0.369000000000000217,2.219198642667080001
0.370000000000000218,2.280451831687030140
0.371000000000000218,2.339821645977085751
0.372000000000000219,2.397274655824861433
0.373000000000000220,2.452780169391741261
0.374000000000000221,2.506310203216322918
0.375000000000000222,2.557839449055873349
0.376000000000000223,2.607345237307064689
0.377000000000000224,2.654807497242157144
0.378000000000000225,2.700208714290945000
0.379000000000000226,2.743533884593099437
0.380000000000000226,2.784770467039247244
0.381000000000000227,2.823908333012870919
0.382000000000000228,2.860939714038640780
0.383000000000000229,2.895859147536025358
0.384000000000000230,2.928663420870567080
0.385000000000000231,2.959351513888075491
0.386000000000000232,2.987924540110429739
0.387000000000000233,3.014385686764677885
0.388000000000000234,3.038740153810254974
0.389000000000000234,3.060995092122299699
0.390000000000000235,3.081159540982335354
0.391000000000000236,3.099244365020583647
0.392000000000000237,3.115262190747813076
0.393000000000000238,3.129227342807719303
0.394000000000000239,3.141155780074518677
0.395000000000000240,3.151065031713973674
0.396000000000000241,3.158974133319780719
0.397000000000000242,3.164903563231081129
0.398000000000000242,3.168875179130887343
0.399000000000000243,3.170912155019254275
0.400000000000000244,3.171038918649447425
0.401000000000000245,3.169281089509464522
0.402000000000000246,3.165665417426272832
0.403000000000000247,3.160219721864437226
0.404000000000000248,3.152972831986011748
0.405000000000000249,3.143954527533416421
0.406000000000000250,3.133195480592390503
0.407000000000000250,3.120727198287384319
0.408000000000000251,3.106581966457398369
0.409000000000000252,3.090792794355875284
0.410000000000000253,3.073393360414296005
0.411000000000000254,3.054417959104967384
0.412000000000000255,3.033901448934924083
0.413000000000000256,3.011879201598981037
0.414000000000000257,2.988387052316746839
0.415000000000000258,2.963461251374853056
0.416000000000000258,2.937138416892701720
0.417000000000000259,2.909455488826801162
0.418000000000000260,2.880449684226070506
0.419000000000000261,2.850158453747653642
0.420000000000000262,2.818619439440229080
0.421000000000000263,2.785870433799301882
0.422000000000000264,2.751949340096811802
0.423000000000000265,2.716894133984943061
0.424000000000000266,2.680742826372167542
0.425000000000000266,2.643533427567535732
0.426000000000000267,2.605303912687426671
0.427000000000000268,2.566092188317196765
0.428000000000000269,2.525936060418674245
0.429000000000000270,2.484873203472939718
0.430000000000000271,2.442941130846304709
0.431000000000000272,2.400177166366347592
0.432000000000000273,2.356618417093507389
0.433000000000000274,2.312301747272713204
0.434000000000000274,2.267263753448430563
0.435000000000000275,2.221540740725787888
0.436000000000000276,2.175168700159356927
0.437000000000000277,2.128183287250547728
0.438000000000000278,2.080619801533896585
0.439000000000000279,2.032513167231835727
0.440000000000000280,1.983897914957009734
0.441000000000000281,1.934808164440829259
0.442000000000000282,1.885277608266283877
0.443000000000000282,1.835339496583022978
0.444000000000000283,1.785026622782037276
0.445000000000000284,1.734371310107339026
0.446000000000000285,1.683405399181628015
0.447000000000000286,1.632160236422870891
0.448000000000000287,1.580666663328599286
0.449000000000000288,1.528955006604658662
0.450000000000000289,1.477055069115091657
0.451000000000000290,1.424996121629911183
0.452000000000000290,1.372806895347492784
0.453000000000000291,1.320515575168457856
0.454000000000000292,1.268149793697993744
0.455000000000000293,1.215736625953683703
0.456000000000000294,1.163302584756148006
0.457000000000000295,1.110873616779939121
0.458000000000000296,1.058475099242321082
0.459000000000000297,1.006131837207918434
0.460000000000000298,0.953868061487279206
0.461000000000000298,0.901707427107949266
0.462000000000000299,0.849673012336612965
0.463000000000000300,0.797787318231466758
0.464000000000000301,0.746072268704098596
0.465000000000000302,0.694549211070653927
0.466000000000000303,0.643238917072172400
0.467000000000000304,0.592161584344645386
0.468000000000000305,0.541336838319436908
0.469000000000000306,0.490783734535212957
0.470000000000000306,0.440520761342906020
0.471000000000000307,0.390565842985555023
0.472000000000000308,0.340936343035314393
0.473000000000000309,0.291649068170263093
0.474000000000000310,0.242720272274161930
0.475000000000000311,0.194165660842407550
0.476000000000000312,0.146000395678350103
0.477000000000000313,0.098239099863866627
0.478000000000000314,0.050895862989150963
0.479000000000000314,0.003984246626570513
0.480000000000000315,-0.042482709965853897
0.481000000000000316,-0.088492483925556545
0.482000000000000317,-0.134033062664836888
0.483000000000000318,-0.179092937561968590
0.484000000000000319,-0.223661097476969106
0.485000000000000320,-0.267727022104605139
0.486000000000000321,-0.311280675176876798
0.487000000000000322,-0.354312497526760306
0.488000000000000322,-0.396813400024710605
0.489000000000000323,-0.438774756398936039
0.490000000000000324,-0.480188395950258529
0.491000000000000325,-0.521046596171823806
0.492000000000000326,-0.561342075283725039
0.493000000000000327,-0.601067984692164492
0.494000000000000328,-0.640217901382465149
0.495000000000000329,-0.678785820254937611
0.496000000000000330,-0.716766146412166516
0.497000000000000330,-0.754153687406155848
0.498000000000000331,-0.790943645453199395
0.499000000000000332,-0.827131609624222386
0.500000000000000333,-0.862713548018009035
0.501000000000000334,-0.897685799924316852
0.502000000000000335,-0.932045067983718112
0.503000000000000336,-0.965788410350622684
0.504000000000000337,-0.998913232865766942
0.505000000000000338,-1.031417281244020767
0.506000000000000338,-1.063298633283258132
0.507000000000000339,-1.094555691099705630
0.508000000000000340,-1.125187173394867290
0.509000000000000341,-1.155192107759020370
0.510000000000000342,-1.184569823015885426
0.511000000000000343,-1.213319941612966968
0.512000000000000344,-1.241442372061725585
0.513000000000000345,-1.268937301431579456
0.514000000000000346,-1.295805187901564626
0.515000000000000346,-1.322046753373106620
0.516000000000000347,-1.347662976147352420
0.517000000000000348,-1.372655083670200726
0.518000000000000349,-1.397024545347974600
0.519000000000000350,-1.420773065436543803
0.520000000000000351,-1.443902576006497185
0.521000000000000352,-1.466415229986810065
0.522000000000000353,-1.488313394289202396
0.523000000000000353,-1.509599643015398396
0.524000000000000354,-1.530276750749123060
0.525000000000000355,-1.550347685934692299
0.526000000000000356,-1.569815604343792970
0.527000000000000357,-1.588683842631987364
0.528000000000000358,-1.606955911986324592
0.529000000000000359,-1.624635491865202841
0.530000000000000360,-1.641726423831689541
0.531000000000000361,-1.658232705481230251
0.532000000000000361,-1.674158484464627339
0.533000000000000362,-1.689508052607018529
0.534000000000000363,-1.704285840123535012
0.535000000000000364,-1.718496409932160685
0.536000000000000365,-1.732144452064219298
0.537000000000000366,-1.745234778172872980
0.538000000000000367,-1.757772316139816882
0.539000000000000368,-1.769762104780429723
0.540000000000000369,-1.781209288647356503
0.541000000000000369,-1.792119112932618608
0.542000000000000370,-1.802496918468076803
0.543000000000000371,-1.812348136824194045
0.544000000000000372,-1.821678285506801886
0.545000000000000373,-1.830492963251616700
0.546000000000000374,-1.838797845416159760
0.547000000000000375,-1.846598679468632653
0.548000000000000376,-1.853901280573342136
0.549000000000000377,-1.860711527272073784
0.550000000000000377,-1.867035357260923067
0.551000000000000378,-1.872878763261868640
0.552000000000000379,-1.878247788988519629
0.553000000000000380,-1.883148525205233126
0.554000000000000381,-1.887587105878889115
0.555000000000000382,-1.891569704422574549
0.556000000000000383,-1.895102530030225108
0.557000000000000384,-1.898191824101517211
0.558000000000000385,-1.900843856755979999
0.559000000000000385,-1.903064923435497935
0.560000000000000386,-1.904861341594201507
0.561000000000000387,-1.906239447474793680
0.562000000000000388,-1.907205592970290464
0.563000000000000389,-1.907766142570199053
0.564000000000000390,-1.907927470390018865
0.565000000000000391,-1.907695957283078503
0.566000000000000392,-1.907077988033590632
0.567000000000000393,-1.906079948629848531
0.568000000000000393,-1.904708223616440765
0.569000000000000394,-1.902969193524388203
0.570000000000000395,-1.900869232378090246
0.571000000000000396,-1.898414705277865711
0.572000000000000397,-1.895611966057055842
0.573000000000000398,-1.892467355012453556
0.574000000000000399,-1.888987196706921612
0.575000000000000400,-1.885177797843059277
0.576000000000000401,-1.881045445206718680
0.577000000000000401,-1.876596403679252845
0.578000000000000402,-1.871836914317257294
0.579000000000000403,-1.866773192498692779
0.580000000000000404,-1.861411426134216729
0.581000000000000405,-1.855757773942501299
0.582000000000000406,-1.849818363788465092
0.583000000000000407,-1.843599291083133807
0.584000000000000408,-1.837106617244125717
0.585000000000000409,-1.830346368215450159
0.586000000000000409,-1.823324533045578288
0.587000000000000410,-1.816047062522621713
0.588000000000000411,-1.808519867865419739
0.589000000000000412,-1.800748819469523809
0.590000000000000413,-1.792739745706821042
0.591000000000000414,-1.784498431777784333
0.592000000000000415,-1.776030618615223933
0.593000000000000416,-1.767342001838382970
0.594000000000000417,-1.758438230756360410
0.595000000000000417,-1.749324907419777642
0.596000000000000418,-1.740007585719541172
0.597000000000000419,-1.730491770531778384
0.598000000000000420,-1.720782916907753091
0.599000000000000421,-1.710886429307854062
0.600000000000000422,-1.700807660878537630
0.601000000000000423,-1.690551912771260046
0.602000000000000424,-1.680124433502388381
0.603000000000000425,-1.669530418353113443
0.604000000000000425,-1.658775008808338614
0.605000000000000426,-1.647863292033646676
0.606000000000000427,-1.636800300389368301
0.607000000000000428,-1.625591010980756534
0.608000000000000429,-1.614240345243465713
0.609000000000000430,-1.602753168563264552
0.610000000000000431,-1.591134289929246215
0.611000000000000432,-1.579388461619498862
0.612000000000000433,-1.567520378918466406
0.613000000000000433,-1.555534679865097969
0.614000000000000434,-1.543435945030947165
0.615000000000000435,-1.531228697327350563
0.616000000000000436,-1.518917401840928383
