# AlFCC100UCD_CS-1143-AC
# h[nm],U(h)[kJ/mol]
0.200000000000000011,83.346120540255327569
0.201000000000000012,78.764864782059632375
0.202000000000000013,75.911226915646579982
0.203000000000000014,73.786247449198256732
0.204000000000000015,71.860012570290777489
0.205000000000000016,69.888357618553271777
0.206000000000000016,67.791564370219731472
0.207000000000000017,65.576331753735843222
0.208000000000000018,63.287472407893531567
0.209000000000000019,60.979626684063077846
0.210000000000000020,58.702117060802677884
0.211000000000000021,56.492138921207640578
0.212000000000000022,54.372988668764989484
0.213000000000000023,52.355112131780138895
0.214000000000000024,50.438524996872594386
0.215000000000000024,48.615695583728140150
0.216000000000000025,46.874350992629430834
0.217000000000000026,45.199917165226239035
0.218000000000000027,43.577466376407819837
0.219000000000000028,41.993147732763887348
0.220000000000000029,40.435136159604418538
0.221000000000000030,38.894166742590208230
0.222000000000000031,37.363733940828396385
0.223000000000000032,35.840036044552270766
0.224000000000000032,34.321739150250138550
0.225000000000000033,32.809625172217224076
0.226000000000000034,31.306177194315790047
0.227000000000000035,29.815144187954309984
0.228000000000000036,28.341116621989424829
0.229000000000000037,26.889135221716408353
0.230000000000000038,25.464347291918471683
0.231000000000000039,24.071718628837199816
0.232000000000000040,22.715804029465470393
0.233000000000000040,21.400575626359238157
0.234000000000000041,20.129305566801342309
0.235000000000000042,18.904497743756600414
0.236000000000000043,17.727862205362534098
0.237000000000000044,16.600325365825206347
0.238000000000000045,15.522069077129154735
0.239000000000000046,14.492591880594702047
0.240000000000000047,13.510786241708501620
0.241000000000000048,12.575026200452544600
0.242000000000000048,11.683260578489901960
0.243000000000000049,10.833107624306521188
0.244000000000000050,10.021947710374210061
0.245000000000000051,9.247011395554782354
0.246000000000000052,8.505460812827244865
0.247000000000000053,7.794462925370988948
0.248000000000000054,7.111253706898660987
0.249000000000000055,6.453192742897724266
0.250000000000000056,5.817808119221696828
0.251000000000000056,5.202831766630876764
0.252000000000000057,4.606225669299699454
0.253000000000000058,4.026199527826523017
0.254000000000000059,3.461220599241792151
0.255000000000000060,2.910016524419691830
0.256000000000000061,2.371572003558913622
0.257000000000000062,1.845120199134372196
0.258000000000000063,1.330129738642714443
0.259000000000000064,0.826288161792050224
0.260000000000000064,0.333482613204444167
0.261000000000000065,-0.148221473654314734
0.262000000000000066,-0.618603019141546029
0.263000000000000067,-1.077308653175819586
0.264000000000000068,-1.523876241712625257
0.265000000000000069,-1.957758113231347963
0.266000000000000070,-2.378343584819158973
0.267000000000000071,-2.784980455111089270
0.268000000000000071,-3.176995195356450363
0.269000000000000072,-3.553711629492263935
0.270000000000000073,-3.914467948811020115
0.271000000000000074,-4.258631956315970690
0.272000000000000075,-4.585614480033269658
0.273000000000000076,-4.894880933402066425
0.274000000000000077,-5.185961034511446854
0.275000000000000078,-5.458456724597136045
0.276000000000000079,-5.712048350120239704
0.277000000000000079,-5.946499192237999054
0.278000000000000080,-6.161658442885903142
0.279000000000000081,-6.357462738385323497
0.280000000000000082,-6.533936369838987623
0.281000000000000083,-6.691190294946527395
0.282000000000000084,-6.829420078623707369
0.283000000000000085,-6.948902890287508960
0.284000000000000086,-7.049993684202787492
0.285000000000000087,-7.133120686183309189
0.286000000000000087,-7.198780305484957509
0.287000000000000088,-7.247531585183830671
0.288000000000000089,-7.279990297934231691
0.289000000000000090,-7.296822786965445395
0.290000000000000091,-7.298739644690515505
0.291000000000000092,-7.286489313534855405
0.292000000000000093,-7.260851685690868251
0.293000000000000094,-7.222631770595192791
0.294000000000000095,-7.172653491112893853
0.295000000000000095,-7.111753661788138281
0.296000000000000096,-7.040776195157489425
0.297000000000000097,-6.960566575078283691
0.298000000000000098,-6.871966629347125988
0.299000000000000099,-6.775809627607283225
0.300000000000000100,-6.672915724691885764
0.301000000000000101,-6.564087764138295533
0.302000000000000102,-6.450107451645484602
0.303000000000000103,-6.331731903730582367
0.304000000000000103,-6.209690572768723271
0.305000000000000104,-6.084682545962320610
0.306000000000000105,-5.957374212568049110
0.307000000000000106,-5.828397290895299676
0.308000000000000107,-5.698347204160413959
0.309000000000000108,-5.567781792214740122
0.310000000000000109,-5.437220344439461783
0.311000000000000110,-5.307142937693799745
0.312000000000000111,-5.177990062090636947
0.313000000000000111,-5.050162516532742174
0.314000000000000112,-4.924021555349023416
0.315000000000000113,-4.799889267000756021
0.316000000000000114,-4.678049165660841169
0.317000000000000115,-4.558746976482074942
0.318000000000000116,-4.442191595543307336
0.319000000000000117,-4.328556205775596410
0.320000000000000118,-4.217979530604685223
0.321000000000000119,-4.110567207584712612
0.322000000000000119,-4.006393264924560604
0.323000000000000120,-3.905501684507049820
0.324000000000000121,-3.807908035759139498
0.325000000000000122,-3.713601165535145299
0.326000000000000123,-3.622544930013153142
0.327000000000000124,-3.534679955466718759
0.328000000000000125,-3.449925415650787475
0.329000000000000126,-3.368180814422610858
0.330000000000000127,-3.289327763099105795
0.331000000000000127,-3.213231742924737233
0.332000000000000128,-3.139743843881782404
0.333000000000000129,-3.068702471914259711
0.334000000000000130,-2.999935017452367347
0.335000000000000131,-2.933259478913364582
0.336000000000000132,-2.868486035613537766
0.337000000000000133,-2.805418565252765895
0.338000000000000134,-2.743856101825527638
0.339000000000000135,-2.683594230469562802
0.340000000000000135,-2.624426416383498939
0.341000000000000136,-2.566145265528549491
0.342000000000000137,-2.508543715375386896
0.343000000000000138,-2.451416154466175890
0.344000000000000139,-2.394559470033675641
0.345000000000000140,-2.337774023355107200
0.346000000000000141,-2.280864552918083543
0.347000000000000142,-2.223641005841359153
0.348000000000000143,-2.165919298324777920
0.349000000000000143,-2.107522006201656417
0.350000000000000144,-2.048278986935025081
0.351000000000000145,-1.988027934637032867
0.352000000000000146,-1.926614869900491245
0.353000000000000147,-1.863894566414056042
0.354000000000000148,-1.799730916489766575
0.355000000000000149,-1.733997237764342447
0.356000000000000150,-1.666576523446355651
0.357000000000000151,-1.597361638570413245
0.358000000000000151,-1.526255464789181726
0.359000000000000152,-1.453170996285345629
0.360000000000000153,-1.378031389420079078
0.361000000000000154,-1.300769968753546557
0.362000000000000155,-1.221330192077541898
0.363000000000000156,-1.139665577092246140
0.364000000000000157,-1.055739592338862831
0.365000000000000158,-0.969525514969494795
0.366000000000000159,-0.881006257895271760
0.367000000000000159,-0.790174168805138910
0.368000000000000160,-0.697030803491901496
0.369000000000000161,-0.601586675859133169
0.370000000000000162,-0.503860986914502540
0.371000000000000163,-0.403881334982131357
0.372000000000000164,-0.301683409288943771
0.373000000000000165,-0.197310669000143435
0.374000000000000166,-0.090814009695146150
0.375000000000000167,0.017748580809447391
0.376000000000000167,0.128312375470175516
0.377000000000000168,0.240806268128352208
0.378000000000000169,0.355153139079072588
0.379000000000000170,0.471270224541804617
0.380000000000000171,0.589069488564862964
0.381000000000000172,0.708457995982779476
0.382000000000000173,0.829338285132108388
0.383000000000000174,0.951608739115571312
0.384000000000000175,1.075163954488003837
0.385000000000000175,1.199895106318636717
0.386000000000000176,1.325690308663947770
0.387000000000000177,1.452434969562356626
0.388000000000000178,1.580012139737055232
0.389000000000000179,1.708302854265862702
0.390000000000000180,1.837186466546794517
0.391000000000000181,1.966540973955822169
0.392000000000000182,2.096243334657446056
0.393000000000000183,2.226169775091522141
0.394000000000000183,2.356196087718409604
0.395000000000000184,2.486197918661455564
0.396000000000000185,2.616051044939748493
0.397000000000000186,2.745631641034827375
0.398000000000000187,2.874816534583780392
0.399000000000000188,3.003483451036861762
0.400000000000000189,3.131511247160514433
0.401000000000000190,3.258780133307820570
0.402000000000000191,3.385171884415592025
0.403000000000000191,3.510570039723567959
0.404000000000000192,3.634860091243701241
0.405000000000000193,3.757929661038559743
0.406000000000000194,3.879668667396209969
0.407000000000000195,3.999969480015201473
0.408000000000000196,4.118727064337468491
0.409000000000000197,4.235839115189035553
0.410000000000000198,4.351206179908437832
0.411000000000000199,4.464731771161128293
0.412000000000000199,4.576322469654570568
0.413000000000000200,4.685888016983216886
0.414000000000000201,4.793341398845849533
0.415000000000000202,4.898598918889255138
0.416000000000000203,5.001580263441832486
0.417000000000000204,5.102208557409921852
0.418000000000000205,5.200410411616287476
0.419000000000000206,5.296115961866530775
0.420000000000000207,5.389258900034059607
0.421000000000000207,5.479776497457480744
0.422000000000000208,5.567609620947568949
0.423000000000000209,5.652702741701991940
0.424000000000000210,5.735003937427190834
0.425000000000000211,5.814464887966417805
0.426000000000000212,5.891040864732153715
0.427000000000000213,5.964690714239536007
0.428000000000000214,6.035376836034941128
0.429000000000000214,6.103065155311219847
0.430000000000000215,6.167725090497366836
0.431000000000000216,6.229329516106399289
0.432000000000000217,6.287854721120988089
0.433000000000000218,6.343280363191128757
0.434000000000000219,6.395589418913115942
0.435000000000000220,6.444768130453340405
0.436000000000000221,6.490805948774531764
0.437000000000000222,6.533695473715845026
0.438000000000000222,6.573432391171825095
0.439000000000000223,6.610015407608520022
0.440000000000000224,6.643446182148467827
0.441000000000000225,6.673729256449121294
0.442000000000000226,6.700871982592293996
0.443000000000000227,6.724884449195253744
0.444000000000000228,6.745779405946668916
0.445000000000000229,6.763572186763623151
0.446000000000000230,6.778280631758431873
0.447000000000000230,6.789925008197084999
0.448000000000000231,6.798527930623666116
0.449000000000000232,6.804114280317932639
0.450000000000000233,6.806711124246459299
0.451000000000000234,6.806347633660131180
0.452000000000000235,6.803055002484406089
0.453000000000000236,6.796866365641420771
0.454000000000000237,6.787816717436442104
0.455000000000000238,6.775942830134539463
0.456000000000000238,6.761283172846634493
0.457000000000000239,6.743877830837837095
0.458000000000000240,6.723768425364591295
0.459000000000000241,6.700998034140987158
0.460000000000000242,6.675611112528708979
0.461000000000000243,6.647653415539103605
0.462000000000000244,6.617171920730238632
0.463000000000000245,6.584214752076229971
0.464000000000000246,6.548831104880778575
0.465000000000000246,6.511071171801577684
0.466000000000000247,6.470986070047206162
0.467000000000000248,6.428627769803261671
0.468000000000000249,6.384049023939711631
0.469000000000000250,6.337303299046824989
0.470000000000000251,6.288444707842739234
0.471000000000000252,6.237527942991428986
0.472000000000000253,6.184608212365601432
0.473000000000000254,6.129741175785433427
0.474000000000000254,6.072982883259961717
0.475000000000000255,6.014389714754524441
0.476000000000000256,5.954018321504128686
0.477000000000000257,5.891925568889337939
0.478000000000000258,5.828168480887948810
0.479000000000000259,5.762804186113090310
0.480000000000000260,5.695889865444998534
0.481000000000000261,5.627482701261429909
0.482000000000000262,5.557639828268788662
0.483000000000000262,5.486418285933799766
0.484000000000000263,5.413874972512978445
0.485000000000000264,5.340066600675281272
0.486000000000000265,5.265049654710819205
0.487000000000000266,5.188880349316973728
0.488000000000000267,5.111614589951168242
0.489000000000000268,5.033307934737797140
0.490000000000000269,4.954015557915441015
0.491000000000000270,4.873792214808654322
0.492000000000000270,4.792692208307501645
0.493000000000000271,4.710769356836469690
0.494000000000000272,4.628076963793474441
0.495000000000000273,4.544667788438035316
0.496000000000000274,4.460594018207396871
0.497000000000000275,4.375907242437774514
0.498000000000000276,4.290658427467292313
0.499000000000000277,4.204897893096655181
0.500000000000000222,4.118675290382289411
0.501000000000000334,4.032039580736741513
0.502000000000000224,3.945039016310078583
0.503000000000000336,3.857721121625612426
0.504000000000000226,3.770132676443226138
0.505000000000000338,3.682319699822462322
0.506000000000000227,3.594327435358207534
0.507000000000000339,3.506200337560446023
0.508000000000000229,3.417982059350527013
0.509000000000000341,3.329715440644980706
0.510000000000000231,3.241442497999182937
0.511000000000000343,3.153204415281671835
0.512000000000000233,3.065041535351345381
0.513000000000000345,2.976993352708382279
0.514000000000000234,2.889098507091161672
0.515000000000000346,2.801394777990225737
0.516000000000000236,2.713919080051774735
0.517000000000000348,2.626707459342040529
0.518000000000000238,2.539795090445384762
0.519000000000000350,2.453216274367851391
0.520000000000000240,2.367004437219539348
0.521000000000000352,2.281192129648065947
0.522000000000000242,2.195811026996977944
0.523000000000000353,2.110891930161993280
0.524000000000000243,2.026464767119649846
0.525000000000000355,1.942558595101928631
0.526000000000000245,1.859201603392067526
0.527000000000000357,1.776421116715930726
0.528000000000000247,1.694243599204932282
0.529000000000000359,1.612694658905747591
0.530000000000000249,1.531799052813464179
0.531000000000000361,1.451580692404441209
0.532000000000000250,1.372062649646339505
0.533000000000000362,1.293267163462335834
0.534000000000000252,1.215215646628186708
0.535000000000000364,1.137928693079706122
0.536000000000000254,1.061426085610481795
0.537000000000000366,0.985726803938329121
0.538000000000000256,0.910849033121018947
0.539000000000000368,0.836810172300989308
0.540000000000000258,0.763626843760373264
0.541000000000000369,0.691314902266947695
0.542000000000000259,0.619889444693450864
0.543000000000000371,0.549364819891744127
0.544000000000000261,0.479754638805011235
0.545000000000000373,0.411071784800782491
0.546000000000000263,0.343328424208678928
0.547000000000000375,0.276536017046500771
0.548000000000000265,0.210705327919775781
0.549000000000000377,0.145846437079077601
0.550000000000000266,0.081968751621170927
0.551000000000000378,0.019081016819323036
0.552000000000000268,-0.042808672430463268
0.553000000000000380,-0.103692860060897465
0.554000000000000270,-0.163564717194999931
0.555000000000000382,-0.222418030430580005
0.556000000000000272,-0.280247190059219720
0.557000000000000384,-0.337047178231569600
0.558000000000000274,-0.392813557079920661
0.559000000000000385,-0.447542456808918854
0.560000000000000275,-0.501230563764602510
0.561000000000000387,-0.553875108491917900
0.562000000000000277,-0.605473853790011285
0.563000000000000389,-0.656025082774819635
0.564000000000000279,-0.705527586957423347
0.565000000000000391,-0.753980654346982582
0.566000000000000281,-0.801384057586021825
0.567000000000000393,-0.847738042126159774
0.568000000000000282,-0.893043314451396619
0.569000000000000394,-0.937301030356379128
0.570000000000000284,-0.980512783286022982
0.571000000000000396,-1.022680592743416828
0.572000000000000286,-1.063806892771699486
0.573000000000000398,-1.103894520516112587
0.574000000000000288,-1.142946704871519614
0.575000000000000400,-1.180967055220892847
0.576000000000000290,-1.217959550269493763
0.577000000000000401,-1.253928526979764424
0.578000000000000291,-1.288878669611067673
0.579000000000000403,-1.322814998868754532
0.580000000000000293,-1.355742861166250313
0.581000000000000405,-1.387667918004118039
0.582000000000000295,-1.418596135469267105
0.583000000000000407,-1.448533773857887397
0.584000000000000297,-1.477487377424739678
0.585000000000000409,-1.505463764261981696
0.586000000000000298,-1.532470016309790184
0.587000000000000410,-1.558513469501415560
0.588000000000000300,-1.583601704044651726
0.589000000000000412,-1.607742534841931414
0.590000000000000302,-1.630944002050640496
0.591000000000000414,-1.653214361785497299
0.592000000000000304,-1.674562076964318802
0.593000000000000416,-1.694995808298539242
0.594000000000000306,-1.714524405429596943
0.595000000000000417,-1.733156898212254493
0.596000000000000307,-1.750902488145544833
0.597000000000000419,-1.767770539952194131
0.598000000000000309,-1.783770573307004614
0.599000000000000421,-1.798912254714609471
0.600000000000000311,-1.813205389536959533
0.601000000000000423,-1.826659914170705390
0.602000000000000313,-1.839285888374442068
0.603000000000000425,-1.851093487745976818
0.604000000000000314,-1.862092996349201002
0.605000000000000426,-1.872294799490541894
0.606000000000000316,-1.881709376644459919
0.607000000000000428,-1.890347294527636723
0.608000000000000318,-1.898219200321306532
0.609000000000000430,-1.905335815041035108
0.610000000000000320,-1.911707927053306832
0.611000000000000432,-1.917346385738095460
0.612000000000000322,-1.922262095296570106
0.613000000000000433,-1.926466008702981014
0.614000000000000323,-1.929969121799777865
0.615000000000000435,-1.932782467534839288
0.616000000000000325,-1.934917110339694712
0.617000000000000437,-1.936384140647645413
0.618000000000000327,-1.937194669550422521
0.619000000000000439,-1.937359823592198271
0.620000000000000329,-1.936890739699599351
0.621000000000000441,-1.935798560246307698
0.622000000000000330,-1.934094428250900277
0.623000000000000442,-1.931789482706431471
0.624000000000000332,-1.928894854040261730
0.625000000000000444,-1.925421659702656552
0.626000000000000334,-1.921380999882569496
0.627000000000000446,-1.916783953349014524
0.628000000000000336,-1.911641573416471784
0.629000000000000448,-1.905964884032652851
0.630000000000000338,-1.899764875986972523
0.631000000000000449,-1.893052503238089157
0.632000000000000339,-1.885838679358813108
0.633000000000000451,-1.878134274096626033
0.634000000000000341,-1.869950110048178349
0.635000000000000453,-1.861296959445983834
0.636000000000000343,-1.852185541055565210
0.637000000000000455,-1.842626517181335633
0.638000000000000345,-1.832630490779425525
0.639000000000000457,-1.822208002675704153
0.640000000000000346,-1.811369528887267766
0.641000000000000458,-1.800125478045543570
0.642000000000000348,-1.788486188919355957
0.643000000000000460,-1.776461928036047855
0.644000000000000350,-1.764062887399051593
0.645000000000000462,-1.751299182299962398
0.646000000000000352,-1.738180849223542213
0.647000000000000464,-1.724717843843726728
0.648000000000000353,-1.710920039109049995
0.649000000000000465,-1.696797223415550393
0.650000000000000355,-1.682359098865658265
0.651000000000000467,-1.667615279611082801
0.652000000000000357,-1.652575290278247788
0.653000000000000469,-1.637248564474276691
0.654000000000000359,-1.621644443372141975
0.655000000000000471,-1.605772174373031103
0.656000000000000361,-1.589640909844433736
0.657000000000000473,-1.573259705932166908
0.658000000000000362,-1.556637521444818706
0.659000000000000474,-1.539783216808865429
0.660000000000000364,-1.522705553092936759
0.661000000000000476,-1.505413191099544523
0.662000000000000366,-1.487914690522801786
0.663000000000000478,-1.470218509170418519
0.664000000000000368,-1.452333002248590521
0.665000000000000480,-1.434266421708098260
0.666000000000000369,-1.416026915650198337
0.667000000000000481,-1.397622527790768121
