# AlFCC100UCD_CS-11727-AC
# h[nm],U(h)[kJ/mol]
0.149999999999999994,130.299331555882019984
0.150999999999999995,129.499719503852304570
0.151999999999999996,125.460619297842754349
0.152999999999999997,120.762308850922480019
0.153999999999999998,116.408986914461749507
0.154999999999999999,112.628522492148277934
0.156000000000000000,109.320746428842454634
0.157000000000000001,106.292289821298908237
0.158000000000000002,103.366368870774834932
0.159000000000000002,100.422945749314024511
0.160000000000000003,97.403076526440770522
0.161000000000000004,94.297315238682443805
0.162000000000000005,91.129237402875617136
0.163000000000000006,87.939733148809139607
0.164000000000000007,84.774513042778622207
0.165000000000000008,81.675468944512530811
0.166000000000000009,78.675605397132912344
0.167000000000000010,75.796854627214628408
0.168000000000000010,73.049985016085173584
0.169000000000000011,70.435867125640385211
0.170000000000000012,67.947486559048670074
0.171000000000000013,65.572238705117186441
0.172000000000000014,63.294179374575627151
0.173000000000000015,61.096024403633535371
0.174000000000000016,58.960785930495525520
0.175000000000000017,56.873003508748311674
0.176000000000000018,54.819577222134761030
0.177000000000000018,52.790241228175148080
0.178000000000000019,50.777733565665037929
0.179000000000000020,48.777725201778331154
0.180000000000000021,46.788571249564554932
0.181000000000000022,44.810942562880576645
0.182000000000000023,42.847388462004538212
0.183000000000000024,40.901872609423904237
0.184000000000000025,38.979315070431177048
0.185000000000000026,37.085165045403357453
0.186000000000000026,35.225021072935042810
0.187000000000000027,33.404308899230130692
0.188000000000000028,31.628021769603492430
0.189000000000000029,29.900523604114130904
0.190000000000000030,28.225412289047529413
0.191000000000000031,26.605438029899715957
0.192000000000000032,25.042470232814260100
0.193000000000000033,23.537505569405134054
0.194000000000000034,22.090709599342407188
0.195000000000000034,20.701484451996456926
0.196000000000000035,19.368555493318005745
0.197000000000000036,18.090070533258373331
0.198000000000000037,16.863705884551791314
0.199000000000000038,15.686774402784465110
0.200000000000000039,14.556331471277042411
0.201000000000000040,13.469275705431604351
0.202000000000000041,12.422441913265794611
0.203000000000000042,11.412684544003310450
0.204000000000000042,10.436950474043346304
0.205000000000000043,9.492340514283366559
0.206000000000000044,8.576159473868816718
0.207000000000000045,7.685954985507947868
0.208000000000000046,6.819545591350833824
0.209000000000000047,5.975038812476900496
0.210000000000000048,5.150840086573575505
0.211000000000000049,4.345653565166870180
0.212000000000000050,3.558475821578379161
0.213000000000000050,2.788583541210970740
0.214000000000000051,2.035516253949348098
0.215000000000000052,1.299055130992798457
0.216000000000000053,0.579198811261596114
0.217000000000000054,-0.123862849097232261
0.218000000000000055,-0.809776292051285096
0.219000000000000056,-1.478052313233442217
0.220000000000000057,-2.128094023146229752
0.221000000000000058,-2.759224169516541370
0.222000000000000058,-3.370711364173946123
0.223000000000000059,-3.961794841841582038
0.224000000000000060,-4.531707457137636119
0.225000000000000061,-5.079696698996784221
0.226000000000000062,-5.605043568059804748
0.227000000000000063,-6.107079222034535348
0.228000000000000064,-6.585199346502463413
0.229000000000000065,-7.038876254214587291
0.230000000000000066,-7.467668754797580632
0.231000000000000066,-7.871229869301961557
0.232000000000000067,-8.249312490561326427
0.233000000000000068,-8.601773111348698819
0.234000000000000069,-8.928573758293605778
0.235000000000000070,-9.229782280961781993
0.236000000000000071,-9.505571152898923515
0.237000000000000072,-9.756214945293931962
0.238000000000000073,-9.982086634700916505
0.239000000000000073,-10.183652904423624364
0.240000000000000074,-10.361468595138159543
0.241000000000000075,-10.516170454498430686
0.242000000000000076,-10.648470328196300017
0.243000000000000077,-10.759147926559524677
0.244000000000000078,-10.849043291557439517
0.245000000000000079,-10.919049079304873118
0.246000000000000080,-10.970102763037019145
0.247000000000000081,-11.003178851267197302
0.248000000000000081,-11.019281205603887130
0.249000000000000082,-11.019435532634140884
0.250000000000000111,-11.004682114494974243
0.251000000000000112,-10.976068833346644738
0.252000000000000113,-10.934644536007786186
0.253000000000000114,-10.881452776567273943
0.254000000000000115,-10.817525966895427558
0.255000000000000115,-10.743879957661771840
0.256000000000000116,-10.661509065746461289
0.257000000000000117,-10.571381557810285656
0.258000000000000118,-10.474435594261541027
0.259000000000000119,-10.371575632915440934
0.260000000000000120,-10.263669287266626640
0.261000000000000121,-10.151544630464849561
0.262000000000000122,-10.035987932774244058
0.263000000000000123,-9.917741817477393695
0.264000000000000123,-9.797503817828193462
0.265000000000000124,-9.675925315728644449
0.266000000000000125,-9.553610841274068122
0.267000000000000126,-9.431117711143576443
0.268000000000000127,-9.308955982978178056
0.269000000000000128,-9.187588702354108960
0.270000000000000129,-9.067432418694206575
0.271000000000000130,-8.948857946434760180
0.272000000000000131,-8.832191347952385030
0.273000000000000131,-8.717715115126329906
0.274000000000000132,-8.605669526943080072
0.275000000000000133,-8.496254161216990397
0.276000000000000134,-8.389629539281445503
0.277000000000000135,-8.285918883380336553
0.278000000000000136,-8.185209967439117662
0.279000000000000137,-8.087557042902988158
0.280000000000000138,-7.992982822380840346
0.281000000000000139,-7.901480504913152458
0.282000000000000139,-7.813015827778595046
0.283000000000000140,-7.727529130855957717
0.284000000000000141,-7.644937420655568694
0.285000000000000142,-7.565136422219547185
0.286000000000000143,-7.488002608155200690
0.287000000000000144,-7.413395195104449442
0.288000000000000145,-7.341158098959793321
0.289000000000000146,-7.271121841108190154
0.290000000000000147,-7.203105398916461510
0.291000000000000147,-7.136917994561267520
0.292000000000000148,-7.072360817152050672
0.293000000000000149,-7.009228673894848605
0.294000000000000150,-6.947311566797194082
0.295000000000000151,-6.886396192120104232
0.296000000000000152,-6.826267360440541054
0.297000000000000153,-6.766709335799272473
0.298000000000000154,-6.707507092973058249
0.299000000000000155,-6.648447492429577110
0.300000000000000155,-6.589320372998213493
0.301000000000000156,-6.529919562721550719
0.302000000000000157,-6.470043808743051628
0.303000000000000158,-6.409497627436820721
0.304000000000000159,-6.348092076298313735
0.305000000000000160,-6.285645449390640849
0.306000000000000161,-6.221983898383738776
0.307000000000000162,-6.156941981432931144
0.308000000000000163,-6.090363142322281043
0.309000000000000163,-6.022100122448954984
0.310000000000000164,-5.952015308348049594
0.311000000000000165,-5.879981017556284328
0.312000000000000166,-5.805879725688752657
0.313000000000000167,-5.729604237657295762
0.314000000000000168,-5.651057805993983330
0.315000000000000169,-5.570154199260307415
0.316000000000000170,-5.486817723523436996
0.317000000000000171,-5.400983199867001261
0.318000000000000171,-5.312595900876449839
0.319000000000000172,-5.221611449000165273
0.320000000000000173,-5.127995679637712634
0.321000000000000174,-5.031724471747496708
0.322000000000000175,-4.932783548699158693
0.323000000000000176,-4.831168252021746490
0.324000000000000177,-4.726883290618317801
0.325000000000000178,-4.619942467932505181
0.326000000000000179,-4.510368389463119243
0.327000000000000179,-4.398192152929748744
0.328000000000000180,-4.283453023296999618
0.329000000000000181,-4.166198094768010840
0.330000000000000182,-4.046481941758359291
0.331000000000000183,-3.924366260763214598
0.332000000000000184,-3.799919504930299841
0.333000000000000185,-3.673216513052460108
0.334000000000000186,-3.544338134595169887
0.335000000000000187,-3.413370852276893519
0.336000000000000187,-3.280406403624594791
0.337000000000000188,-3.145541402832439992
0.338000000000000189,-3.008876964159948209
0.339000000000000190,-2.870518328015943865
0.340000000000000191,-2.730574490787261333
0.341000000000000192,-2.589157839387033366
0.342000000000000193,-2.446383791414544984
0.343000000000000194,-2.302370441740642537
0.344000000000000195,-2.157238216255673802
0.345000000000000195,-2.011109533444547459
0.346000000000000196,-1.864108474383090908
0.347000000000000197,-1.716360461683064553
0.348000000000000198,-1.567991947849571854
0.349000000000000199,-1.419130113453499042
0.350000000000000200,-1.269902575464516570
0.351000000000000201,-1.120437106034980035
0.352000000000000202,-0.970861361974082904
0.353000000000000203,-0.821302625102667938
0.354000000000000203,-0.671887553633398360
0.355000000000000204,-0.522741944678347781
0.356000000000000205,-0.373990507945851314
0.357000000000000206,-0.225756650650988211
0.358000000000000207,-0.078162273629463375
0.359000000000000208,0.068672421387694832
0.360000000000000209,0.214629113410979316
0.361000000000000210,0.359591532840578987
0.362000000000000210,0.503445621250894093
0.363000000000000211,0.646079680459328287
0.364000000000000212,0.787384511048239033
0.365000000000000213,0.927253540527939513
0.366000000000000214,1.065582941345484036
0.367000000000000215,1.202271738959402425
0.368000000000000216,1.337221910213830522
0.369000000000000217,1.470338472257532114
0.370000000000000218,1.601529562263472872
0.371000000000000218,1.730706508213598172
0.372000000000000219,1.857783891020822864
0.373000000000000220,1.982679598266562593
0.374000000000000221,2.105314869836917957
0.375000000000000222,2.225614335744700689
0.376000000000000223,2.343506046427017875
0.377000000000000224,2.458921495810122870
0.378000000000000225,2.571795637433831772
0.379000000000000226,2.682066893928097606
0.380000000000000226,2.789677160133252620
0.381000000000000227,2.894571800154113639
0.382000000000000228,2.996699638635806906
0.383000000000000229,3.096012946546334632
0.384000000000000230,3.192467421747719136
0.385000000000000231,3.286022164633349174
0.386000000000000232,3.376639649105046992
0.387000000000000233,3.464285689158535853
0.388000000000000234,3.548929401340765288
0.389000000000000234,3.630543163337101475
0.390000000000000235,3.709102568940784828
0.391000000000000236,3.784586379650649146
0.392000000000000237,3.856976473137348371
0.393000000000000238,3.926257788811453597
0.394000000000000239,3.992418270720491158
0.395000000000000240,4.055448807995157168
0.396000000000000241,4.115343173058134241
0.397000000000000242,4.172097957802072266
0.398000000000000242,4.225712507936344231
0.399000000000000243,4.276188855695165714
0.400000000000000244,4.323531651092932471
0.401000000000000245,4.367748091905114372
0.402000000000000246,4.408847852546783130
0.403000000000000247,4.446843012013453666
0.404000000000000248,4.481747981042227380
0.405000000000000249,4.513579428644504787
0.406000000000000250,4.542356208154737729
0.407000000000000250,4.568099282933167693
0.408000000000000251,4.590831651853988227
0.409000000000000252,4.610578274703837742
0.410000000000000253,4.627365997609565795
0.411000000000000254,4.641223478607686914
0.412000000000000255,4.652181113462286355
0.413000000000000256,4.660270961831937342
0.414000000000000257,4.665526673880760811
0.415000000000000258,4.667983417422904679
0.416000000000000258,4.667677805684485648
0.417000000000000259,4.664647825761587541
0.418000000000000260,4.658932767847893786
0.419000000000000261,4.650573155300492978
0.420000000000000262,4.639610675607546142
0.421000000000000263,4.626088112316880441
0.422000000000000264,4.610049277980083460
0.423000000000000265,4.591538948162233069
0.424000000000000266,4.570602796563217218
0.425000000000000266,4.547287331292618084
0.426000000000000267,4.521639832336178166
0.427000000000000268,4.493708290248078718
0.428000000000000269,4.463541346099764162
0.429000000000000270,4.431188232712576891
0.430000000000000271,4.396698717198011863
0.431000000000000272,4.360123044826499594
0.432000000000000273,4.321511884242392298
0.433000000000000274,4.280916274040043490
0.434000000000000274,4.238387570713022967
0.435000000000000275,4.193977397986101252
0.436000000000000276,4.147737597536897525
0.437000000000000277,4.099720181111839779
0.438000000000000278,4.049977284038907221
0.439000000000000279,3.998561120137373415
0.440000000000000280,3.945523938022788002
0.441000000000000281,3.890917978803701605
0.442000000000000282,3.834795435164525035
0.443000000000000282,3.777208411827645218
0.444000000000000283,3.718208887385917816
0.445000000000000284,3.657848677495539214
0.446000000000000285,3.596179399417698708
0.447000000000000286,3.533252437896179377
0.448000000000000287,3.469118912356893958
0.449000000000000288,3.403829645414251814
0.450000000000000289,3.337435132668072235
0.451000000000000290,3.269985513774051444
0.452000000000000290,3.201530544769683129
0.453000000000000291,3.132119571636873268
0.454000000000000292,3.061801505081691133
0.455000000000000293,2.990624796511040628
0.456000000000000294,2.918637415185492134
0.457000000000000295,2.845886826526922597
0.458000000000000296,2.772419971559083152
0.459000000000000297,2.698283247459007494
0.460000000000000298,2.623522489196421059
0.461000000000000298,2.548182952238544186
0.462000000000000299,2.472309296296779202
0.463000000000000300,2.395945570092108845
0.464000000000000301,2.319135197115496538
0.465000000000000302,2.241920962359708280
0.466000000000000303,2.164344999998509600
0.467000000000000304,2.086448781989663992
0.468000000000000305,2.008273107577632999
0.469000000000000306,1.929858093672166319
0.470000000000000306,1.851243166079040048
0.471000000000000307,1.772467051559035722
0.472000000000000308,1.693567770691645435
0.473000000000000309,1.614582631519880351
0.474000000000000310,1.535548223952968971
0.475000000000000311,1.456500414903443508
0.476000000000000312,1.377474344136111029
0.477000000000000313,1.298504420805574044
0.478000000000000314,1.219624320660215755
0.479000000000000314,1.140866983890109321
0.480000000000000315,1.062264613596930030
0.481000000000000316,0.983848674864105432
0.482000000000000317,0.905649894405787359
0.483000000000000318,0.827698260773502392
0.484000000000000319,0.750023025099670115
0.485000000000000320,0.672652702357544485
0.486000000000000321,0.595615073117382376
0.487000000000000322,0.518937185779107302
0.488000000000000322,0.442645359261946869
0.489000000000000323,0.366765186132111287
0.490000000000000324,0.291321536149616478
0.491000000000000325,0.216338560216049997
0.492000000000000326,0.141839694705229974
0.493000000000000327,0.067847666159226577
0.494000000000000328,-0.005615503667532451
0.495000000000000329,-0.078528492432861002
0.496000000000000330,-0.150870671516566163
0.497000000000000330,-0.222622100031474257
0.498000000000000331,-0.293763518551372949
0.499000000000000332,-0.364276342571104528
0.500000000000000333,-0.434142655713908643
0.501000000000000334,-0.503345202700396177
0.502000000000000335,-0.571867382093397825
0.503000000000000336,-0.639693238832400701
0.504000000000000337,-0.706807456571121429
0.505000000000000338,-0.773195349831092393
0.506000000000000338,-0.838842855984049285
0.507000000000000339,-0.903736527075428397
0.508000000000000340,-0.967863521500859192
0.509000000000000341,-1.031211595547285365
0.510000000000000342,-1.093769094809968312
0.511000000000000343,-1.155524945496263722
0.512000000000000344,-1.216468645626710643
0.513000000000000345,-1.276590256143610436
0.514000000000000346,-1.335880391937114053
0.515000000000000346,-1.394330212798179813
0.516000000000000347,-1.451931414307779944
0.517000000000000348,-1.508676218671200608
0.518000000000000349,-1.564557365506076714
0.519000000000000350,-1.619568102592381376
0.520000000000000351,-1.673702176592479107
0.521000000000000352,-1.726953823748845540
0.522000000000000353,-1.779317760566858864
0.523000000000000353,-1.830789174489922289
0.524000000000000354,-1.881363714573554891
0.525000000000000355,-1.931037482165244512
0.526000000000000356,-1.979807021596187822
0.527000000000000357,-2.027669310891069721
0.528000000000000358,-2.074621752501738747
0.529000000000000359,-2.120662164070094224
0.530000000000000360,-2.165788769225761801
0.531000000000000361,-2.210000188423434597
0.532000000000000361,-2.253295429824839324
0.533000000000000362,-2.295673880229807562
0.534000000000000363,-2.337135296060975698
0.535000000000000364,-2.377679794406218239
0.536000000000000365,-2.417307844122776661
0.537000000000000366,-2.456020257006890084
0.538000000000000367,-2.493818179032454285
0.539000000000000368,-2.530703081662122766
0.540000000000000369,-2.566676753234015340
0.541000000000000369,-2.601741290427042053
0.542000000000000370,-2.635899089807673512
0.543000000000000371,-2.669152839460844806
0.544000000000000372,-2.701505510707453261
0.545000000000000373,-2.732960349910782405
0.546000000000000374,-2.763520870374091665
0.547000000000000375,-2.793190844331293832
0.548000000000000376,-2.821974295032708913
0.549000000000000377,-2.849875488927538836
0.550000000000000377,-2.876898927944765649
0.551000000000000378,-2.903049341873813916
0.552000000000000379,-2.928331680846461005
0.553000000000000380,-2.952751107921089524
0.554000000000000381,-2.976312991770445393
0.555000000000000382,-2.999022899473900772
0.556000000000000383,-3.020886589415004320
0.557000000000000384,-3.041910004285199420
0.558000000000000385,-3.062099264194261927
0.559000000000000385,-3.081460659888104914
0.560000000000000386,-3.100000646074357213
0.561000000000000387,-3.117725834856121203
0.562000000000000388,-3.134642989274166514
0.563000000000000389,-3.150759016957810132
0.564000000000000390,-3.166080963884524202
0.565000000000000391,-3.180616008248381199
0.566000000000000392,-3.194371454437268554
0.567000000000000393,-3.207354727118768345
0.568000000000000393,-3.219573365434513335
0.569000000000000394,-3.231035017302807510
0.570000000000000395,-3.241747433829202496
0.571000000000000396,-3.251718463824599503
0.572000000000000397,-3.260956048430563747
0.573000000000000398,-3.269468215851296211
0.574000000000000399,-3.277263076191728519
0.575000000000000400,-3.284348816401236437
0.576000000000000401,-3.290733695322244579
0.577000000000000401,-3.296426038843152551
0.578000000000000402,-3.301434235154790287
0.579000000000000403,-3.305766730109696905
0.580000000000000404,-3.309432022683414854
0.581000000000000405,-3.312438660536972002
0.582000000000000406,-3.314795235679720342
0.583000000000000407,-3.316510380231555644
0.584000000000000408,-3.317592762283749330
0.585000000000000409,-3.318051081857260165
0.586000000000000409,-3.317894066957689070
0.587000000000000410,-3.317130469725852127
0.588000000000000411,-3.315769062682853097
0.589000000000000412,-3.313818635068781937
0.590000000000000413,-3.311287989273798527
0.591000000000000414,-3.308185937360662798
0.592000000000000415,-3.304521297677540215
0.593000000000000416,-3.300302891559970142
0.594000000000000417,-3.295539540120917543
0.595000000000000417,-3.290240061127743587
0.596000000000000418,-3.284413265964901463
0.597000000000000419,-3.278067956681325335
0.598000000000000420,-3.271212923121180616
0.599000000000000421,-3.263856940136943052
0.600000000000000422,-3.256008764883551176
0.601000000000000423,-3.247677134192443305
0.602000000000000424,-3.238870762024335104
0.603000000000000425,-3.229598336999534691
0.604000000000000425,-3.219868520004510515
0.605000000000000426,-3.209689941873670627
0.606000000000000427,-3.199071201145028631
0.607000000000000428,-3.188020861888584356
0.608000000000000429,-3.176547451606287265
0.609000000000000430,-3.164659459202282310
0.610000000000000431,-3.152365333022358218
0.611000000000000432,-3.139673478961289455
0.612000000000000433,-3.126592258636993193
0.613000000000000433,-3.113129987630251616
0.614000000000000434,-3.099294933788859119
0.615000000000000435,-3.085095315594961640
