# AlFCC100UCD_CS-12814-AC
# h[nm],U(h)[kJ/mol]
0.149999999999999994,153.453518266847595442
0.150999999999999995,149.456967141428265222
0.151999999999999996,145.022901169426944534
0.152999999999999997,140.521671777542650261
0.153999999999999998,136.137666320470628989
0.154999999999999999,131.939222141330219529
0.156000000000000000,127.929499999805216248
0.157000000000000001,124.080954521579613470
0.158000000000000002,120.356896246409945661
0.159000000000000002,116.723587477363182074
0.160000000000000003,113.155842841313784675
0.161000000000000004,109.638494041530549339
0.162000000000000005,106.165474806564773758
0.163000000000000006,102.737756196428833277
0.164000000000000007,99.360938742612475494
0.165000000000000008,96.042986469162016760
0.166000000000000009,92.792356911821883614
0.167000000000000010,89.616624564551301546
0.168000000000000010,86.521596044087601740
0.169000000000000011,83.510858587308902656
0.170000000000000012,80.585676648272240641
0.171000000000000013,77.745144324893118437
0.172000000000000014,74.986506531421710520
0.173000000000000015,72.305573736216288694
0.174000000000000016,69.697169888052513897
0.175000000000000017,67.155568353809499627
0.176000000000000018,64.674884761914313458
0.177000000000000018,62.249407770629012759
0.178000000000000019,59.873858625190315763
0.179000000000000020,57.543577917565983171
0.180000000000000021,55.254643394495566611
0.181000000000000022,53.003926254078351121
0.182000000000000023,50.789095450659907272
0.183000000000000024,48.608580415608528824
0.184000000000000025,46.461502597824654970
0.185000000000000026,44.347585595727522900
0.186000000000000026,42.267052612790472210
0.187000000000000027,40.220518699265127793
0.188000000000000028,38.208883881068700816
0.189000000000000029,36.233231924609590635
0.190000000000000030,34.294738214723544445
0.191000000000000031,32.394589077860530324
0.192000000000000032,30.533913890168896899
0.193000000000000033,28.713730480773346443
0.194000000000000034,26.934903673637013100
0.195000000000000034,25.198116298282347003
0.196000000000000035,23.503851626518933671
0.197000000000000036,21.852385942377651418
0.198000000000000037,20.243789807558819405
0.199000000000000038,18.677936526658065475
0.200000000000000039,17.154516327817038501
0.201000000000000040,15.673054839198409027
0.202000000000000041,14.232934545463791665
0.203000000000000042,12.833418038776063241
0.204000000000000042,11.473672025204738389
0.205000000000000043,10.152791201103628538
0.206000000000000044,8.869821268096348632
0.207000000000000045,7.623780504381149292
0.208000000000000046,6.413679450164293527
0.209000000000000047,5.238538393374051694
0.210000000000000048,4.097402456627476042
0.211000000000000049,2.989354186792455348
0.212000000000000050,1.913523634144249641
0.213000000000000050,0.869095979333146418
0.214000000000000051,-0.144683176188985990
0.215000000000000052,-1.128504696039903665
0.216000000000000053,-2.082994777939690234
0.217000000000000054,-3.008715590332667666
0.218000000000000055,-3.906167447749695931
0.219000000000000056,-4.775792290648800176
0.220000000000000057,-5.617978236670343684
0.221000000000000058,-6.433064976851601280
0.222000000000000058,-7.221349801274913105
0.223000000000000059,-7.983094052852941047
0.224000000000000060,-8.718529824595098177
0.225000000000000061,-9.427866733953605305
0.226000000000000062,-10.111298627031418462
0.227000000000000063,-10.769010084966749830
0.228000000000000064,-11.401182624202029103
0.229000000000000065,-12.008000501208346833
0.230000000000000066,-12.589656050250347619
0.231000000000000066,-13.146354499708314378
0.232000000000000067,-13.678318228143604429
0.233000000000000068,-14.185790435587430025
0.234000000000000069,-14.669038218379654381
0.235000000000000070,-15.128355047257439736
0.236000000000000071,-15.564062658299118169
0.237000000000000072,-15.976512374802577909
0.238000000000000073,-16.366085885274326728
0.239000000000000073,-16.733195508499068893
0.240000000000000074,-17.078283981239032130
0.241000000000000075,-17.401823807567197377
0.242000000000000076,-17.704316211272498549
0.243000000000000077,-17.986289734289300668
0.244000000000000078,-18.248298524799690057
0.245000000000000079,-18.490920358636408594
0.246000000000000080,-18.714754436973571217
0.247000000000000081,-18.920419002125463237
0.248000000000000081,-19.108548811665706069
0.249000000000000082,-19.279792509113502064
0.250000000000000111,-19.434809927184637957
0.251000000000000112,-19.574269357139748138
0.252000000000000113,-19.698844815145662324
0.253000000000000114,-19.809213333847139893
0.254000000000000115,-19.906052304581987045
0.255000000000000115,-19.990036892897236953
0.256000000000000116,-20.061837547280511274
0.257000000000000117,-20.122117618336275768
0.258000000000000118,-20.171531103038667254
0.259000000000000119,-20.210720526202287317
0.260000000000000120,-20.240314968947181740
0.261000000000000121,-20.260928251705060177
0.262000000000000122,-20.273157277233632811
0.263000000000000123,-20.277580537177513520
0.264000000000000123,-20.274756783944472005
0.265000000000000124,-20.265223868053048761
0.266000000000000125,-20.249497739654259476
0.267000000000000126,-20.228071611630003446
0.268000000000000127,-20.201415280523814744
0.269000000000000128,-20.169974600556905386
0.270000000000000129,-20.134171105120653777
0.271000000000000130,-20.094401769407262748
0.272000000000000131,-20.051038907236083730
0.273000000000000131,-20.004430194646552366
0.274000000000000132,-19.954898812450856838
0.275000000000000133,-19.902743699663023591
0.276000000000000134,-19.848239909536761871
0.277000000000000135,-19.791639059844374771
0.278000000000000136,-19.733169869005482866
0.279000000000000137,-19.673038769718544927
0.280000000000000138,-19.611430591853689975
0.281000000000000139,-19.548509306523630613
0.282000000000000139,-19.484418823454905834
0.283000000000000140,-19.419283834026636271
0.284000000000000141,-19.353210692622987210
0.285000000000000142,-19.286288329252588625
0.286000000000000143,-19.218589186718212147
0.287000000000000144,-19.150170175967335950
0.288000000000000145,-19.081073643615962254
0.289000000000000146,-19.011328346007950074
0.290000000000000147,-18.940950424548368858
0.291000000000000147,-18.869944377427479765
0.292000000000000148,-18.798304023229459148
0.293000000000000149,-18.726013452293805983
0.294000000000000150,-18.653047962065542720
0.295000000000000151,-18.579374973030994056
0.296000000000000152,-18.504954922186364286
0.297000000000000153,-18.429742131326598553
0.298000000000000154,-18.353685647769061973
0.299000000000000155,-18.276730055441369416
0.300000000000000155,-18.198816254562409256
0.301000000000000156,-18.119882208431416615
0.302000000000000157,-18.039863656109915269
0.303000000000000158,-17.958694790036588529
0.304000000000000159,-17.876308897854247704
0.305000000000000160,-17.792638967951408091
0.306000000000000161,-17.707618258429711489
0.307000000000000162,-17.621180829400646672
0.308000000000000163,-17.533262038692875251
0.309000000000000163,-17.443799001214294719
0.310000000000000164,-17.352731012361708451
0.311000000000000165,-17.259999936005108623
0.312000000000000166,-17.165550557695365086
0.313000000000000167,-17.069330903852002024
0.314000000000000168,-16.971292527783795379
0.315000000000000169,-16.871390763479372055
0.316000000000000170,-16.769584948177786998
0.317000000000000171,-16.665838614791727679
0.318000000000000171,-16.560119655308433551
0.319000000000000172,-16.452400456336729206
0.320000000000000173,-16.342658008002867831
0.321000000000000174,-16.230873987424196514
0.322000000000000175,-16.117034818008356467
0.323000000000000176,-16.001131705837359220
0.324000000000000177,-15.883160654401038414
0.325000000000000178,-15.763122458943453097
0.326000000000000179,-15.641022681680208706
0.327000000000000179,-15.516871609132660836
0.328000000000000180,-15.390684192810036635
0.329000000000000181,-15.262479974451096609
0.330000000000000182,-15.132282997012747927
0.331000000000000183,-15.000121702568236515
0.332000000000000184,-14.866028818247054133
0.333000000000000185,-14.730041231318205419
0.334000000000000186,-14.592199854484288579
0.335000000000000187,-14.452549482418950433
0.336000000000000187,-14.311138640543296319
0.337000000000000188,-14.168019426998927912
0.338000000000000189,-14.023247348736635587
0.339000000000000190,-13.876881152600228475
0.340000000000000191,-13.728982652244704710
0.341000000000000192,-13.579616551688662440
0.342000000000000193,-13.428850266259511059
0.343000000000000194,-13.276753741651095453
0.344000000000000195,-13.123399271772447250
0.345000000000000195,-12.968861316028025499
0.346000000000000196,-12.813216316629956637
0.347000000000000197,-12.656542516505279394
0.348000000000000198,-12.498919778323436702
0.349000000000000199,-12.340429405132443463
0.350000000000000200,-12.181153963056974732
0.351000000000000201,-12.021177106476073959
0.352000000000000202,-11.860583406065209999
0.353000000000000203,-11.699458180054289613
0.354000000000000203,-11.537887329021797811
0.355000000000000204,-11.375957174514853776
0.356000000000000205,-11.213754301755786358
0.357000000000000206,-11.051365406667722269
0.358000000000000207,-10.888877147424675940
0.359000000000000208,-10.726376000706228098
0.360000000000000209,-10.563948122812226060
0.361000000000000210,-10.401679215769615183
0.362000000000000210,-10.239654398541491176
0.363000000000000211,-10.077958083427450475
0.364000000000000212,-9.916673857724639163
0.365000000000000213,-9.755884370699883235
0.366000000000000214,-9.595671225906214019
0.367000000000000215,-9.436114878860143662
0.368000000000000216,-9.277294540080930574
0.369000000000000217,-9.119288083478448215
0.370000000000000218,-8.962171960063093579
0.371000000000000218,-8.806021116938406834
0.372000000000000219,-8.650908921525905626
0.373000000000000220,-8.496907090960732489
0.374000000000000221,-8.344085626587286697
0.375000000000000222,-8.192512753474677112
0.376000000000000223,-8.042254864864201380
0.377000000000000224,-7.893376471453362520
0.378000000000000225,-7.745940155414575479
0.379000000000000226,-7.600006529040582492
0.380000000000000226,-7.455634197903675542
0.381000000000000227,-7.312879728410868196
0.382000000000000228,-7.171797619633532683
0.383000000000000229,-7.032440279286342744
0.384000000000000230,-6.894858003727527773
0.385000000000000231,-6.759098961850296128
0.386000000000000232,-6.625209182733098778
0.387000000000000233,-6.493232546915182368
0.388000000000000234,-6.363210781162768725
0.389000000000000234,-6.235183456590814188
0.390000000000000235,-6.109187990004601332
0.391000000000000236,-5.985259648326235471
0.392000000000000237,-5.863431555970754161
0.393000000000000238,-5.743734705038049171
0.394000000000000239,-5.626197968187224063
0.395000000000000240,-5.510848114061678515
0.396000000000000241,-5.397709825134484163
0.397000000000000242,-5.286805717845409092
0.398000000000000242,-5.178156364902943842
0.399000000000000243,-5.071780319626634892
0.400000000000000244,-4.967694142207194297
0.401000000000000245,-4.865912427764724768
0.402000000000000246,-4.766447836087253975
0.403000000000000247,-4.669311122934827196
0.404000000000000248,-4.574511172797119052
0.405000000000000249,-4.482055032995129196
0.406000000000000250,-4.391947949020622133
0.407000000000000250,-4.304193401009782427
0.408000000000000251,-4.218793141250593237
0.409000000000000252,-4.135747232626561853
0.410000000000000253,-4.055054087902289162
0.411000000000000254,-3.976710509759699530
0.412000000000000255,-3.900711731496611545
0.413000000000000256,-3.827051458302675346
0.414000000000000257,-3.755721909030476979
0.415000000000000258,-3.686713858383104281
0.416000000000000258,-3.620016679442104479
0.417000000000000259,-3.555618386463168523
0.418000000000000260,-3.493505677869674919
0.419000000000000261,-3.433663979377253206
0.420000000000000262,-3.376077487185562553
0.421000000000000263,-3.320729211176329354
0.422000000000000264,-3.267601018059421936
0.423000000000000265,-3.216673674411755002
0.424000000000000266,-3.167926889556567982
0.425000000000000266,-3.121339358233053307
0.426000000000000267,-3.076888803009294016
0.427000000000000268,-3.034552016393905483
0.428000000000000269,-2.994304902604255858
0.429000000000000270,-2.956122518951722178
0.430000000000000271,-2.919979116806786124
0.431000000000000272,-2.885848182109106652
0.432000000000000273,-2.853702475389999549
0.433000000000000274,-2.823514071276955750
0.434000000000000274,-2.795254397452019646
0.435000000000000275,-2.768894273037825204
0.436000000000000276,-2.744403946387216742
0.437000000000000277,-2.721753132254244090
0.438000000000000278,-2.700911048326244845
0.439000000000000279,-2.681846451098532480
0.440000000000000280,-2.664527671074970794
0.441000000000000281,-2.648922647279301934
0.442000000000000282,-2.634998961063987011
0.443000000000000282,-2.622723869204436120
0.444000000000000283,-2.612064336268524745
0.445000000000000284,-2.602987066252269166
0.446000000000000285,-2.595458533474154006
0.447000000000000286,-2.589445012721960371
0.448000000000000287,-2.584912608646956489
0.449000000000000288,-2.581827284401798206
0.450000000000000289,-2.580154889519445049
0.451000000000000290,-2.579861187031542435
0.452000000000000290,-2.580911879825794841
0.453000000000000291,-2.583272636242751830
0.454000000000000292,-2.586909114913510610
0.455000000000000293,-2.591786988840521389
0.456000000000000294,-2.597871968724746239
0.457000000000000295,-2.605129825542982225
0.458000000000000296,-2.613526412380140940
0.459000000000000297,-2.623027685521743368
0.460000000000000298,-2.633599724812788700
0.461000000000000298,-2.645208753289480352
0.462000000000000299,-2.657821156091244585
0.463000000000000300,-2.671403498660602782
0.464000000000000301,-2.685922544239329302
0.465000000000000302,-2.701345270669492926
0.466000000000000303,-2.717638886508691343
0.467000000000000304,-2.734770846468861372
0.468000000000000305,-2.752708866188751990
0.469000000000000306,-2.771420936350224018
0.470000000000000306,-2.790875336148949337
0.471000000000000307,-2.811040646130358756
0.472000000000000308,-2.831885760401926966
0.473000000000000309,-2.853379898233078471
0.474000000000000310,-2.875492615054168422
0.475000000000000311,-2.898193812866357799
0.476000000000000312,-2.921453750073971456
0.477000000000000313,-2.945243050751496394
0.478000000000000314,-2.969532713357107223
0.479000000000000314,-2.994294118904970770
0.480000000000000315,-3.019499038608400188
0.481000000000000316,-3.045119641006234001
0.482000000000000317,-3.071128498584597022
0.483000000000000318,-3.097498593906406583
0.484000000000000319,-3.124203325260851649
0.485000000000000320,-3.151216511845162493
0.486000000000000321,-3.178512398490874968
0.487000000000000322,-3.206065659946776059
0.488000000000000322,-3.233851404730692991
0.489000000000000323,-3.261845178562151837
0.490000000000000324,-3.290022967387947084
0.491000000000000325,-3.318361200012491796
0.492000000000000326,-3.346836750344723832
0.493000000000000327,-3.375426939273307170
0.494000000000000328,-3.404109536181683104
0.495000000000000329,-3.432862760114419043
0.496000000000000330,-3.461665280606182726
0.497000000000000330,-3.490496218184532928
0.498000000000000331,-3.519335144557558692
0.499000000000000332,-3.548162082497230418
0.500000000000000333,-3.576957505429264383
0.501000000000000334,-3.605702336740017167
0.502000000000000335,-3.634377948810855408
0.503000000000000336,-3.662966161790210062
0.504000000000000337,-3.691449242113460372
0.505000000000000338,-3.719809900780457923
0.506000000000000338,-3.748031291400485632
0.507000000000000339,-3.776097008014173806
0.508000000000000340,-3.803991082701744464
0.509000000000000341,-3.831697982986734807
0.510000000000000342,-3.859202609044251719
0.511000000000000343,-3.886490290722538710
0.512000000000000344,-3.913546784386497279
0.513000000000000345,-3.940358269591556883
0.514000000000000346,-3.966911345596291660
0.515000000000000346,-3.993193027721646526
0.516000000000000347,-4.019190743564831081
0.517000000000000348,-4.044892329075508108
0.518000000000000349,-4.070286024501796440
0.519000000000000350,-4.095360470213391224
0.520000000000000351,-4.120104702409021158
0.521000000000000352,-4.144508148715146945
0.522000000000000353,-4.168560623682652455
0.523000000000000353,-4.192252324188247670
0.524000000000000354,-4.215573824746871701
0.525000000000000355,-4.238516072741466800
0.526000000000000356,-4.261070383576063492
0.527000000000000357,-4.283228435758209329
0.528000000000000358,-4.304982265916422079
0.529000000000000359,-4.326324263758147382
0.530000000000000360,-4.347247166973749799
0.531000000000000361,-4.367744056091674487
0.532000000000000361,-4.387808349289891829
0.533000000000000362,-4.407433797168485157
0.534000000000000363,-4.426614477488195476
0.535000000000000364,-4.445344789879460023
0.536000000000000365,-4.463619450526428167
0.537000000000000366,-4.481433486830218804
0.538000000000000367,-4.498782232055571484
0.539000000000000368,-4.515661319964931586
0.540000000000000369,-4.532066679443749635
0.541000000000000369,-4.547994529120789942
0.542000000000000370,-4.563441371986984407
0.543000000000000371,-4.578403990016306935
0.544000000000000372,-4.592879438791966251
0.545000000000000373,-4.606865042141115474
0.546000000000000374,-4.620358386781145299
0.547000000000000375,-4.633357316980479368
0.548000000000000376,-4.645859929236727304
0.549000000000000377,-4.657864566974856402
0.550000000000000377,-4.669369815267999435
0.551000000000000378,-4.680374495583341954
0.552000000000000379,-4.690877660555484496
0.553000000000000380,-4.700878588789510815
0.554000000000000381,-4.710376779695909732
0.555000000000000382,-4.719371948359457392
0.556000000000000383,-4.727864020443893089
0.557000000000000384,-4.735853127134379115
0.558000000000000385,-4.743339600119390376
0.559000000000000385,-4.750323966613776427
0.560000000000000386,-4.756806944424514683
0.561000000000000387,-4.762789437060689579
0.562000000000000388,-4.768272528889078821
0.563000000000000389,-4.773257480336676295
0.564000000000000390,-4.777745723141387124
0.565000000000000391,-4.781738855652063691
0.566000000000000392,-4.785238638178991089
0.567000000000000393,-4.788246988395812309
0.568000000000000393,-4.790765976793813330
0.569000000000000394,-4.792797822189545975
0.570000000000000395,-4.794344887286475121
0.571000000000000396,-4.795409674291468249
0.572000000000000397,-4.795994820586800600
0.573000000000000398,-4.796103094458286975
0.574000000000000399,-4.795737390880100648
0.575000000000000400,-4.794900727356798953
0.576000000000000401,-4.793596239822994320
0.577000000000000401,-4.791827178601091752
0.578000000000000402,-4.789596904417415146
0.579000000000000403,-4.786908884477029780
0.580000000000000404,-4.783766688597530958
0.581000000000000405,-4.780173985401976466
0.582000000000000406,-4.776134538571147559
0.583000000000000407,-4.771652203155223759
0.584000000000000408,-4.766730921945019794
0.585000000000000409,-4.761374721902723373
0.586000000000000409,-4.755587710652220856
0.587000000000000410,-4.749374073028956644
0.588000000000000411,-4.742738067689193926
0.589000000000000412,-4.735684023778684804
0.590000000000000413,-4.728216337660501090
0.591000000000000414,-4.720339469701940516
0.592000000000000415,-4.712057941120283644
0.593000000000000416,-4.703376330887164336
0.594000000000000417,-4.694299272691316638
0.595000000000000417,-4.684831451959462711
0.596000000000000418,-4.674977602934927923
0.597000000000000419,-4.664742505813831208
0.598000000000000420,-4.654130983938303601
0.599000000000000421,-4.643147901046569714
0.600000000000000422,-4.631798158579337077
0.601000000000000423,-4.620086693042188664
0.602000000000000424,-4.608018473423532768
0.603000000000000425,-4.595598498667662568
0.604000000000000425,-4.582831795202431557
0.605000000000000426,-4.569723414521172700
0.606000000000000427,-4.556278430818275993
0.607000000000000428,-4.542501938677943052
0.608000000000000429,-4.528399050815698601
0.609000000000000430,-4.513974895871974979
