# AlFCC100UCD_CS-66579-AC
# h[nm],U(h)[kJ/mol]
0.200000000000000011,121.662870072263984866
0.201000000000000012,112.765575436448600044
0.202000000000000013,108.081460253411364647
0.203000000000000014,105.288738290420923249
0.204000000000000015,103.086723543766353828
0.205000000000000016,100.820651466343946367
0.206000000000000016,98.226626596165118599
0.207000000000000017,95.262110750217587452
0.208000000000000018,91.996536735333251045
0.209000000000000019,88.543521778469056471
0.210000000000000020,85.021302963735223557
0.211000000000000021,81.531840996951189027
0.212000000000000022,78.151859783974657603
0.213000000000000023,74.931154253239441232
0.214000000000000024,71.894996416459747479
0.215000000000000024,69.048543946045384700
0.216000000000000025,66.381916107746434363
0.217000000000000026,63.875131665851313301
0.218000000000000027,61.502464878213928046
0.219000000000000028,59.236015768298884154
0.220000000000000029,57.048444403780933953
0.221000000000000030,54.914911746365170586
0.222000000000000031,52.814320710887230348
0.223000000000000032,50.729974150239371511
0.224000000000000032,48.649771453925502840
0.225000000000000033,46.566059312614044075
0.226000000000000034,44.475239826699763057
0.227000000000000035,42.377223829694216306
0.228000000000000036,40.274801231802555890
0.229000000000000037,38.172984730501703154
0.230000000000000038,36.078369178744694068
0.231000000000000039,33.998536650109727475
0.232000000000000040,31.941526932738288025
0.233000000000000040,29.915384789112216879
0.234000000000000041,27.927788702018773392
0.235000000000000042,25.985760797133643507
0.236000000000000043,24.095453973450251084
0.237000000000000044,22.262009764719987714
0.238000000000000045,20.489478888487166586
0.239000000000000046,18.780795622423042346
0.240000000000000047,17.137796910622242308
0.241000000000000048,15.561277298843696926
0.242000000000000048,14.051071303948472035
0.243000000000000049,12.606155537312115911
0.244000000000000050,11.224763742801950883
0.245000000000000051,9.904508812448412414
0.246000000000000052,8.642506757737084655
0.247000000000000053,7.435498504762820815
0.248000000000000054,6.279966221205734556
0.249000000000000055,5.172241654742681050
0.250000000000000056,4.108604655556786334
0.251000000000000056,3.085370664949349084
0.252000000000000057,2.098966476737774478
0.253000000000000058,1.145994020280100667
0.254000000000000059,0.223282277930013345
0.255000000000000060,-0.672072258677914869
0.256000000000000061,-1.542675963160824448
0.257000000000000062,-2.390818481884102731
0.258000000000000063,-3.218462260213169834
0.259000000000000064,-4.027240200938405401
0.260000000000000064,-4.818460433063786574
0.261000000000000065,-5.593117164682606557
0.262000000000000066,-6.351906614111886284
0.263000000000000067,-7.095247053543540794
0.264000000000000068,-7.823302054521379389
0.265000000000000069,-8.536006090474932861
0.266000000000000070,-9.233091724806406830
0.267000000000000071,-9.914117690646332193
0.268000000000000071,-10.578497247862241437
0.269000000000000072,-11.225526282177908044
0.270000000000000073,-11.854410688689302589
0.271000000000000074,-12.464292656362131240
0.272000000000000075,-13.054275540293099667
0.273000000000000076,-13.623447073909108695
0.274000000000000077,-14.170900733400824123
0.275000000000000078,-14.695755121262909171
0.276000000000000079,-15.197171284734110941
0.277000000000000079,-15.674367928219089308
0.278000000000000080,-16.126634516554670284
0.279000000000000081,-16.553342298472223604
0.280000000000000082,-16.953953307073398094
0.281000000000000083,-17.328027416900333435
0.282000000000000084,-17.675227555590467432
0.283000000000000085,-17.995323182527720007
0.284000000000000086,-18.288192157710756902
0.285000000000000087,-18.553821131627376673
0.286000000000000087,-18.792304591620379028
0.287000000000000088,-19.003842702405595588
0.288000000000000089,-19.188738078395807918
0.289000000000000090,-19.347391623612146816
0.290000000000000091,-19.480297571521330013
0.291000000000000092,-19.588037852399519778
0.292000000000000093,-19.671275910037103074
0.293000000000000094,-19.730750082993242955
0.294000000000000095,-19.767266658386102307
0.295000000000000095,-19.781692698546155640
0.296000000000000096,-19.774948732924951145
0.297000000000000097,-19.748001399580410009
0.298000000000000098,-19.701856112471311633
0.299000000000000099,-19.637549822792447429
0.300000000000000100,-19.556143934752501679
0.301000000000000101,-19.458717428611841171
0.302000000000000102,-19.346360236514648534
0.303000000000000103,-19.220166909714521353
0.304000000000000103,-19.081230609239781870
0.305000000000000104,-18.930637445899822779
0.306000000000000105,-18.769461189813220869
0.307000000000000106,-18.598758364350281624
0.308000000000000107,-18.419563734532420796
0.309000000000000108,-18.232886195512826077
0.310000000000000109,-18.039705062771979271
0.311000000000000110,-17.840966762086029718
0.312000000000000111,-17.637581914151301277
0.313000000000000111,-17.430422805958226462
0.314000000000000112,-17.220321238583846224
0.315000000000000113,-17.008066738993417033
0.316000000000000114,-16.794405121688395610
0.317000000000000115,-16.580037384587377858
0.318000000000000116,-16.365618922357356269
0.319000000000000117,-16.151759039503172488
0.320000000000000118,-15.939020744850271427
0.321000000000000119,-15.727920808600421410
0.322000000000000119,-15.518930062879951137
0.323000000000000120,-15.312473926615647102
0.324000000000000121,-15.108933135646193335
0.325000000000000122,-14.908644659188329484
0.326000000000000123,-14.711902784109408771
0.327000000000000124,-14.518960348895969759
0.328000000000000125,-14.330030109736615174
0.329000000000000126,-14.145286221741278254
0.330000000000000127,-13.964865818986435642
0.331000000000000127,-13.788870677794699660
0.332000000000000128,-13.617368948415201402
0.333000000000000129,-13.450396941060200007
0.334000000000000130,-13.287960953062304625
0.335000000000000131,-13.130039124739628420
0.336000000000000132,-12.976583312383031199
0.337000000000000133,-12.827520967606705682
0.338000000000000134,-12.682757013122259337
0.339000000000000135,-12.542175705804861963
0.340000000000000135,-12.405642478710362298
0.341000000000000136,-12.273005754474073825
0.342000000000000137,-12.144098723269500795
0.343000000000000138,-12.018741079227268642
0.344000000000000139,-11.896740709908169009
0.345000000000000140,-11.777895334088659851
0.346000000000000141,-11.661994083749528173
0.347000000000000142,-11.548819026759405304
0.348000000000000143,-11.438146627313198422
0.349000000000000143,-11.329749141719885230
0.350000000000000144,-11.223395947636731762
0.351000000000000145,-11.118854805315612211
0.352000000000000146,-11.015893049863580089
0.353000000000000147,-10.914278713924366215
0.354000000000000148,-10.813781580560522855
0.355000000000000149,-10.714174166458287019
0.356000000000000150,-10.615232635890574642
0.357000000000000151,-10.516737646157576336
0.358000000000000151,-10.418475125481618804
0.359000000000000152,-10.320236984563326388
0.360000000000000153,-10.221821763211895728
0.361000000000000154,-10.123035213643564845
0.362000000000000155,-10.023690822201428929
0.363000000000000156,-9.923610271387177661
0.364000000000000157,-9.822623844212278854
0.365000000000000158,-9.720570772975104745
0.366000000000000159,-9.617299534650245008
0.367000000000000159,-9.512668095140744740
0.368000000000000160,-9.406544104692661890
0.369000000000000161,-9.298805046805380670
0.370000000000000162,-9.189338342992680708
0.371000000000000163,-9.078041415758828947
0.372000000000000164,-8.964821712151602284
0.373000000000000165,-8.849596690243107133
0.374000000000000166,-8.732293770867384453
0.375000000000000167,-8.612850256915223213
0.376000000000000167,-8.491213222449747633
0.377000000000000168,-8.367339373863226015
0.378000000000000169,-8.241194885246780899
0.379000000000000170,-8.112755210090728752
0.380000000000000171,-7.982004871374636323
0.381000000000000172,-7.848937232044660206
0.382000000000000173,-7.713554247809820019
0.383000000000000174,-7.575866204121666669
0.384000000000000175,-7.435891439131348868
0.385000000000000175,-7.293656054346863371
0.386000000000000176,-7.149193614640454442
0.387000000000000177,-7.002544839182543335
0.388000000000000178,-6.853757284804958161
0.389000000000000179,-6.702885023221891281
0.390000000000000180,-6.549988313463758871
0.391000000000000181,-6.395133270805462011
0.392000000000000182,-6.238391533398754518
0.393000000000000183,-6.079839927746292894
0.394000000000000183,-5.919560134085402936
0.395000000000000184,-5.757638352680397809
0.396000000000000185,-5.594164971954943333
0.397000000000000186,-5.429234239330627432
0.398000000000000187,-5.262943935573757059
0.399000000000000188,-5.095395053390429752
0.400000000000000189,-4.926691480950225355
0.401000000000000190,-4.756939690960247269
0.402000000000000191,-4.586248435856195904
0.403000000000000191,-4.414728449622363549
0.404000000000000192,-4.242492156701632489
0.405000000000000193,-4.069653388406484495
0.406000000000000194,-3.896327107194962114
0.407000000000000195,-3.722629139130405829
0.408000000000000196,-3.548675914800439646
0.409000000000000197,-3.374584218930158475
0.410000000000000198,-3.200470948885572930
0.411000000000000199,-3.026452882226557506
0.412000000000000199,-2.852646453433941520
0.413000000000000200,-2.679167539902990391
0.414000000000000201,-2.506131257264441192
0.415000000000000202,-2.333651764065603373
0.416000000000000203,-2.161842075817500319
0.417000000000000204,-1.990813888388113906
0.418000000000000205,-1.820677410699312215
0.419000000000000206,-1.651541206662848094
0.420000000000000207,-1.483512046270668350
0.421000000000000207,-1.316694765737057793
0.422000000000000208,-1.151192136572137148
0.423000000000000209,-0.987104743451820310
0.424000000000000210,-0.824530870734467181
0.425000000000000211,-0.663566397462120205
0.426000000000000212,-0.504304700672677408
0.427000000000000213,-0.346836566838983562
0.428000000000000214,-0.191250111242025678
0.429000000000000214,-0.037630705076991643
0.430000000000000215,0.113939089915598757
0.431000000000000216,0.263379579507454553
0.432000000000000217,0.410613987947937020
0.433000000000000218,0.555568502060111657
0.434000000000000219,0.698172308693842947
0.435000000000000220,0.838357625764711734
0.436000000000000221,0.976059727109399589
0.437000000000000222,1.111216961389207336
0.438000000000000222,1.243770765273829459
0.439000000000000223,1.373665671137357602
0.440000000000000224,1.500849309497890527
0.441000000000000225,1.625272406430813277
0.442000000000000226,1.746888776183948222
0.443000000000000227,1.865655309221132097
0.444000000000000228,1.981531955917697374
0.445000000000000229,2.094481706128823895
0.446000000000000230,2.204470564848269643
0.447000000000000230,2.311467524171609167
0.448000000000000231,2.415444531774189496
0.449000000000000232,2.516376456109987281
0.450000000000000233,2.614241048533340717
0.451000000000000234,2.709018902540937024
0.452000000000000235,2.800693410326917654
0.453000000000000236,2.889250716839208977
0.454000000000000237,2.974679671520006785
0.455000000000000238,3.056971777908823018
0.456000000000000238,3.136121141280830305
0.457000000000000239,3.212124414488671142
0.458000000000000240,3.284980742170075185
0.459000000000000241,3.354691703479002918
0.460000000000000242,3.421261253492184462
0.461000000000000243,3.484695663438123425
0.462000000000000244,3.545003459890009090
0.463000000000000245,3.602195363059021993
0.464000000000000246,3.656284224319068077
0.465000000000000246,3.707284963088844254
0.466000000000000247,3.755214503192147557
0.467000000000000248,3.800091708812097124
0.468000000000000249,3.841937320149914292
0.469000000000000250,3.880773888894096579
0.470000000000000251,3.916625713600809355
0.471000000000000252,3.949518775081676925
0.472000000000000253,3.979480671890220922
0.473000000000000254,4.006540555993872488
0.474000000000000254,4.030729068713770680
0.475000000000000255,4.052078277010167540
0.476000000000000256,4.070621610187089345
0.477000000000000257,4.086393797085465351
0.478000000000000258,4.099430803830054870
0.479000000000000259,4.109769772191421033
0.480000000000000260,4.117448958620237853
0.481000000000000261,4.122507674007661826
0.482000000000000262,4.124986224221536268
0.483000000000000262,4.124925851465013338
0.484000000000000263,4.122368676500370199
0.485000000000000264,4.117357641777870114
0.486000000000000265,4.109936455505851072
0.487000000000000266,4.100149536695569807
0.488000000000000267,4.088041961211124509
0.489000000000000268,4.073659408851770358
0.490000000000000269,4.057048111491558195
0.491000000000000270,4.038254802298114399
0.492000000000000270,4.017326666050215600
0.493000000000000271,3.994311290571018080
0.494000000000000272,3.969256619291827271
0.495000000000000273,3.942210904958565187
0.496000000000000274,3.913222664491443403
0.497000000000000275,3.882340635005992802
0.498000000000000276,3.849613731001572781
0.499000000000000277,3.815091002722017066
0.500000000000000222,3.778821595690724511
0.501000000000000334,3.740854711421421452
0.502000000000000224,3.701239569303680810
0.503000000000000336,3.660025369661137340
0.504000000000000226,3.617261257978776623
0.505000000000000338,3.572996290294191191
0.506000000000000227,3.527279399746699795
0.507000000000000339,3.480159364276708800
0.508000000000000229,3.431684775466918413
0.509000000000000341,3.381904008515369320
0.510000000000000231,3.330865193330119212
0.511000000000000343,3.278616186733501969
0.512000000000000233,3.225204545763980413
0.513000000000000345,3.170677502061873820
0.514000000000000234,3.115081937325398620
0.515000000000000346,3.058464359821958745
0.516000000000000236,3.000870881939754486
0.517000000000000348,2.942347198763381133
0.518000000000000238,2.882938567657500339
0.519000000000000350,2.822689788841131975
0.520000000000000240,2.761645186935794971
0.521000000000000352,2.699848593469267310
0.522000000000000242,2.637343330317393431
0.523000000000000353,2.574172194065023955
0.524000000000000243,2.510377441268069720
0.525000000000000355,2.446000774597242078
0.526000000000000245,2.381083329844926322
0.527000000000000357,2.315665663775541727
0.528000000000000247,2.249787742800476664
0.529000000000000359,2.183488932457843923
0.530000000000000249,2.116807987677833403
0.531000000000000361,2.049783043813921957
0.532000000000000250,1.982451608420681355
0.533000000000000362,1.914850553758304041
0.534000000000000252,1.847016110004943146
0.535000000000000364,1.778983859156673120
0.536000000000000254,1.710788729596678603
0.537000000000000366,1.642464991313546507
0.538000000000000256,1.574046251750327752
0.539000000000000368,1.505565452264799875
0.540000000000000258,1.437054865182665564
0.541000000000000369,1.368546091424475808
0.542000000000000259,1.300070058688500785
0.543000000000000371,1.231657020170635386
0.544000000000000261,1.163336553803786311
0.545000000000000373,1.095137561998638098
0.546000000000000263,1.027088271868480174
0.547000000000000375,0.959216235920283489
0.548000000000000265,0.891548333195623544
0.549000000000000377,0.824110770843823559
0.550000000000000266,0.756929086111508331
0.551000000000000378,0.690028148731591573
0.552000000000000268,0.623432163696220898
0.553000000000000380,0.557164674397530368
0.554000000000000270,0.491248566121080199
0.555000000000000382,0.425706069876479354
0.556000000000000272,0.360558766550679644
0.557000000000000384,0.295827591369071385
0.558000000000000274,0.231532838650300471
0.559000000000000385,0.167694166840695713
0.560000000000000275,0.104330603814810324
0.561000000000000387,0.041460552428460841
0.562000000000000277,-0.020898203688451876
0.563000000000000389,-0.082728494112519702
0.564000000000000279,-0.144013755392814996
0.565000000000000391,-0.204738024614874226
0.566000000000000281,-0.264885932774079513
0.567000000000000393,-0.324442697970447669
0.568000000000000282,-0.383394118435639253
0.569000000000000394,-0.441726565403571858
0.570000000000000284,-0.499426975834776077
0.571000000000000396,-0.556482845005490834
0.572000000000000286,-0.612882218970957626
0.573000000000000398,-0.668613686913171024
0.574000000000000288,-0.723666373382226169
0.575000000000000400,-0.778029930440865991
0.576000000000000290,-0.831694529720709452
0.577000000000000401,-0.884650854399333886
0.578000000000000291,-0.936890091106164058
0.579000000000000403,-0.988403921765619975
0.580000000000000293,-1.039184515385133345
0.581000000000000405,-1.089224519795983559
0.582000000000000295,-1.138517053353808706
0.583000000000000407,-1.187055696606493349
0.584000000000000297,-1.234834483935673077
0.585000000000000409,-1.281847895179060615
0.586000000000000298,-1.328090847239402184
0.587000000000000410,-1.373558685686740777
0.588000000000000300,-1.418247176359395789
0.589000000000000412,-1.462152496969812532
0.590000000000000302,-1.505271228720309162
0.591000000000000414,-1.547600347934371845
0.592000000000000304,-1.589137217708192384
0.593000000000000416,-1.629879579587531158
0.594000000000000306,-1.669825545274355338
0.595000000000000417,-1.708973588367865615
0.596000000000000307,-1.747322536143887550
0.597000000000000419,-1.784871561376964566
0.598000000000000309,-1.821620174208821386
0.599000000000000421,-1.857568214066904533
0.600000000000000311,-1.892715841636567475
0.601000000000000423,-1.927063530890248400
0.602000000000000313,-1.960612061176606691
0.603000000000000425,-1.993362509372991864
0.604000000000000314,-2.025316242103653686
0.605000000000000426,-2.056474908026796555
0.606000000000000316,-2.086840430192675289
0.607000000000000428,-2.116414998475362630
0.608000000000000318,-2.145201062080330345
0.609000000000000430,-2.173201322130020152
0.610000000000000320,-2.200418724329255227
0.611000000000000432,-2.226856451712572849
0.612000000000000322,-2.252517917474931686
0.613000000000000433,-2.277406757887619815
0.614000000000000323,-2.301526825300730827
0.615000000000000435,-2.324882181233621559
0.616000000000000325,-2.347477089554510510
0.617000000000000437,-2.369316009750580765
0.618000000000000327,-2.390403590289367664
0.619000000000000439,-2.410744662072580979
0.620000000000000329,-2.430344231983107672
0.621000000000000441,-2.449207476525962157
0.622000000000000330,-2.467339735563863989
0.623000000000000442,-2.484746506148040712
0.624000000000000332,-2.501433436444612912
0.625000000000000444,-2.517406319757198752
0.626000000000000334,-2.532671088645813917
0.627000000000000446,-2.547233809142527505
0.628000000000000336,-2.561100675063914256
0.629000000000000448,-2.574278002420514966
0.630000000000000338,-2.586772223923219371
0.631000000000000449,-2.598589883586734040
0.632000000000000339,-2.609737631429871918
0.633000000000000451,-2.620222218272625803
0.634000000000000341,-2.630050490629753490
0.635000000000000453,-2.639229385700770258
0.636000000000000343,-2.647765926455773133
0.637000000000000455,-2.655667216817073850
0.638000000000000345,-2.662940436935901989
0.639000000000000457,-2.669592838564013526
0.640000000000000346,-2.675631740519500035
0.641000000000000458,-2.681064524246418834
0.642000000000000348,-2.685898629467540211
0.643000000000000460,-2.690141549929712994
0.644000000000000350,-2.693800829241118855
0.645000000000000462,-2.696884056799783824
0.646000000000000352,-2.699398863812590754
0.647000000000000464,-2.701352919404136799
0.648000000000000353,-2.702753926814539298
0.649000000000000465,-2.703609619685503951
0.650000000000000355,-2.703927758433784412
0.651000000000000467,-2.703716126711165124
0.652000000000000357,-2.702982527950194225
0.653000000000000469,-2.701734781994608703
0.654000000000000359,-2.699980721813765250
0.655000000000000471,-2.697728190299951923
0.656000000000000361,-2.694985037147745732
0.657000000000000473,-2.691759115814440939
0.658000000000000362,-2.688058280560572388
0.659000000000000474,-2.683890383569531135
0.660000000000000364,-2.679263272145315344
0.661000000000000476,-2.674184785987375967
0.662000000000000366,-2.668662754541572646
0.663000000000000478,-2.662704994426161598
