# AlFCC100UCD_CS-66579-AC
# h[nm],U(h)[kJ/mol]
0.149999999999999994,143.386844317458468367
0.150999999999999995,140.271635644893052586
0.151999999999999996,136.000305975138928716
0.152999999999999997,131.539835085739099441
0.153999999999999998,127.287631469679809015
0.154999999999999999,123.345101025277358531
0.156000000000000000,119.678886368110767080
0.157000000000000001,116.210501017563842652
0.158000000000000002,112.861730938419853487
0.159000000000000002,109.573853741094495717
0.160000000000000003,106.312299406610776487
0.161000000000000004,103.064011787439085310
0.162000000000000005,99.831858493227201734
0.163000000000000006,96.628537049932376135
0.164000000000000007,93.471220647631596989
0.165000000000000008,90.377452003066053976
0.166000000000000009,87.362370241118668446
0.167000000000000010,84.437132981931299014
0.168000000000000010,81.608298470766769128
0.169000000000000011,78.877909768515834799
0.170000000000000012,76.244041268094832731
0.171000000000000013,73.701605716424495540
0.172000000000000014,71.243264353585033177
0.173000000000000015,68.860326116230993421
0.174000000000000016,66.543560104013693035
0.175000000000000017,64.283876989055812601
0.176000000000000018,62.072859467932175903
0.177000000000000018,59.903139709792661449
0.178000000000000019,57.768633931653688762
0.179000000000000020,55.664651762546327518
0.180000000000000021,53.587901963698200802
0.181000000000000022,51.536417282064789447
0.182000000000000023,49.509420527991025551
0.183000000000000024,47.507152040111428448
0.184000000000000025,45.530676048709125325
0.185000000000000026,43.581680464412677622
0.186000000000000026,41.662281586541702438
0.187000000000000027,39.774842339985404749
0.188000000000000028,37.921810035619252233
0.189000000000000029,36.105577376557882019
0.190000000000000030,34.328368529761867478
0.191000000000000031,32.592150549184452757
0.192000000000000032,30.898569252433617294
0.193000000000000033,29.248907785045389573
0.194000000000000034,27.644065515306351699
0.195000000000000034,26.084554545848597229
0.196000000000000035,24.570510964010395583
0.197000000000000036,23.101717941553765456
0.198000000000000037,21.677637899668997790
0.199000000000000038,20.297451145445737808
0.200000000000000039,18.960098633840949844
0.201000000000000040,17.664326791813959261
0.202000000000000041,16.408732640180595297
0.203000000000000042,15.191807749225338497
0.204000000000000042,14.011979855039637499
0.205000000000000043,12.867651236795079939
0.206000000000000044,11.757233205131539577
0.207000000000000045,10.679176275103555938
0.208000000000000046,9.631995791953253061
0.209000000000000047,8.614292944003548058
0.210000000000000048,7.624771234863336744
0.211000000000000049,6.662248598349608919
0.212000000000000050,5.725665426028103688
0.213000000000000050,4.814088841375864902
0.214000000000000051,3.926713598770402935
0.215000000000000052,3.062860012381031005
0.216000000000000053,2.221969332111517037
0.217000000000000054,1.403596983451306457
0.218000000000000055,0.607404077718693758
0.219000000000000056,-0.166852419179778527
0.220000000000000057,-0.919330495805776082
0.221000000000000058,-1.650114547260133735
0.222000000000000058,-2.359227167292019978
0.223000000000000059,-3.046641010985376319
0.224000000000000060,-3.712290492719464652
0.225000000000000061,-4.356083118022704426
0.226000000000000062,-4.977910280922651864
0.227000000000000063,-5.577657389889054684
0.228000000000000064,-6.155213215051664299
0.229000000000000065,-6.710478376755237839
0.230000000000000066,-7.243372920488049260
0.231000000000000066,-7.753842945682704269
0.232000000000000067,-8.241866275795389996
0.233000000000000068,-8.707457174447132076
0.234000000000000069,-9.150670127323433434
0.235000000000000070,-9.571602722084335824
0.236000000000000071,-9.970397668867699181
0.237000000000000072,-10.347244012229358745
0.238000000000000073,-10.702377591720170003
0.239000000000000073,-11.036080812925662897
0.240000000000000074,-11.348681793869459966
0.241000000000000075,-11.640552953377410361
0.242000000000000076,-11.912109108491433673
0.243000000000000077,-12.163805147473080837
0.244000000000000078,-12.396133343503768387
0.245000000000000079,-12.609620372016753009
0.246000000000000080,-12.804824091822521126
0.247000000000000081,-12.982330146937062665
0.248000000000000081,-13.142748442404808884
0.249000000000000082,-13.286709543525697441
0.250000000000000111,-13.414861043839792387
0.251000000000000112,-13.527863943070411068
0.252000000000000113,-13.626389072049004625
0.253000000000000114,-13.711113597497874395
0.254000000000000115,-13.782717635483900054
0.255000000000000115,-13.841880998415362569
0.256000000000000116,-13.889280096671660303
0.257000000000000117,-13.925585012357320380
0.258000000000000118,-13.951456759277599318
0.259000000000000119,-13.967544740059437913
0.260000000000000120,-13.974484408397719548
0.261000000000000121,-13.972895141697453170
0.262000000000000122,-13.963378326912129879
0.263000000000000123,-13.946515660142816628
0.264000000000000123,-13.922867658560210913
0.265000000000000124,-13.892972381434612217
0.266000000000000125,-13.857344355500453403
0.267000000000000126,-13.816473698530989722
0.268000000000000127,-13.770825433846786368
0.269000000000000128,-13.720838987514948570
0.270000000000000129,-13.666927859204587747
0.271000000000000130,-13.609479457033836880
0.272000000000000131,-13.548855086263566605
0.273000000000000131,-13.485390081349200031
0.274000000000000132,-13.419394070643273054
0.275000000000000133,-13.351151362935073763
0.276000000000000134,-13.280921445007797033
0.277000000000000135,-13.208939579478197857
0.278000000000000136,-13.135417492346068258
0.279000000000000137,-13.060544139912815709
0.280000000000000138,-12.984486545018896209
0.281000000000000139,-12.907390692890663431
0.282000000000000139,-12.829382477269842155
0.283000000000000140,-12.750568687915402322
0.284000000000000141,-12.671038031011168101
0.285000000000000142,-12.590862174476608715
0.286000000000000143,-12.510096810656850863
0.287000000000000144,-12.428782729355406289
0.288000000000000145,-12.346946894665986605
0.289000000000000146,-12.264603519551290134
0.290000000000000147,-12.181755132606223668
0.291000000000000147,-12.098393631924045266
0.292000000000000148,-12.014501321456730665
0.293000000000000149,-11.930051925720103867
0.294000000000000150,-11.845011579139933744
0.295000000000000151,-11.759339786764945401
0.296000000000000152,-11.672990353484006931
0.297000000000000153,-11.585912279279076742
0.298000000000000154,-11.498050618418599100
0.299000000000000155,-11.409347300850672724
0.300000000000000155,-11.319741914388574244
0.301000000000000156,-11.229172446594201773
0.302000000000000157,-11.137575985557344183
0.303000000000000158,-11.044889379040364830
0.304000000000000159,-10.951049851709697691
0.305000000000000160,-10.855995580406652579
0.306000000000000161,-10.759666227622814105
0.307000000000000162,-10.662003433538359332
0.308000000000000163,-10.562951267156588386
0.309000000000000163,-10.462456637225916012
0.310000000000000164,-10.360469663780873972
0.311000000000000165,-10.256944011258386951
0.312000000000000166,-10.151837184255033009
0.313000000000000167,-10.045110787085603121
0.314000000000000168,-9.936730748384460910
0.315000000000000169,-9.826667512059355403
0.316000000000000170,-9.714896195963635961
0.317000000000000171,-9.601396719697470772
0.318000000000000171,-9.486153902983174291
0.319000000000000172,-9.369157536084317783
0.320000000000000173,-9.250402423754049863
0.321000000000000174,-9.129888404205365404
0.322000000000000175,-9.007620344596009687
0.323000000000000176,-8.883608114513732446
0.324000000000000177,-8.757866538934353073
0.325000000000000178,-8.630415332106149862
0.326000000000000179,-8.501279013790655981
0.327000000000000179,-8.370486809261153738
0.328000000000000180,-8.238072534428152238
0.329000000000000181,-8.104074467425901318
0.330000000000000182,-7.968535207954422717
0.331000000000000183,-7.831501525631543004
0.332000000000000184,-7.693024198565301397
0.333000000000000185,-7.553157843312639841
0.334000000000000186,-7.411960737343777694
0.335000000000000187,-7.269494635084265965
0.336000000000000187,-7.125824578558729527
0.337000000000000188,-6.981018703611509224
0.338000000000000189,-6.835148042630895482
0.339000000000000190,-6.688286324654621140
0.340000000000000191,-6.540509773685693418
0.341000000000000192,-6.391896906000032352
0.342000000000000193,-6.242528327178900938
0.343000000000000194,-6.092486529553370112
0.344000000000000195,-5.941855690701177473
0.345000000000000195,-5.790721473592151725
0.346000000000000196,-5.639170828934005897
0.347000000000000197,-5.487291800227855454
0.348000000000000198,-5.335173332001483359
0.349000000000000199,-5.182905081648010004
0.350000000000000200,-5.030577235259277913
0.351000000000000201,-4.878280327805551764
0.352000000000000202,-4.726105067977595553
0.353000000000000203,-4.574142167972694573
0.354000000000000203,-4.422482178473075898
0.355000000000000204,-4.271215329034083297
0.356000000000000205,-4.120431374069258190
0.357000000000000206,-3.970219444591145397
0.358000000000000207,-3.820667905839489897
0.359000000000000208,-3.671864220903165776
0.360000000000000209,-3.523894820417878382
0.361000000000000210,-3.376844978399007768
0.362000000000000210,-3.230798694247654090
0.363000000000000211,-3.085838580947936283
0.364000000000000212,-2.942045759454947618
0.365000000000000213,-2.799499759255235087
0.366000000000000214,-2.658278425065721873
0.367000000000000215,-2.518457829621770117
0.368000000000000216,-2.380112192491508516
0.369000000000000217,-2.243313804840639580
0.370000000000000218,-2.108132960060498995
0.371000000000000218,-1.974637890161377030
0.372000000000000219,-1.842894707823686584
0.373000000000000220,-1.712967353990715536
0.374000000000000221,-1.584917550879175074
0.375000000000000222,-1.458804760276604329
0.376000000000000223,-1.334686146988852018
0.377000000000000224,-1.212616547295368719
0.378000000000000225,-1.092648442265687914
0.379000000000000226,-0.974831935786383497
0.380000000000000226,-0.859214737144823437
0.381000000000000227,-0.745842148013238448
0.382000000000000228,-0.634757053674792626
0.383000000000000229,-0.525999918331879535
0.384000000000000230,-0.419608784335710361
0.385000000000000231,-0.315619275176197589
0.386000000000000232,-0.214064602070728582
0.387000000000000233,-0.114975573991058427
0.388000000000000234,-0.018380610968234245
0.389000000000000234,0.075694239483272113
0.390000000000000235,0.167225282979869050
0.391000000000000236,0.256191156077008486
0.392000000000000237,0.342572801425159390
0.393000000000000238,0.426353440424709074
0.394000000000000239,0.507518543528817756
0.395000000000000240,0.586055798340298084
0.396000000000000241,0.661955075645792035
0.397000000000000242,0.735208393527453596
0.398000000000000242,0.805809879689087127
0.399000000000000243,0.873755732130430784
0.400000000000000244,0.939044178299971222
0.401000000000000245,1.001675432852667802
0.402000000000000246,1.061651654136060552
0.403000000000000247,1.118976899524042778
0.404000000000000248,1.173657079714045759
0.405000000000000249,1.225699912099688094
0.406000000000000250,1.275114873327089615
0.407000000000000250,1.321913151139299858
0.408000000000000251,1.366107595609544090
0.409000000000000252,1.407712669860043508
0.410000000000000253,1.446744400359703864
0.411000000000000254,1.483220326889827856
0.412000000000000255,1.517159452263698194
0.413000000000000256,1.548582191881802794
0.414000000000000257,1.577510323201229303
0.415000000000000258,1.603966935193792409
0.416000000000000258,1.627976377864250423
0.417000000000000259,1.649564211896227039
0.418000000000000260,1.668757158490218107
0.419000000000000261,1.685583049454650872
0.420000000000000262,1.700070777607638250
0.421000000000000263,1.712250247543903203
0.422000000000000264,1.722152326818284340
0.423000000000000265,1.729808797594046599
0.424000000000000266,1.735252308801250809
0.425000000000000266,1.738516328847696357
0.426000000000000267,1.739635098921937573
0.427000000000000268,1.738643586925203266
0.428000000000000269,1.735577442066442488
0.429000000000000270,1.730472950152114775
0.430000000000000271,1.723366989599752985
0.431000000000000272,1.714296988202105965
0.432000000000000273,1.703300880666187123
0.433000000000000274,1.690417066949385871
0.434000000000000274,1.675684371412552665
0.435000000000000275,1.659142002808059901
0.436000000000000276,1.640829515118620963
0.437000000000000277,1.620786769260878613
0.438000000000000278,1.599053895665891734
0.439000000000000279,1.575671257746841913
0.440000000000000280,1.550679416262619181
0.441000000000000281,1.524119094584403866
0.442000000000000282,1.496031144870584528
0.443000000000000282,1.466456515154240359
0.444000000000000283,1.435436217345600562
0.445000000000000284,1.403011296150917575
0.446000000000000285,1.369222798907715699
0.447000000000000286,1.334111746335199022
0.448000000000000287,1.297719104197545770
0.449000000000000288,1.260085755876664271
0.450000000000000289,1.221252475849960106
0.451000000000000290,1.181259904067788913
0.452000000000000290,1.140148521224273015
0.453000000000000291,1.097958624914363579
0.454000000000000292,1.054730306669236395
0.455000000000000293,1.010503429861323577
0.456000000000000294,0.965317608469660748
0.457000000000000295,0.919212186695551048
0.458000000000000296,0.872226219417874260
0.459000000000000297,0.824398453477026671
0.460000000000000298,0.775767309775636682
0.461000000000000298,0.726370866184182229
0.462000000000000299,0.676246841238677954
0.463000000000000300,0.625432578617710622
0.464000000000000301,0.573965032385383322
0.465000000000000302,0.521880752986686236
0.466000000000000303,0.469215873981216336
0.467000000000000304,0.416006099501313842
0.468000000000000305,0.362286692420086209
0.469000000000000306,0.308092463214828749
0.470000000000000306,0.253457759511178438
0.471000000000000307,0.198416456293047688
0.472000000000000308,0.143001946763477272
0.473000000000000309,0.087247133841301269
0.474000000000000310,0.031184422278649038
0.475000000000000311,-0.025154288616102340
0.476000000000000312,-0.081737611664692802
0.477000000000000313,-0.138534677930225170
0.478000000000000314,-0.195515142268083780
0.479000000000000314,-0.252649188331814600
0.480000000000000315,-0.309907533048889294
0.481000000000000316,-0.367261430581370507
0.482000000000000317,-0.424682675786302088
0.483000000000000318,-0.482143607190626433
0.484000000000000319,-0.539617109495257874
0.485000000000000320,-0.597076615622851192
0.486000000000000321,-0.654496108323660231
0.487000000000000322,-0.711850121353704512
0.488000000000000322,-0.769113740239381283
0.489000000000000323,-0.826262602642330313
0.490000000000000324,-0.883272898338437584
0.491000000000000325,-0.940121368824413883
0.492000000000000326,-0.996785306565388884
0.493000000000000327,-1.053242553896639677
0.494000000000000328,-1.109471501592468545
0.495000000000000329,-1.165451087114963258
0.496000000000000330,-1.221160792555185060
0.497000000000000330,-1.276580642279151467
0.498000000000000331,-1.331691200290701094
0.499000000000000332,-1.386473567323064815
0.500000000000000333,-1.440909377670964053
0.501000000000000334,-1.494980795774515148
0.502000000000000335,-1.548670512566233004
0.503000000000000336,-1.601961741592033972
0.504000000000000337,-1.654838214917085937
0.505000000000000338,-1.707284178826875776
0.506000000000000338,-1.759284389333853227
0.507000000000000339,-1.810824107499691138
0.508000000000000340,-1.861889094582900750
0.509000000000000341,-1.912465607021403446
0.510000000000000342,-1.962540391259404160
0.511000000000000343,-2.012100678427647171
0.512000000000000344,-2.061134178885937640
0.513000000000000345,-2.109629076636511336
0.514000000000000346,-2.157574023616798620
0.515000000000000346,-2.204958133879586946
0.516000000000000347,-2.251770977668669627
0.517000000000000348,-2.298002575397673386
0.518000000000000349,-2.343643391539595111
0.519000000000000350,-2.388684328434275361
0.520000000000000351,-2.433116720021021528
0.521000000000000352,-2.476932325503120591
0.522000000000000353,-2.520123322950930778
0.523000000000000353,-2.562682302850094018
0.524000000000000354,-2.604602261600946100
0.525000000000000355,-2.645876594975355545
0.526000000000000356,-2.686499091536653339
0.527000000000000357,-2.726463926028428020
0.528000000000000358,-2.765765652737671054
0.529000000000000359,-2.804399198837337792
0.530000000000000360,-2.842359857713664173
0.531000000000000361,-2.879643282282963845
0.532000000000000361,-2.916245478302716965
0.533000000000000362,-2.952162797681420869
0.534000000000000363,-2.987391931791659072
0.535000000000000364,-3.021929904790550125
0.536000000000000365,-3.055774066951601142
0.537000000000000366,-3.088922088011888611
0.538000000000000367,-3.121371950538248896
0.539000000000000368,-3.153121943316076425
0.540000000000000369,-3.184170654764123753
0.541000000000000369,-3.214516966378566654
0.542000000000000370,-3.244160046209474846
0.543000000000000371,-3.273099342372661535
0.544000000000000372,-3.301334576599766368
0.545000000000000373,-3.328865737829228344
0.546000000000000374,-3.355693075840843420
0.547000000000000375,-3.381817094936205415
0.548000000000000376,-3.407238547667510886
0.549000000000000377,-3.431958428616803225
0.550000000000000377,-3.455977968227852415
0.551000000000000378,-3.479298626692546748
0.552000000000000379,-3.501922087893760249
0.553000000000000380,-3.523850253406348720
0.554000000000000381,-3.545085236557997010
0.555000000000000382,-3.565629356551456741
0.556000000000000383,-3.585485132649560036
0.557000000000000384,-3.604655278424451659
0.558000000000000385,-3.623142696072218172
0.559000000000000385,-3.640950470794141580
0.560000000000000386,-3.658081865245605968
0.561000000000000387,-3.674540314053698520
0.562000000000000388,-3.690329418404366457
0.563000000000000389,-3.705452940700038944
0.564000000000000390,-3.719914799288353002
0.565000000000000391,-3.733719063262799231
0.566000000000000392,-3.746869947335790041
0.567000000000000393,-3.759371806784744585
0.568000000000000393,-3.771229132471637602
0.569000000000000394,-3.782446545936436699
0.570000000000000395,-3.793028794564789141
0.571000000000000396,-3.802980746830157521
0.572000000000000397,-3.812307387610771148
0.573000000000000398,-3.821013813581447316
0.574000000000000399,-3.829105228680425910
0.575000000000000400,-3.836586939651348782
0.576000000000000401,-3.843464351660289768
0.577000000000000401,-3.849742963987915711
0.578000000000000402,-3.855428365796619516
0.579000000000000403,-3.860526231972539080
0.580000000000000404,-3.865042319042314656
0.581000000000000405,-3.868982461164330200
0.582000000000000406,-3.872352566194267265
0.583000000000000407,-3.875158611824608634
0.584000000000000408,-3.877406641797884301
0.585000000000000409,-3.879102762193203269
0.586000000000000409,-3.880253137785754980
0.587000000000000410,-3.880863988478904680
0.588000000000000411,-3.880941585808314276
0.589000000000000412,-3.880492249517811132
0.590000000000000413,-3.879522344206320916
0.591000000000000414,-3.878038276045486121
0.592000000000000415,-3.876046489567399167
0.593000000000000416,-3.873553464521811485
0.594000000000000417,-3.870565712802358060
0.595000000000000417,-3.867089775441114430
0.596000000000000418,-3.863132219670847967
0.597000000000000419,-3.858699636054444770
0.598000000000000420,-3.853798635680680373
0.599000000000000421,-3.848435847425841327
0.600000000000000422,-3.842617915280380547
0.601000000000000423,-3.836351495739974915
0.602000000000000424,-3.829643255260267942
0.603000000000000425,-3.822499867774592275
0.604000000000000425,-3.814928012273866020
0.605000000000000426,-3.806934370448021188
0.606000000000000427,-3.798525624388183530
0.607000000000000428,-3.789708454348764910
0.608000000000000429,-3.780489536568871323
0.609000000000000430,-3.770875541152068244
0.610000000000000431,-3.760873130003894005
0.611000000000000432,-3.750488954826208587
0.612000000000000433,-3.739729655167674416
0.613000000000000433,-3.728601856529573322
