# AlFCC100UCD_CS-59559-AC
# h[nm],U(h)[kJ/mol]
0.200000000000000011,116.202240404319169897
0.201000000000000012,107.534007279404619339
0.202000000000000013,102.676068888201456275
0.203000000000000014,99.544193792918079566
0.204000000000000015,96.972286853729045220
0.205000000000000016,94.373993975354295571
0.206000000000000016,91.512982931308641810
0.207000000000000017,88.350531148298983908
0.208000000000000018,84.947386338805813466
0.209000000000000019,81.403123870109013183
0.210000000000000020,77.820898318588589859
0.211000000000000021,74.288955877254835514
0.212000000000000022,70.872831746815350584
0.213000000000000023,67.614026951178161084
0.214000000000000024,64.532314075400108777
0.215000000000000024,61.629792345550825416
0.216000000000000025,58.895498892682780934
0.217000000000000026,56.309860363321988075
0.218000000000000027,53.848594039253406152
0.219000000000000028,51.485882844193156416
0.220000000000000029,49.196785709413816789
0.221000000000000030,46.958927150551495799
0.222000000000000031,44.753554731174133963
0.223000000000000032,42.566072808749957801
0.224000000000000032,40.386164507750244468
0.225000000000000033,38.207607556416398609
0.226000000000000034,36.027877839183815922
0.227000000000000035,33.847620223169130327
0.228000000000000036,31.670051358776440509
0.229000000000000037,29.500344945013448950
0.230000000000000038,27.345037089856798929
0.231000000000000039,25.211478232170101421
0.232000000000000040,23.107348735373797410
0.233000000000000040,21.040247673788986305
0.234000000000000041,19.017358378348447445
0.235000000000000042,17.045189807777873625
0.236000000000000043,15.129389562256397639
0.237000000000000044,13.274622155080766817
0.238000000000000045,11.484504810288955312
0.239000000000000046,9.761592384047112603
0.240000000000000047,8.107402859029402720
0.241000000000000048,6.522475100029747175
0.242000000000000048,5.006451073051719547
0.243000000000000049,3.558175426611757786
0.244000000000000050,2.175806138625402841
0.245000000000000051,0.856930786674092948
0.246000000000000052,-0.401316140839453994
0.247000000000000053,-1.602138643028152343
0.248000000000000054,-2.748970283403015191
0.249000000000000055,-3.845373199129794362
0.250000000000000056,-4.894946656399761231
0.251000000000000056,-5.901246204817585550
0.252000000000000057,-6.867714002502457227
0.253000000000000058,-7.797620479628173840
0.254000000000000059,-8.694017177051822642
0.255000000000000060,-9.559700332839970116
0.256000000000000061,-10.397184586463568579
0.257000000000000062,-11.208686021380602327
0.258000000000000063,-11.996113664779919361
0.259000000000000064,-12.761068501703705991
0.260000000000000064,-13.504849033214938459
0.261000000000000065,-14.228462408784324111
0.262000000000000066,-14.932640186211154187
0.263000000000000067,-15.617857813276227574
0.264000000000000068,-16.284356979633066942
0.265000000000000069,-16.932170051402689381
0.266000000000000070,-17.561145871301924615
0.267000000000000071,-18.170976281163849109
0.268000000000000071,-18.761222799110136350
0.269000000000000072,-19.331342958543778821
0.270000000000000073,-19.880715889050261325
0.271000000000000074,-20.408666789063332203
0.272000000000000075,-20.914490005897306446
0.273000000000000076,-21.397470499845720582
0.274000000000000077,-21.856903525091173179
0.275000000000000078,-22.292112410930592148
0.276000000000000079,-22.702464372215107602
0.277000000000000079,-23.087384317974205317
0.278000000000000080,-23.446366662074090925
0.279000000000000081,-23.778985169664707655
0.280000000000000082,-24.084900898363535759
0.281000000000000083,-24.363868313915386210
0.282000000000000084,-24.615739676790560964
0.283000000000000085,-24.840467809187568804
0.284000000000000086,-25.038107361547240259
0.285000000000000087,-25.208814704313798671
0.286000000000000087,-25.352846574643788102
0.287000000000000088,-25.470557609394990806
0.288000000000000089,-25.562396895343120207
0.289000000000000090,-25.628903665471636231
0.290000000000000091,-25.670702266634247479
0.291000000000000092,-25.688496519159240705
0.292000000000000093,-25.683063583279199804
0.293000000000000094,-25.655247440842696705
0.294000000000000095,-25.605952093783635348
0.295000000000000095,-25.536134573458760144
0.296000000000000096,-25.446797847361040112
0.297000000000000097,-25.338983702006952825
0.298000000000000098,-25.213765673088673225
0.299000000000000099,-25.072242086374576076
0.300000000000000100,-24.915529265410590654
0.301000000000000101,-24.744754954888062315
0.302000000000000102,-24.561052001653269627
0.303000000000000103,-24.365552328780669455
0.304000000000000103,-24.159381231948501068
0.305000000000000104,-23.943652021563455179
0.306000000000000105,-23.719461028696052551
0.307000000000000106,-23.487882987916059108
0.308000000000000107,-23.249966805561999905
0.309000000000000108,-23.006731717835432249
0.310000000000000109,-22.759163839371495897
0.311000000000000110,-22.508213099593557871
0.312000000000000111,-22.254790561194052856
0.313000000000000111,-21.999766112483342795
0.314000000000000112,-21.743966523093018139
0.315000000000000113,-21.488173850591078207
0.316000000000000114,-21.233124183945111696
0.317000000000000115,-20.979506708432328566
0.318000000000000116,-20.727963075524542091
0.319000000000000117,-20.479087060448740942
0.320000000000000118,-20.233424489520011491
0.321000000000000119,-19.991473418943456863
0.322000000000000119,-19.753684546565146718
0.323000000000000120,-19.520461838000777277
0.324000000000000121,-19.292163348666125700
0.325000000000000122,-19.069102223459076129
0.326000000000000123,-18.851547856181888108
0.327000000000000124,-18.639727191229646053
0.328000000000000125,-18.433826150593127124
0.329000000000000126,-18.233991169816302857
0.330000000000000127,-18.040330827199639430
0.331000000000000127,-17.852917551239723792
0.332000000000000128,-17.671789392029978671
0.333000000000000129,-17.496951843111006042
0.334000000000000130,-17.328379701040038441
0.335000000000000131,-17.166018950743019644
0.336000000000000132,-17.009788665509198324
0.337000000000000133,-16.859582911284313411
0.338000000000000134,-16.715272645706580334
0.339000000000000135,-16.576707603105976574
0.340000000000000135,-16.443718157448000028
0.341000000000000136,-16.316117155943313577
0.342000000000000137,-16.193701716763378329
0.343000000000000138,-16.076254984994914565
0.344000000000000139,-15.963547841632358626
0.345000000000000140,-15.855340561044959813
0.346000000000000141,-15.751384412962456949
0.347000000000000142,-15.651423205600170974
0.348000000000000143,-15.555194767090037899
0.349000000000000143,-15.462432362897487792
0.350000000000000144,-15.372866047386704480
0.351000000000000145,-15.286223948146982821
0.352000000000000146,-15.202233482112953666
0.353000000000000147,-15.120622502899792039
0.354000000000000148,-15.041120379133985807
0.355000000000000149,-14.963459003889553856
0.356000000000000150,-14.887373735641528327
0.357000000000000151,-14.812604271422468827
0.358000000000000151,-14.738895453115844703
0.359000000000000152,-14.665998008042729239
0.360000000000000153,-14.593669225197412942
0.361000000000000154,-14.521673568662857079
0.362000000000000155,-14.449783229891540515
0.363000000000000156,-14.377778620670692789
0.364000000000000157,-14.305448808705179431
0.365000000000000158,-14.232591897847740370
0.366000000000000159,-14.159015355085083243
0.367000000000000159,-14.084536286451832865
0.368000000000000160,-14.008981664092985397
0.369000000000000161,-13.932188506730060595
0.370000000000000162,-13.854004015808666139
0.371000000000000163,-13.774285669615901284
0.372000000000000164,-13.692901277655579406
0.373000000000000165,-13.609728997560356589
0.374000000000000166,-13.524657316800595908
0.375000000000000167,-13.437585001423958175
0.376000000000000167,-13.348421014026026654
0.377000000000000168,-13.257084403112347815
0.378000000000000169,-13.163504165966841697
0.379000000000000170,-13.067619087091211227
0.380000000000000171,-12.969377554225122395
0.381000000000000172,-12.868737353898737297
0.382000000000000173,-12.765665448407412796
0.383000000000000174,-12.660137736034752010
0.384000000000000175,-12.552138796283569988
0.385000000000000175,-12.441661621806865412
0.386000000000000176,-12.328707338661782700
0.387000000000000177,-12.213284916439599570
0.388000000000000178,-12.095410869754791960
0.389000000000000179,-11.975108952505379989
0.390000000000000180,-11.852409846246779068
0.391000000000000181,-11.727350843951331427
0.392000000000000182,-11.599975530356621434
0.393000000000000183,-11.470333460037084095
0.394000000000000183,-11.338479834266500745
0.395000000000000184,-11.204475177672694741
0.396000000000000185,-11.068385015621077017
0.397000000000000186,-10.930279553200966447
0.398000000000000187,-10.790233356626620420
0.399000000000000188,-10.648325037805598470
0.400000000000000189,-10.504636942769035812
0.401000000000000190,-10.359254844602260093
0.402000000000000191,-10.212267641460439194
0.403000000000000191,-10.063767060201382009
0.404000000000000192,-9.913847366118009319
0.405000000000000193,-9.762605079204465852
0.406000000000000194,-9.610138697344208225
0.407000000000000195,-9.456548426764255666
0.408000000000000196,-9.301935920057658791
0.409000000000000197,-9.146404022036568549
0.410000000000000198,-8.990056523640220121
0.411000000000000199,-8.832997924086033237
0.412000000000000199,-8.675333201418105489
0.413000000000000200,-8.517167591575304897
0.414000000000000201,-8.358606376070625288
0.415000000000000202,-8.199754678345119174
0.416000000000000203,-8.040717268833212472
0.417000000000000204,-7.881598378750711120
0.418000000000000205,-7.722501522594069634
0.419000000000000206,-7.563529329317508321
0.420000000000000207,-7.404783382134155545
0.421000000000000207,-7.246364066869579901
0.422000000000000208,-7.088370428777838406
0.423000000000000209,-6.930900037715405304
0.424000000000000210,-6.774048861553208845
0.425000000000000211,-6.617911147694177210
0.426000000000000212,-6.462579312551805621
0.427000000000000213,-6.308143838834265438
0.428000000000000214,-6.154693180469417157
0.429000000000000214,-6.002313674996993420
0.430000000000000215,-5.851089463247050482
0.431000000000000216,-5.701102416117312721
0.432000000000000217,-5.552432068255893860
0.433000000000000218,-5.405155558451559372
0.434000000000000219,-5.259347576529526336
0.435000000000000220,-5.115080316547556016
0.436000000000000221,-4.972423436084602244
0.437000000000000222,-4.831444021412480971
0.438000000000000222,-4.692206558339882427
0.439000000000000223,-4.554772908517390917
0.440000000000000224,-4.419202290992033433
0.441000000000000225,-4.285551268800483093
0.442000000000000226,-4.153873740391079039
0.443000000000000227,-4.024220935665757892
0.444000000000000228,-3.896641416435346450
0.445000000000000229,-3.771181081083311515
0.446000000000000230,-3.647883173235933363
0.447000000000000230,-3.526788294239386889
0.448000000000000231,-3.407934419247477642
0.449000000000000232,-3.291356916727027571
0.450000000000000233,-3.177088571191506450
0.451000000000000234,-3.065159608977244154
0.452000000000000235,-2.955597726880563325
0.453000000000000236,-2.848428123478115026
0.454000000000000237,-2.743673532957309646
0.455000000000000238,-2.641354261287562455
0.456000000000000238,-2.541488224568121179
0.457000000000000239,-2.444090989392206481
0.458000000000000240,-2.349175815072451101
0.459000000000000241,-2.256753697576546092
0.460000000000000242,-2.166833415027464405
0.461000000000000243,-2.079421574626692859
0.462000000000000244,-1.994522660864169072
0.463000000000000245,-1.912139084882855000
0.464000000000000246,-1.832271234871101218
0.465000000000000246,-1.754917527360268181
0.466000000000000247,-1.680074459309937041
0.467000000000000248,-1.607736660867527423
0.468000000000000249,-1.537896948693983967
0.469000000000000250,-1.470546379751374921
0.470000000000000251,-1.405674305453021633
0.471000000000000252,-1.343268426080902689
0.472000000000000253,-1.283314845379771585
0.473000000000000254,-1.225798125241241987
0.474000000000000254,-1.170701340395637446
0.475000000000000255,-1.118006133033317306
0.476000000000000256,-1.067692767281175348
0.477000000000000257,-1.019740183464084238
0.478000000000000258,-0.974126052084685945
0.479000000000000259,-0.930826827458742123
0.480000000000000260,-0.889817800946990589
0.481000000000000261,-0.851073153727729848
0.482000000000000262,-0.814566009058148355
0.483000000000000262,-0.780268483975370075
0.484000000000000263,-0.748151740391746811
0.485000000000000264,-0.718186035541810930
0.486000000000000265,-0.690340771741601800
0.487000000000000266,-0.664584545423764550
0.488000000000000267,-0.640885195414736764
0.489000000000000268,-0.619209850423321106
0.490000000000000269,-0.599524975712075192
0.491000000000000270,-0.581796418926081693
0.492000000000000270,-0.565989455055607715
0.493000000000000271,-0.552068830511927899
0.494000000000000272,-0.539998806297461553
0.495000000000000273,-0.529743200253952273
0.496000000000000274,-0.521265428374151574
0.497000000000000275,-0.514528545164597118
0.498000000000000276,-0.509495283049135494
0.499000000000000277,-0.506128090804301212
0.500000000000000222,-0.504389171019825167
0.501000000000000334,-0.504240516578782771
0.502000000000000224,-0.505643946153884971
0.503000000000000336,-0.508561138717505079
0.504000000000000226,-0.512953667064818930
0.505000000000000338,-0.518783030350509655
0.506000000000000227,-0.526010685640991515
0.507000000000000339,-0.534598078485084449
0.508000000000000229,-0.544506672507396483
0.509000000000000341,-0.555697978029738637
0.510000000000000231,-0.568133579726743720
0.511000000000000343,-0.581775163323000610
0.512000000000000233,-0.596584541339757246
0.513000000000000345,-0.612523677900233543
0.514000000000000234,-0.629554712603211386
0.515000000000000346,-0.647639983475380876
0.516000000000000236,-0.666742049013513083
0.517000000000000348,-0.686823709328355347
0.518000000000000238,-0.707848026402340458
0.519000000000000350,-0.729778343474211666
0.520000000000000240,-0.752578303563648077
0.521000000000000352,-0.776211867149886325
0.522000000000000242,-0.800643329018252858
0.523000000000000353,-0.825837334289459712
0.524000000000000243,-0.851758893646129223
0.525000000000000355,-0.878373397772026498
0.526000000000000245,-0.905646631019115467
0.527000000000000357,-0.933544784318239174
0.528000000000000247,-0.962034467349066391
0.529000000000000359,-0.991082719985325489
0.530000000000000249,-1.020657023031361188
0.531000000000000361,-1.050725308266218905
0.532000000000000250,-1.081255967811426411
0.533000000000000362,-1.112217862838926097
0.534000000000000252,-1.143580331635164926
0.535000000000000364,-1.175313197038170054
0.536000000000000254,-1.207386773263318114
0.537000000000000366,-1.239771872134613151
0.538000000000000256,-1.272439808737301226
0.539000000000000368,-1.305362406508240092
0.540000000000000258,-1.338512001779851079
0.541000000000000369,-1.371861447793879751
0.542000000000000259,-1.405384118200462051
0.543000000000000371,-1.439053910058545771
0.544000000000000261,-1.472845246352994852
0.545000000000000373,-1.506733078043885676
0.546000000000000263,-1.540692885663147438
0.547000000000000375,-1.574700680473800185
0.548000000000000265,-1.608733005206352429
0.549000000000000377,-1.642766934387414723
0.550000000000000266,-1.676780074274616839
0.551000000000000378,-1.710750562412463482
0.552000000000000268,-1.744657066822882907
0.553000000000000380,-1.778478784844509830
0.554000000000000270,-1.812195441634129267
0.555000000000000382,-1.845787288343841315
0.556000000000000272,-1.879235099986885205
0.557000000000000384,-1.912520173005139767
0.558000000000000274,-1.945624322550932206
0.559000000000000385,-1.978529879495521060
0.560000000000000275,-2.011219687176413196
0.561000000000000387,-2.043677097895497230
0.562000000000000277,-2.075885969179476653
0.563000000000000389,-2.107830659814224905
0.564000000000000279,-2.139496025663995660
0.565000000000000391,-2.170867415286585000
0.566000000000000281,-2.201930665354846273
0.567000000000000393,-2.232672095895216646
0.568000000000000282,-2.263078505353148806
0.569000000000000394,-2.293137165495533036
0.570000000000000284,-2.322835816159490641
0.571000000000000396,-2.352162659857261140
0.572000000000000286,-2.381106356245987321
0.573000000000000398,-2.409656016471509954
0.574000000000000288,-2.437801197394656949
0.575000000000000400,-2.465531895708647170
0.576000000000000290,-2.492838541955458176
0.577000000000000401,-2.519711994449452153
0.578000000000000291,-2.546143533115619473
0.579000000000000403,-2.572124853250145726
0.580000000000000293,-2.597648059210357019
0.581000000000000405,-2.622705658041255550
0.582000000000000295,-2.647290553045155370
0.583000000000000407,-2.671396037301316362
0.584000000000000297,-2.695015787141576080
0.585000000000000409,-2.718143855588475155
0.586000000000000298,-2.740774665761465112
0.587000000000000410,-2.762903004257234674
0.588000000000000300,-2.784524014509403678
0.589000000000000412,-2.805633190133156152
0.590000000000000302,-2.826226368259713517
0.591000000000000414,-2.846299722865812676
0.592000000000000304,-2.865849758102743561
0.593000000000000416,-2.884873301629652165
0.594000000000000306,-2.903367497955422927
0.595000000000000417,-2.921329801793437930
0.596000000000000307,-2.938757971433111127
0.597000000000000419,-2.955650062132239686
0.598000000000000309,-2.972004419533806008
0.599000000000000421,-2.987819673110697849
0.600000000000000311,-3.003094729641905936
0.601000000000000423,-3.017828766723333889
0.602000000000000313,-3.032021226316256701
0.603000000000000425,-3.045671808336551045
0.604000000000000314,-3.058780464287280232
0.605000000000000426,-3.071347390937482658
0.606000000000000316,-3.083373024049562705
0.607000000000000428,-3.094858032157717265
0.608000000000000318,-3.105803310399717354
0.609000000000000430,-3.116209974404116956
0.610000000000000320,-3.126079354234900354
0.611000000000000432,-3.135412988395576139
0.612000000000000322,-3.144212617894361017
0.613000000000000433,-3.152480180372243090
0.614000000000000323,-3.160217804295451405
0.615000000000000435,-3.167427803213807014
0.616000000000000325,-3.174112670086252308
0.617000000000000437,-3.180275071674972587
0.618000000000000327,-3.185917843009101080
0.619000000000000439,-3.191043981919217565
0.620000000000000329,-3.195656643643563832
0.621000000000000441,-3.199759135506877072
0.622000000000000330,-3.203354911672696481
0.623000000000000442,-3.206447567969845203
0.624000000000000332,-3.209040836793715989
0.625000000000000444,-3.211138582083045812
0.626000000000000334,-3.212744794372558665
0.627000000000000446,-3.213863585922010824
0.628000000000000336,-3.214499185921972035
0.629000000000000448,-3.214655935776651319
0.630000000000000338,-3.214338284463986728
0.631000000000000449,-3.213550783973246006
0.632000000000000339,-3.212298084820208288
0.633000000000000451,-3.210584931639979267
0.634000000000000341,-3.208416158857501976
0.635000000000000453,-3.205796686435746778
0.636000000000000343,-3.202731515701360276
0.637000000000000455,-3.199225725247845098
0.638000000000000345,-3.195284466915880639
0.639000000000000457,-3.190912961850715490
0.640000000000000346,-3.186116496636294926
0.641000000000000458,-3.180900419505840571
0.642000000000000348,-3.175270136628527418
0.643000000000000460,-3.169231108471890934
0.644000000000000350,-3.162788846239563245
0.645000000000000462,-3.155948908383851670
0.646000000000000352,-3.148716897192733732
0.647000000000000464,-3.141098455450725524
0.648000000000000353,-3.133099263173127369
0.649000000000000465,-3.124725034413010860
0.650000000000000355,-3.115981514140493847
0.651000000000000467,-3.106874475193520002
0.652000000000000357,-3.097409715299714428
0.653000000000000469,-3.087593054168417339
0.654000000000000359,-3.077430330652520141
0.655000000000000471,-3.066927399979121560
0.656000000000000361,-3.056090131048497138
0.657000000000000473,-3.044924403800571611
0.658000000000000362,-3.033436106648176089
0.659000000000000474,-3.021631133976327543
