# AlFCC100UCD_BSAIV10
# h[nm],U(h)[kJ/mol]
0.149999999999999994,112.675573544711369323
0.150999999999999995,108.223542619982339374
0.151999999999999996,104.432029669826718532
0.152999999999999997,100.821589305680177517
0.153999999999999998,97.225198421635795398
0.154999999999999999,93.618450570253116894
0.156000000000000000,90.029693673357883199
0.157000000000000001,86.496507295991335695
0.158000000000000002,83.047827075694428345
0.159000000000000002,79.699315733978735921
0.160000000000000003,76.454814449224116402
0.161000000000000004,73.309942146506074323
0.162000000000000005,70.255852949414673958
0.163000000000000006,67.282285520231965847
0.164000000000000007,64.379652697040143039
0.165000000000000008,61.540227218167935064
0.166000000000000009,58.758608085951308908
0.167000000000000010,56.031682759986971121
0.168000000000000010,53.358281897354899570
0.169000000000000011,50.738684528387800299
0.170000000000000012,48.174088343380027766
0.171000000000000013,45.666120276355421481
0.172000000000000014,43.216430242338987000
0.173000000000000015,40.826386510903418525
0.174000000000000016,38.496874203914771329
0.175000000000000017,36.228187602066292072
0.176000000000000018,34.020000975608816418
0.177000000000000018,31.871400228621837414
0.178000000000000019,29.780957649877461080
0.179000000000000020,27.746833598942497900
0.180000000000000021,25.766891338118369958
0.181000000000000022,23.838813952354779957
0.182000000000000023,21.960215040627264926
0.183000000000000024,20.128737397774781215
0.184000000000000025,18.342136113634026628
0.185000000000000026,16.598344342517400207
0.186000000000000026,14.895521433382924670
0.187000000000000027,13.232084182247300319
0.188000000000000028,11.606722713896404642
0.189000000000000029,10.018402968668493003
0.190000000000000030,8.466358013148933992
0.191000000000000031,6.950070460213754409
0.192000000000000032,5.469248218731179279
0.193000000000000033,4.023795635331778087
0.194000000000000034,2.613781872685854601
0.195000000000000034,1.239408117165186951
0.196000000000000035,-0.099025055654346911
0.197000000000000036,-1.401149090898629934
0.198000000000000037,-2.666556820795935145
0.199000000000000038,-3.894829195162870406
0.200000000000000039,-5.085558984261597359
0.201000000000000040,-6.238371235071555887
0.202000000000000041,-7.352940406485688918
0.203000000000000042,-8.429004226064469307
0.204000000000000042,-9.466374402604570193
0.205000000000000043,-10.464944397311692015
0.206000000000000044,-11.424694504538662088
0.207000000000000045,-12.345694523695829758
0.208000000000000046,-13.228104319875148676
0.209000000000000047,-14.072172574625586350
0.210000000000000048,-14.878234022648285872
0.211000000000000049,-15.646705457170190456
0.212000000000000050,-16.378080768367208719
0.213000000000000050,-17.072925257126776444
0.214000000000000051,-17.731869442093973532
0.215000000000000052,-18.355602552508536007
0.216000000000000053,-18.944865873759233921
0.217000000000000054,-19.500446087599961231
0.218000000000000055,-20.023168725148952518
0.219000000000000056,-20.513891828531587436
0.220000000000000057,-20.973499896605879655
0.221000000000000058,-21.402898171781302494
0.222000000000000058,-21.803007308588735924
0.223000000000000059,-22.174758450373335705
0.224000000000000060,-22.519088728213990436
0.225000000000000061,-22.836937185825142649
0.226000000000000062,-23.129241125641424759
0.227000000000000063,-23.396932864380111994
0.228000000000000064,-23.640936880960893518
0.229000000000000065,-23.862167335578696736
0.230000000000000066,-24.061525935807459575
0.231000000000000066,-24.239900123708899571
0.232000000000000067,-24.398161556877624889
0.233000000000000068,-24.537164856034053173
0.234000000000000069,-24.657746592051932311
0.235000000000000070,-24.760724486058840910
0.236000000000000071,-24.846896797373375421
0.237000000000000072,-24.917041875448468602
0.238000000000000073,-24.971917853595826386
0.239000000000000073,-25.012262464002038342
0.240000000000000074,-25.038792955354818304
0.241000000000000075,-25.052206096227578769
0.242000000000000076,-25.053178249182138870
0.243000000000000077,-25.042365502311064063
0.244000000000000078,-25.020403846627502276
0.245000000000000079,-24.987909389301279361
0.246000000000000080,-24.945478594223612134
0.247000000000000081,-24.893688542749305981
0.248000000000000081,-24.833097208709165926
0.249000000000000082,-24.764243742905893697
0.250000000000000111,-24.687648763304594013
0.251000000000000112,-24.603814648006601118
0.252000000000000113,-24.513225828859226851
0.253000000000000114,-24.416349084207656261
0.254000000000000115,-24.313633829848964041
0.255000000000000115,-24.205512407706510913
0.256000000000000116,-24.092400372116390628
0.257000000000000117,-23.974696773912885561
0.258000000000000118,-23.852784442725308622
0.259000000000000119,-23.727030268063124652
0.260000000000000120,-23.597785479876630887
0.261000000000000121,-23.465385929343959504
0.262000000000000122,-23.330152370659597239
0.263000000000000123,-23.192390744590731799
0.264000000000000123,-23.052392464531301641
0.265000000000000124,-22.910434705725442939
0.266000000000000125,-22.766780698257459647
0.267000000000000126,-22.621680024316937363
0.268000000000000127,-22.475368920151890251
0.269000000000000128,-22.328070583020455331
0.270000000000000129,-22.179995483347720864
0.271000000000000130,-22.031341682189740538
0.272000000000000131,-21.882295154005156235
0.273000000000000131,-21.733030114636346042
0.274000000000000132,-21.583709354309267070
0.275000000000000133,-21.434484575375314819
0.276000000000000134,-21.285496734438801525
0.277000000000000135,-21.136876388442914276
0.278000000000000136,-20.988744044224258545
0.279000000000000137,-20.841210510991157179
0.280000000000000138,-20.694377255135833593
0.281000000000000139,-20.548336756752497934
0.282000000000000139,-20.403172867204524721
0.283000000000000140,-20.258961167062874864
0.284000000000000141,-20.115769323723746709
0.285000000000000142,-19.973657448007454462
0.286000000000000143,-19.832678449040582080
0.287000000000000144,-19.692878386729240958
0.288000000000000145,-19.554296821144070861
0.289000000000000146,-19.416967158153727979
0.290000000000000147,-19.280916990665765809
0.291000000000000147,-19.146168434858704899
0.292000000000000148,-19.012738460818702890
0.293000000000000149,-18.880639217025496635
0.294000000000000150,-18.749878348166816977
0.295000000000000151,-18.620459305797204763
0.296000000000000152,-18.492381651393948516
0.297000000000000153,-18.365641351403233728
0.298000000000000154,-18.240231063907760500
0.299000000000000155,-18.116140416588290663
0.300000000000000155,-17.993356275691134272
0.301000000000000156,-17.871863005753390041
0.302000000000000157,-17.751642719877146703
0.303000000000000158,-17.632675520382598222
0.304000000000000159,-17.514939729707158733
0.305000000000000160,-17.398412111454444329
0.306000000000000161,-17.283068081531872906
0.307000000000000162,-17.168881909349426707
0.308000000000000163,-17.055826909084014886
0.309000000000000163,-16.943875621044597324
0.310000000000000164,-16.832999983201641925
0.311000000000000165,-16.723171492971665941
0.312000000000000166,-16.614361359372662008
0.313000000000000167,-16.506540645689657509
0.314000000000000168,-16.399680402810925983
0.315000000000000169,-16.293751793415314211
0.316000000000000170,-16.188726207208937069
0.317000000000000171,-16.084575367425625103
0.318000000000000171,-15.981271428819786351
0.319000000000000172,-15.878787067393332677
0.320000000000000173,-15.777095562109099802
0.321000000000000174,-15.676170868852896234
0.322000000000000175,-15.575987686914189112
0.323000000000000176,-15.476521518262057242
0.324000000000000177,-15.377748719898168162
0.325000000000000178,-15.279646549572333925
0.326000000000000179,-15.182193205149037141
0.327000000000000179,-15.085367857914485867
0.328000000000000180,-14.989150680114317282
0.329000000000000181,-14.893522867011531829
0.330000000000000182,-14.798466653752239353
0.331000000000000183,-14.703965327324993950
0.332000000000000184,-14.610003233895515251
0.333000000000000185,-14.516565781795222279
0.334000000000000186,-14.423639440437080239
0.335000000000000187,-14.331211735426872877
0.336000000000000187,-14.239271240132705287
0.337000000000000188,-14.147807563968617828
0.338000000000000189,-14.056811337642248105
0.339000000000000190,-13.966274195608781028
0.340000000000000191,-13.876188755966339272
0.341000000000000192,-13.786548598020720746
0.342000000000000193,-13.697348237738548704
0.343000000000000194,-13.608583101301206852
0.344000000000000195,-13.520249496962483349
0.345000000000000195,-13.432344585405648019
0.346000000000000196,-13.344866348786812438
0.347000000000000197,-13.257813558643153584
0.348000000000000198,-13.171185742836623689
0.349000000000000199,-13.084983151694965287
0.350000000000000200,-12.999206723504091343
0.351000000000000201,-12.913858049497545011
0.352000000000000202,-12.828939338480697785
0.353000000000000203,-12.744453381219560839
0.354000000000000203,-12.660403514716282558
0.355000000000000204,-12.576793586485724319
0.356000000000000205,-12.493627918940282129
0.357000000000000206,-12.410911273982659253
0.358000000000000207,-12.328648817899379608
0.359000000000000208,-12.246846086640935880
0.360000000000000209,-12.165508951567973739
0.361000000000000210,-12.084643585736216664
0.362000000000000210,-12.004256430786913512
0.363000000000000211,-11.924354164503549569
0.364000000000000212,-11.844943669089751381
0.365000000000000213,-11.766032000217865772
0.366000000000000214,-11.687626356892437229
0.367000000000000215,-11.609734052167688390
0.368000000000000216,-11.532362484753459597
0.369000000000000217,-11.455519111539132382
0.370000000000000218,-11.379211421061155463
0.371000000000000218,-11.303446907935253307
0.372000000000000219,-11.228233048270627847
0.373000000000000220,-11.153577276079897018
0.374000000000000221,-11.079486960694698183
0.375000000000000222,-11.005969385193861143
0.376000000000000223,-10.933031725847866866
0.377000000000000224,-10.860681032580361105
0.378000000000000225,-10.788924210444907459
0.379000000000000226,-10.717768002112451953
0.380000000000000226,-10.647218971362933715
0.381000000000000227,-10.577283487571852660
0.382000000000000228,-10.507967711181155579
0.383000000000000229,-10.439277580141421709
0.384000000000000230,-10.371218797310957527
0.385000000000000231,-10.303796818795913026
0.386000000000000232,-10.237016843213776696
0.387000000000000233,-10.170883801861801743
0.388000000000000234,-10.105402349770319148
0.389000000000000234,-10.040576857620406415
0.390000000000000235,-9.976411404503867431
0.391000000000000236,-9.912909771503349177
0.392000000000000237,-9.850075436069097634
0.393000000000000238,-9.787911567168968929
0.394000000000000239,-9.726421021187110938
0.395000000000000240,-9.665606338546993470
0.396000000000000241,-9.605469741033703102
0.397000000000000242,-9.546013129790402729
0.398000000000000242,-9.487238083963756452
0.399000000000000243,-9.429145859972816623
0.400000000000000244,-9.371737391376049331
0.401000000000000245,-9.315013289311242062
0.402000000000000246,-9.258973843483000010
0.403000000000000247,-9.203619023672667154
0.404000000000000248,-9.148948481746053574
0.405000000000000249,-9.094961554134133763
0.406000000000000250,-9.041657264762500645
0.407000000000000250,-8.989034328405583807
0.408000000000000251,-8.937091154441970886
0.409000000000000252,-8.885825850987691510
0.410000000000000253,-8.835236229384499040
0.411000000000000254,-8.785319809021014947
0.412000000000000255,-8.736073822464636152
0.413000000000000256,-8.687495220883025837
0.414000000000000257,-8.639580679734079283
0.415000000000000258,-8.592326604704231485
0.416000000000000258,-8.545729137875152759
0.417000000000000259,-8.499784164099564165
0.418000000000000260,-8.454487317567556559
0.419000000000000261,-8.409833988545120320
0.420000000000000262,-8.365819330267424192
0.421000000000000263,-8.322438265969847038
0.422000000000000264,-8.279685496040126935
0.423000000000000265,-8.237555505276034751
0.424000000000000266,-8.196042570233135649
0.425000000000000266,-8.155140766647946293
0.426000000000000267,-8.114843976922342605
0.427000000000000268,-8.075145897655687577
0.428000000000000269,-8.036040047211610471
0.429000000000000270,-7.997519773306964730
0.430000000000000271,-7.959578260611145595
0.431000000000000272,-7.922208538344259310
0.432000000000000273,-7.885403487863382743
0.433000000000000274,-7.849155850226604336
0.434000000000000274,-7.813458233724981383
0.435000000000000275,-7.778303121373150830
0.436000000000000276,-7.743682878349803289
0.437000000000000277,-7.709589759379619878
0.438000000000000278,-7.676015916048899435
0.439000000000000279,-7.642953404047472254
0.440000000000000280,-7.610394190329898834
0.441000000000000281,-7.578330160189477915
0.442000000000000282,-7.546753124239067745
0.443000000000000282,-7.515654825292893193
0.444000000000000283,-7.485026945144214849
0.445000000000000284,-7.454861111233928916
0.446000000000000285,-7.425148903205562867
0.447000000000000286,-7.395881859342674502
0.448000000000000287,-7.367051482884664715
0.449000000000000288,-7.338649248217774534
0.450000000000000289,-7.310666606938037049
0.451000000000000290,-7.283094993783421955
0.452000000000000290,-7.255925832432708944
0.453000000000000291,-7.229150541168861466
0.454000000000000292,-7.202760538405070356
0.455000000000000293,-7.176747248071704277
0.456000000000000294,-7.151102104862933295
0.457000000000000295,-7.125816559341780376
0.458000000000000296,-7.100882082902781001
0.459000000000000297,-7.076290172591585659
0.460000000000000298,-7.052032355781001627
0.461000000000000298,-7.028100194703313264
0.462000000000000299,-7.004485290838802669
0.463000000000000300,-6.981179289160593271
0.464000000000000301,-6.958173882236197372
0.465000000000000302,-6.935460814186205525
0.466000000000000303,-6.913031884500844271
0.467000000000000304,-6.890878951715078138
0.468000000000000305,-6.868993936943335932
0.469000000000000306,-6.847368827274874725
0.470000000000000306,-6.825995679031002794
0.471000000000000307,-6.804866620885411166
0.472000000000000308,-6.783973856849233819
0.473000000000000309,-6.763309669122139489
0.474000000000000310,-6.742866420811242101
0.475000000000000311,-6.722636558519529792
0.476000000000000312,-6.702612614805554259
0.477000000000000313,-6.682787210516337950
0.478000000000000314,-6.663153056995366974
0.479000000000000314,-6.643702958167787997
0.480000000000000315,-6.624429812504753379
0.481000000000000316,-6.605326614869177604
0.482000000000000317,-6.586386458244943398
0.483000000000000318,-6.567602535351889870
0.484000000000000319,-6.548968140148720529
0.485000000000000320,-6.530476669226247921
0.486000000000000321,-6.512121623093169553
0.487000000000000322,-6.493896607356774098
0.488000000000000322,-6.475795333800919096
0.489000000000000323,-6.457811621363663157
0.490000000000000324,-6.439939397016938294
0.491000000000000325,-6.422172696550658699
0.492000000000000326,-6.404505665263640068
0.493000000000000327,-6.386932558563784390
0.494000000000000328,-6.369447742479882990
0.495000000000000329,-6.352045694087495420
0.496000000000000330,-6.334721001851216116
0.497000000000000330,-6.317468365885810400
0.498000000000000331,-6.300282598138513102
0.499000000000000332,-6.283158622494889656
0.500000000000000333,-6.266091474810613349
0.501000000000000334,-6.249076302871455546
0.502000000000000335,-6.232108366283804379
0.503000000000000336,-6.215183036298043362
0.504000000000000337,-6.198295795566981070
0.505000000000000338,-6.181442237841626941
0.506000000000000338,-6.164618067606497220
0.507000000000000339,-6.147819099656671504
0.508000000000000340,-6.131041258618701306
0.509000000000000341,-6.114280578417575107
0.510000000000000342,-6.097533201691765825
0.511000000000000343,-6.080795379158468350
0.512000000000000344,-6.064063468931071732
0.513000000000000345,-6.047333935790801362
0.514000000000000346,-6.030603350414607711
0.515000000000000346,-6.013868388561134815
0.516000000000000347,-5.997125830216694098
0.517000000000000348,-5.980372558703174413
0.518000000000000349,-5.963605559749590945
0.519000000000000350,-5.946821920529180794
0.520000000000000351,-5.930018828663730979
0.521000000000000352,-5.913193571196898368
0.522000000000000353,-5.896343533538144221
0.523000000000000353,-5.879466198379001085
0.524000000000000354,-5.862559144583231685
0.525000000000000355,-5.845620046052465213
0.526000000000000356,-5.828646670568825350
0.527000000000000357,-5.811636878616082136
0.528000000000000358,-5.794588622180771864
0.529000000000000359,-5.777499943534669669
0.530000000000000360,-5.760368974000058095
0.531000000000000361,-5.743193932699124815
0.532000000000000361,-5.725973125288786214
0.533000000000000362,-5.708704942682191863
0.534000000000000363,-5.691387859758251899
0.535000000000000364,-5.674020434060264684
0.536000000000000365,-5.656601304484901505
0.537000000000000366,-5.639129189962681643
0.538000000000000367,-5.621602888130963649
0.539000000000000368,-5.604021274000665187
0.540000000000000369,-5.586383298617574766
0.541000000000000369,-5.568687987719417976
0.542000000000000370,-5.550934440389534430
0.543000000000000371,-5.533121827708157525
0.544000000000000372,-5.515249391402210044
0.545000000000000373,-5.497316442494449618
0.546000000000000374,-5.479322359952869981
0.547000000000000375,-5.461266589341080113
0.548000000000000376,-5.443148641470581417
0.549000000000000377,-5.424968091055587749
0.550000000000000377,-5.406724575371132602
0.551000000000000378,-5.388417792915217497
0.552000000000000379,-5.370047502075648183
0.553000000000000380,-5.351613519802165264
0.554000000000000381,-5.333115720284545169
0.555000000000000382,-5.314554033637259423
0.556000000000000383,-5.295928444591192275
0.557000000000000384,-5.277238991193083706
0.558000000000000385,-5.258485763513077060
0.559000000000000385,-5.239668902360991254
0.560000000000000386,-5.220788598011703030
0.561000000000000387,-5.201845088940133977
0.562000000000000388,-5.182838660566270406
0.563000000000000389,-5.163769644010587356
0.564000000000000390,-5.144638414860301268
0.565000000000000391,-5.125445391946799489
0.566000000000000392,-5.106191036134591243
0.567000000000000393,-5.086875849122124649
0.568000000000000393,-5.067500372254714947
0.569000000000000394,-5.048065185349964956
0.570000000000000395,-5.028570905535890034
0.571000000000000396,-5.009018186101975800
0.572000000000000397,-4.989407715363483931
0.573000000000000398,-4.969740215539147243
0.574000000000000399,-4.950016441642516085
0.575000000000000400,-4.930237180387090135
0.576000000000000401,-4.910403249105453227
0.577000000000000401,-4.890515494682551534
0.578000000000000402,-4.870574792503246542
0.579000000000000403,-4.850582045414290278
0.580000000000000404,-4.830538182700843564
0.581000000000000405,-4.810444159077618131
0.582000000000000406,-4.790300953694750952
0.583000000000000407,-4.770109569158479168
0.584000000000000408,-4.749871030566707120
0.585000000000000409,-4.729586384559489431
0.586000000000000409,-4.709256698384471918
0.587000000000000410,-4.688883058977402207
0.588000000000000411,-4.668466572057600850
0.589000000000000412,-4.648008361238540331
0.590000000000000413,-4.627509567153444969
0.591000000000000414,-4.606971346595955197
0.592000000000000415,-4.586394871675842033
0.593000000000000416,-4.565781328989713117
0.594000000000000417,-4.545131918806721849
0.595000000000000417,-4.524447854269257441
0.596000000000000418,-4.503730360608469319
0.597000000000000419,-4.482980674374759111
0.598000000000000420,-4.462200042682949785
0.599000000000000421,-4.441389722472306012
0.600000000000000422,-4.420550979781127765
0.601000000000000423,-4.399685089035987318
0.602000000000000424,-4.378793332355456869
0.603000000000000425,-4.357876998868256635
0.604000000000000425,-4.336937384045709720
0.605000000000000426,-4.315975789048462019
0.606000000000000427,-4.294993520087312611
0.607000000000000428,-4.273991887798024969
0.608000000000000429,-4.252972206630122542
