# AlFCC100UCD_PHOSPHORICACID-AC
# h[nm],U(h)[kJ/mol]
0.149999999999999994,148.796101257158113640
0.150999999999999995,146.519924781247397050
0.151999999999999996,142.448973116660852156
0.152999999999999997,138.033605797805506654
0.153999999999999998,133.848148425125856420
0.154999999999999999,130.029727908543691228
0.156000000000000000,126.526806017898792334
0.157000000000000001,123.231125477139173086
0.158000000000000002,120.040653452697625880
0.159000000000000002,116.883615777073444519
0.160000000000000003,113.722158290584985707
0.161000000000000004,110.546656530300168697
0.162000000000000005,107.366904373045898069
0.163000000000000006,104.203435721107126710
0.164000000000000007,101.080446727068562041
0.165000000000000008,98.020765509136552396
0.166000000000000009,95.042777201923826169
0.167000000000000010,92.158966038954190481
0.168000000000000010,89.375660268683034815
0.169000000000000011,86.693581912456451732
0.170000000000000012,84.108863328038481200
0.171000000000000013,81.614267525126166447
0.172000000000000014,79.200423152941851868
0.173000000000000015,76.856949997989815415
0.174000000000000016,74.573403506725199463
0.175000000000000017,72.340006907119345669
0.176000000000000018,70.148168062607268780
0.177000000000000018,67.990797043390259091
0.178000000000000019,65.862451519162974023
0.179000000000000020,63.759342348647862764
0.180000000000000021,61.679232820621201938
0.181000000000000022,59.621263262011282791
0.182000000000000023,57.585729258987178980
0.183000000000000024,55.573837362156666586
0.184000000000000025,53.587457466090029357
0.185000000000000026,51.628886478891288903
0.186000000000000026,49.700633694119169093
0.187000000000000027,47.805234596643892075
0.188000000000000028,45.945096744357194041
0.189000000000000029,44.122378878596521190
0.190000000000000030,42.338902497959864490
0.191000000000000031,40.596093728900726205
0.192000000000000032,38.894952375130415589
0.193000000000000033,37.236044454592970965
0.194000000000000034,35.619514266577503747
0.195000000000000034,34.045112005799346377
0.196000000000000035,32.512233095103361791
0.197000000000000036,31.019965691665021268
0.198000000000000037,29.567143189144115212
0.199000000000000038,28.152398954040950940
0.200000000000000039,26.774220969728986574
0.201000000000000040,25.431004494120223569
0.202000000000000041,24.121101250258970339
0.203000000000000042,22.842864051845886308
0.204000000000000042,21.594686110341779539
0.205000000000000043,20.375034572769610719
0.206000000000000044,19.182478098082047069
0.207000000000000045,18.015708495448379267
0.208000000000000046,16.873556621936209865
0.209000000000000047,15.755002872743721909
0.210000000000000048,14.659182697948832441
0.211000000000000049,13.585387649622443718
0.212000000000000050,12.533062506173795470
0.213000000000000050,11.501799041001056878
0.214000000000000051,10.491327003777366045
0.215000000000000052,9.501502868638612043
0.216000000000000053,8.532296877465041618
0.217000000000000054,7.583778871333012539
0.218000000000000055,6.656103361669998719
0.219000000000000056,5.749494246934749420
0.220000000000000057,4.864229532675469869
0.221000000000000058,4.000626364195434270
0.222000000000000058,3.159026633059338174
0.223000000000000059,2.339783372344758750
0.224000000000000060,1.543248111657594901
0.225000000000000061,0.769759322068998109
0.226000000000000062,0.019632043687605006
0.227000000000000063,-0.706851245205921797
0.228000000000000064,-1.409448488550923528
0.229000000000000065,-2.087964639757597052
0.230000000000000066,-2.742256995692129884
0.231000000000000066,-3.372239316265522202
0.232000000000000067,-3.977884784128835172
0.233000000000000068,-4.559227871484653249
0.234000000000000069,-5.116365190655523421
0.235000000000000070,-5.649455412074801508
0.236000000000000071,-6.158718338054290697
0.237000000000000072,-6.644433223310367786
0.238000000000000073,-7.106936434058051866
0.239000000000000073,-7.546618536765285157
0.240000000000000074,-7.963920905640598846
0.241000000000000075,-8.359331934825414478
0.242000000000000076,-8.733382937288274306
0.243000000000000077,-9.086643807759427816
0.244000000000000078,-9.419718521869942407
0.245000000000000079,-9.733240538121979313
0.246000000000000080,-10.027868163549674918
0.247000000000000081,-10.304279938050523668
0.248000000000000081,-10.563170086474205078
0.249000000000000082,-10.805244081735756012
0.250000000000000111,-11.031214356544051469
0.251000000000000112,-11.241796195861819996
0.252000000000000113,-11.437703836988678319
0.253000000000000114,-11.619646799216004851
0.254000000000000115,-11.788326460374292992
0.255000000000000115,-11.944432893291958564
0.256000000000000116,-12.088641971226206095
0.257000000000000117,-12.221612747712578440
0.258000000000000118,-12.343985113011582300
0.259000000000000119,-12.456377726403378148
0.260000000000000120,-12.559386220986251459
0.261000000000000121,-12.653581675358834602
0.262000000000000122,-12.739509344598214824
0.263000000000000123,-12.817687641267218268
0.264000000000000123,-12.888607355780397512
0.265000000000000124,-12.952731104308108812
0.266000000000000125,-13.010492991486444225
0.267000000000000126,-13.062298474505036339
0.268000000000000127,-13.108524414649732392
0.269000000000000128,-13.149519302060976855
0.270000000000000129,-13.185603639315825575
0.271000000000000130,-13.217070469432751878
0.272000000000000131,-13.244186034017932485
0.273000000000000131,-13.267190547502533349
0.274000000000000132,-13.286299073748992328
0.275000000000000133,-13.301702491714895160
0.276000000000000134,-13.313568537343144271
0.277000000000000135,-13.322042909384856912
0.278000000000000136,-13.327250427444724323
0.279000000000000137,-13.329296231157893970
0.280000000000000138,-13.328267010052950781
0.281000000000000139,-13.324232254319062108
0.282000000000000139,-13.317245517369139307
0.283000000000000140,-13.307345681768206092
0.284000000000000141,-13.294558220771136803
0.285000000000000142,-13.278896448381306783
0.286000000000000143,-13.260362751496881373
0.287000000000000144,-13.238949798350517995
0.288000000000000145,-13.214641718068531162
0.289000000000000146,-13.187415246772852484
0.290000000000000147,-13.157240836223319747
0.291000000000000147,-13.124083721544854697
0.292000000000000148,-13.087904945104805066
0.293000000000000149,-13.048662334097366866
0.294000000000000150,-13.006311429854960693
0.295000000000000151,-12.960806367340364176
0.296000000000000152,-12.912100703677401370
0.297000000000000153,-12.860148194953628931
0.298000000000000154,-12.804903520874379552
0.299000000000000155,-12.746322957166160705
0.300000000000000155,-12.684364995917620789
0.301000000000000156,-12.618990914310497686
0.302000000000000157,-12.550165292430939701
0.303000000000000158,-12.477856481064842242
0.304000000000000159,-12.402037020570791270
0.305000000000000160,-12.322684012090656225
0.306000000000000161,-12.239779442504078233
0.307000000000000162,-12.153310464658073187
0.308000000000000163,-12.063269634509284245
0.309000000000000163,-11.969655106904932396
0.310000000000000164,-11.872470791800289192
0.311000000000000165,-11.771726472766312455
0.312000000000000166,-11.667437889683480279
0.313000000000000167,-11.559626787545882465
0.314000000000000168,-11.448320933316242787
0.315000000000000169,-11.333554102777720018
0.316000000000000170,-11.215366039323441782
0.317000000000000171,-11.093802386610585486
0.318000000000000171,-10.968914596983529108
0.319000000000000172,-10.840759817540885024
0.320000000000000173,-10.709400755685113182
0.321000000000000174,-10.574905525951114882
0.322000000000000175,-10.437347479863584354
0.323000000000000176,-10.296805020521357932
0.324000000000000177,-10.153361403551977915
0.325000000000000178,-10.007104526021695534
0.326000000000000179,-9.858126704825716402
0.327000000000000179,-9.706524446020663888
0.328000000000000180,-9.552398206497194622
0.329000000000000181,-9.395852149326204383
0.330000000000000182,-9.236993894045131270
0.331000000000000183,-9.075934263086093523
0.332000000000000184,-8.912787025480536585
0.333000000000000185,-8.747668638910083061
0.334000000000000186,-8.580697991107879119
0.335000000000000187,-8.411996141550638129
0.336000000000000187,-8.241686064318491489
0.337000000000000188,-8.069892392937854098
0.338000000000000189,-7.896741167962178842
0.339000000000000190,-7.722359587986515450
0.340000000000000191,-7.546875764734605418
0.341000000000000192,-7.370418482802213234
0.342000000000000193,-7.193116964586304007
0.343000000000000194,-7.015100640878887184
0.344000000000000195,-6.836498927554091054
0.345000000000000195,-6.657441008730129894
0.346000000000000196,-6.478055626742081685
0.347000000000000197,-6.298470879218029062
0.348000000000000198,-6.118814023510166678
0.349000000000000199,-5.939211288692780144
0.350000000000000200,-5.759787695302529542
0.351000000000000201,-5.580666882960675146
0.352000000000000202,-5.401970945984414740
0.353000000000000203,-5.223820277063129680
0.354000000000000203,-5.046333419046085567
0.355000000000000204,-4.869626924861105266
0.356000000000000205,-4.693815225558219950
0.357000000000000206,-4.519010506448568165
0.358000000000000207,-4.345322591287025027
0.359000000000000208,-4.172858834426846464
0.360000000000000209,-4.001724020855937702
0.361000000000000210,-3.832020274007379435
0.362000000000000210,-3.663846971221267346
0.363000000000000211,-3.497300666720880802
0.364000000000000212,-3.332475021953464456
0.365000000000000213,-3.169460743134405067
0.366000000000000214,-3.008345525823636013
0.367000000000000215,-2.849214006353903983
0.368000000000000216,-2.692147719922926452
0.369000000000000217,-2.537225065154540271
0.370000000000000218,-2.384521274928316004
0.371000000000000218,-2.234108393272233428
0.372000000000000219,-2.086055258109240196
0.373000000000000220,-1.940427489645305315
0.374000000000000221,-1.797287484184608930
0.375000000000000222,-1.656694413155636258
0.376000000000000223,-1.518704227131480566
0.377000000000000224,-1.383369664627215112
0.378000000000000225,-1.250740265457864320
0.379000000000000226,-1.120862388441217439
0.380000000000000226,-0.993779233231486314
0.381000000000000227,-0.869530866071532293
0.382000000000000228,-0.748154249253893844
0.383000000000000229,-0.629683274083699063
0.384000000000000230,-0.514148797139355240
0.385000000000000231,-0.401578679630833879
0.386000000000000232,-0.291997829658689423
0.387000000000000233,-0.185428247181146144
0.388000000000000234,-0.081889071500778371
0.389000000000000234,0.018603368913199692
0.390000000000000235,0.116035504446668325
0.391000000000000236,0.210396470380796397
0.392000000000000237,0.301678051120836843
0.393000000000000238,0.389874622778111746
0.394000000000000239,0.474983094265138128
0.395000000000000240,0.557002847058513773
0.396000000000000241,0.635935673779034039
0.397000000000000242,0.711785715733364910
0.398000000000000242,0.784559399556296055
0.399000000000000243,0.854265373087404023
0.400000000000000244,0.920914440610962837
0.401000000000000245,0.984519497582162173
0.402000000000000246,1.045095464958354148
0.403000000000000247,1.102659223248304787
0.404000000000000248,1.157229546387672503
0.405000000000000249,1.208827035543898587
0.406000000000000250,1.257474052948804655
0.407000000000000250,1.303194655852298878
0.408000000000000251,1.346014530685984756
0.409000000000000252,1.385960927520579755
0.410000000000000253,1.423062594896823185
0.411000000000000254,1.457349715104725663
0.412000000000000255,1.488853839982005267
0.413000000000000256,1.517607827298004919
0.414000000000000257,1.543645777785532136
0.415000000000000258,1.567002972878755340
0.416000000000000258,1.587715813211659777
0.417000000000000259,1.605821757927511584
0.418000000000000260,1.621359264846286008
0.419000000000000261,1.634367731533394430
0.420000000000000262,1.644887437309529687
0.421000000000000263,1.652959486238183118
0.422000000000000264,1.658625751124251035
0.423000000000000265,1.661928818553882747
0.424000000000000266,1.662911935002799879
0.425000000000000266,1.661618954037567875
0.426000000000000267,1.658094284631399518
0.427000000000000268,1.652382840613424664
0.428000000000000269,1.644529991267971836
0.429000000000000270,1.634581513097851158
0.430000000000000271,1.622583542763290421
0.431000000000000272,1.608582531206117938
0.432000000000000273,1.592625198966498568
0.433000000000000274,1.574758492697653001
0.434000000000000274,1.555029542881917193
0.435000000000000275,1.533485622749936494
0.436000000000000276,1.510174108402775994
0.437000000000000277,1.485142440135293063
0.438000000000000278,1.458438084957525138
0.439000000000000279,1.430108500309339004
0.440000000000000280,1.400201098962267743
0.441000000000000281,1.368763215101217012
0.442000000000000282,1.335842071577293177
0.443000000000000282,1.301484748322242702
0.444000000000000283,1.265738151913490483
0.445000000000000284,1.228648986278148669
0.446000000000000285,1.190263724523249467
0.447000000000000286,1.150628581878598622
0.448000000000000287,1.109789489737961654
0.449000000000000288,1.067792070783482261
0.450000000000000289,1.024681615177543303
0.451000000000000290,0.980503057805791611
0.452000000000000290,0.935300956554334206
0.453000000000000291,0.889119471603723510
0.454000000000000292,0.842002345721845735
0.455000000000000293,0.793992885537415205
0.456000000000000294,0.745133943775445062
0.457000000000000295,0.695467902435772833
0.458000000000000296,0.645036656895304428
0.459000000000000297,0.593881600914679897
0.460000000000000298,0.542043612529488072
0.461000000000000298,0.489563040806471950
0.462000000000000299,0.436479693444527306
0.463000000000000300,0.382832825200665916
0.464000000000000301,0.328661127120730534
0.465000000000000302,0.274002716554856807
0.466000000000000303,0.218895127937401845
0.467000000000000304,0.163375304311443925
0.468000000000000305,0.107479589577642948
0.469000000000000306,0.051243721447569612
0.470000000000000306,-0.005297174918347469
0.471000000000000307,-0.062108592608104050
0.472000000000000308,-0.119156648010163263
0.473000000000000309,-0.176408085239819823
0.474000000000000310,-0.233830279959031218
0.475000000000000311,-0.291391242609113532
0.476000000000000312,-0.349059621074815418
0.477000000000000313,-0.406804702798884699
0.478000000000000314,-0.464596416365277931
0.479000000000000314,-0.522405332569440661
0.480000000000000315,-0.580202664993535788
0.481000000000000316,-0.637960270104428684
0.482000000000000317,-0.695650646891812885
0.483000000000000318,-0.753246936063721728
0.484000000000000319,-0.810722918816296989
0.485000000000000320,-0.868053015194435895
0.486000000000000321,-0.925212282059657332
0.487000000000000322,-0.982176410681166678
0.488000000000000322,-1.038921723965911426
0.489000000000000323,-1.095425173342923886
0.490000000000000324,-1.151664335317202914
0.491000000000000325,-1.207617407707793244
0.492000000000000326,-1.263263205584630455
0.493000000000000327,-1.318581156918251729
0.494000000000000328,-1.373551297956260742
0.495000000000000329,-1.428154268340060762
0.496000000000000330,-1.482371305975044518
0.497000000000000330,-1.536184241667198247
0.498000000000000331,-1.589575493538648132
0.499000000000000332,-1.642528061234368675
0.500000000000000333,-1.695025519932160218
0.501000000000000334,-1.747052014167375322
0.502000000000000335,-1.798592251483812632
0.503000000000000336,-1.849631495921761681
0.504000000000000337,-1.900155561353974676
0.505000000000000338,-1.950150804679903871
0.506000000000000338,-1.999604118888380411
0.507000000000000339,-2.048502925998574309
0.508000000000000340,-2.096835169888708883
0.509000000000000341,-2.144589309021806223
0.510000000000000342,-2.191754309077432517
0.511000000000000343,-2.238319635498118299
0.512000000000000344,-2.284275245958844458
0.513000000000000345,-2.329611582767692646
0.514000000000000346,-2.374319565205653682
0.515000000000000346,-2.418390581812994711
0.516000000000000347,-2.461816482629680003
0.517000000000000348,-2.504589571396873104
0.518000000000000349,-2.546702597726356210
0.519000000000000350,-2.588148749244424618
0.520000000000000351,-2.628921643716679135
0.521000000000000352,-2.669015321159760923
0.522000000000000353,-2.708424235945892100
0.523000000000000353,-2.747143248905973500
0.524000000000000354,-2.785167619436543784
0.525000000000000355,-2.822492997615922761
0.526000000000000356,-2.859115416334434112
0.527000000000000357,-2.895031283443572079
0.528000000000000358,-2.930237373928743061
0.529000000000000359,-2.964730822109789887
0.530000000000000360,-2.998509113873713883
0.531000000000000361,-3.031570078943450319
0.532000000000000361,-3.063911883186621221
0.533000000000000362,-3.095533020967797366
0.534000000000000363,-3.126432307547860390
0.535000000000000364,-3.156608871533678418
0.536000000000000365,-3.186062147381254483
0.537000000000000366,-3.214791867955327120
0.538000000000000367,-3.242798057148202240
0.539000000000000368,-3.270081022560536788
0.540000000000000369,-3.296641348246521552
0.541000000000000369,-3.322479887525878972
0.542000000000000370,-3.347597755864861746
0.543000000000000371,-3.371996323828388320
0.544000000000000372,-3.395677210105239929
0.545000000000000373,-3.418642274608161724
0.546000000000000374,-3.440893611650596373
0.547000000000000375,-3.462433543201575592
0.548000000000000376,-3.483264612220347889
0.549000000000000377,-3.503389576071969547
0.550000000000000377,-3.522811400025235518
0.551000000000000378,-3.541533250833987179
0.552000000000000379,-3.559558490402920050
0.553000000000000380,-3.576890669538787648
0.554000000000000381,-3.593533521787859453
0.555000000000000382,-3.609490957360436347
0.556000000000000383,-3.624767057142990634
0.557000000000000384,-3.639366066798640276
0.558000000000000385,-3.653292390956343727
0.559000000000000385,-3.666550587489342039
0.560000000000000386,-3.679145361883092935
0.561000000000000387,-3.691081561693065005
0.562000000000000388,-3.702364171092506151
0.563000000000000389,-3.712998305510431862
0.564000000000000390,-3.722989206359760495
0.565000000000000391,-3.732342235855740764
0.566000000000000392,-3.741062871924545341
0.567000000000000393,-3.749156703201936836
0.568000000000000393,-3.756629424121832095
0.569000000000000394,-3.763486830094581848
0.570000000000000395,-3.769734812774694355
0.571000000000000396,-3.775379355417614935
0.572000000000000397,-3.780426528325334878
0.573000000000000398,-3.784882484380324374
0.574000000000000399,-3.788753454667365794
0.575000000000000400,-3.792045744182844125
0.576000000000000401,-3.794765727630906582
0.577000000000000401,-3.796919845306033103
0.578000000000000402,-3.798514599061307617
0.579000000000000403,-3.799556548361873176
0.580000000000000404,-3.800052306422870174
0.581000000000000405,-3.800008536431155992
0.582000000000000406,-3.799431947850186564
0.583000000000000407,-3.798329292807189894
0.584000000000000408,-3.796707362562043109
0.585000000000000409,-3.794572984056909348
0.586000000000000409,-3.791933016545958601
0.587000000000000410,-3.788794348304316717
0.588000000000000411,-3.785163893415343317
0.589000000000000412,-3.781048588635527175
0.590000000000000413,-3.776455390335967000
0.591000000000000414,-3.771391271519664912
0.592000000000000415,-3.765863218913739097
0.593000000000000416,-3.759878230135549337
0.594000000000000417,-3.753443310931925403
0.595000000000000417,-3.746565472490542170
0.596000000000000418,-3.739251728822418297
0.597000000000000419,-3.731509094214771061
0.598000000000000420,-3.723344580753058075
0.599000000000000421,-3.714765195911446938
0.600000000000000422,-3.705777940210619903
0.601000000000000423,-3.696389804941985879
0.602000000000000424,-3.686607769957344516
0.603000000000000425,-3.676438801523042255
0.604000000000000425,-3.665889850237554981
0.605000000000000426,-3.654967849011644176
0.606000000000000427,-3.643679711110041186
0.607000000000000428,-3.632032328253636422
0.608000000000000429,-3.620032568781353266
0.609000000000000430,-3.607687275870516963
0.610000000000000431,-3.595003265814964433
0.611000000000000432,-3.581987326359738599
0.612000000000000433,-3.568646215091507479
