# Fe111_TYR
# h[nm],U(h)[kJ/mol]
0.200000000000000011,15.060497476023702035
0.201000000000000012,11.747858890196583914
0.202000000000000013,9.171559096896210406
0.203000000000000014,6.981849902741362079
0.204000000000000015,4.972850797162815084
0.205000000000000016,3.032362380908266708
0.206000000000000016,1.107058151345104546
0.207000000000000017,-0.821205878485658070
0.208000000000000018,-2.751132641660979150
0.209000000000000019,-4.672117162199866058
0.210000000000000020,-6.570486337341432836
0.211000000000000021,-8.433090176551937489
0.212000000000000022,-10.249138102447522769
0.213000000000000023,-12.010913295861701755
0.214000000000000024,-13.713806158437710891
0.215000000000000024,-15.355967925650237049
0.216000000000000025,-16.937784360664970507
0.217000000000000026,-18.461297404882756723
0.218000000000000027,-19.929652119786702258
0.219000000000000028,-21.346611512199888949
0.220000000000000029,-22.716158578921060496
0.221000000000000030,-24.042189901486928250
0.222000000000000031,-25.328295956140031819
0.223000000000000032,-26.577618194631156712
0.224000000000000032,-27.792770591387558454
0.225000000000000033,-28.975812794548808426
0.226000000000000034,-30.128262584877518293
0.227000000000000035,-31.251136561021837679
0.228000000000000036,-32.345009503978253917
0.229000000000000037,-33.410084508489461541
0.230000000000000038,-34.446267563738629747
0.231000000000000039,-35.453241735340569107
0.232000000000000040,-36.430537399779431951
0.233000000000000040,-37.377596092410705353
0.234000000000000041,-38.293826449954025293
0.235000000000000042,-39.178651468227272403
0.236000000000000043,-40.031546872364188516
0.237000000000000044,-40.852070829781979455
0.238000000000000045,-41.639885546594740617
0.239000000000000046,-42.394771496409894951
0.240000000000000047,-43.116635155567657023
0.241000000000000048,-43.805511178078560874
0.242000000000000048,-44.461559951892631659
0.243000000000000049,-45.085061448655622485
0.244000000000000050,-45.676406222662180312
0.245000000000000051,-46.236084340280783067
0.246000000000000052,-46.764672935926242303
0.247000000000000053,-47.262823000414485364
0.248000000000000054,-47.731245916633788795
0.249000000000000055,-48.170700169185629136
0.250000000000000056,-48.581978571329038630
0.251000000000000056,-48.965896275784459135
0.252000000000000057,-49.323279766683320702
0.253000000000000058,-49.654956968667882222
0.254000000000000059,-49.961748555962188334
0.255000000000000060,-50.244460498972713935
0.256000000000000061,-50.503877848262405337
0.257000000000000062,-50.740759725056221896
0.258000000000000063,-50.955835463174778965
0.259000000000000064,-51.149801828802104353
0.260000000000000064,-51.323321231101388662
0.261000000000000065,-51.477020827736645003
0.262000000000000066,-51.611492424197038531
0.263000000000000067,-51.727293063852961552
0.264000000000000068,-51.824946206337699550
0.265000000000000069,-51.904943394641612997
0.266000000000000070,-51.967746315765921850
0.267000000000000071,-52.013789165509976442
0.268000000000000071,-52.043481234604882957
0.269000000000000072,-52.057209640651876725
0.270000000000000073,-52.055342137920902701
0.271000000000000074,-52.038229944792327331
0.272000000000000075,-52.006210536309161796
0.273000000000000076,-51.959610356801327669
0.274000000000000077,-51.898747414737819383
0.275000000000000078,-51.823933728768238893
0.276000000000000079,-51.735477600272609777
0.277000000000000079,-51.633685693602231481
0.278000000000000080,-51.518864910542205848
0.279000000000000081,-51.391324050344678653
0.280000000000000082,-51.251375250972181163
0.281000000000000083,-51.099335210964007103
0.282000000000000084,-50.935526194609842321
0.283000000000000085,-50.760276825910587206
0.284000000000000086,-50.573922679151777970
0.285000000000000087,-50.376806675840931860
0.286000000000000087,-50.169279299300406194
0.287000000000000088,-49.951698639393391943
0.288000000000000089,-49.724430280727275999
0.289000000000000090,-49.487847048259119731
0.290000000000000091,-49.242328624554019711
0.291000000000000092,-48.988261053049924953
0.292000000000000093,-48.726036141592821593
0.293000000000000094,-48.456050780249725562
0.294000000000000095,-48.178706187011592021
0.295000000000000095,-47.894407094486993515
0.296000000000000096,-47.603560890082590618
0.297000000000000097,-47.306576721487132886
0.298000000000000098,-47.003864578542000174
0.299000000000000099,-46.695834361806177526
0.300000000000000100,-46.382894947325034707
0.301000000000000101,-46.065453256298823703
0.302000000000000102,-45.743913337533228969
0.303000000000000103,-45.418675469746851547
0.304000000000000103,-45.090135290019397019
0.305000000000000104,-44.758682953894151524
0.306000000000000105,-44.424702331907930386
0.307000000000000106,-44.088570246609734227
0.308000000000000107,-43.750655753456968000
0.309000000000000108,-43.411319468340401784
0.310000000000000109,-43.070912943893205238
0.311000000000000110,-42.729778096183828495
0.312000000000000111,-42.388246682878147453
0.313000000000000111,-42.046639833485173199
0.314000000000000112,-41.705267631868387923
0.315000000000000113,-41.364428750815150693
0.316000000000000114,-41.024410138105217527
0.317000000000000115,-40.685486753206610899
0.318000000000000116,-40.347921353450388438
0.319000000000000117,-40.011964328295093196
0.320000000000000118,-39.677853580082498297
0.321000000000000119,-39.345814449509575184
0.322000000000000119,-39.016059683893978161
0.323000000000000120,-38.688789446188998511
0.324000000000000121,-38.364191362609872726
0.325000000000000122,-38.042440606660235858
0.326000000000000123,-37.723700017298391174
0.327000000000000124,-37.408120248951298947
0.328000000000000125,-37.095839951071830853
0.329000000000000126,-36.786985974937962851
0.330000000000000127,-36.481673605408907690
0.331000000000000127,-36.180006815384921026
0.332000000000000128,-35.882078540757575524
0.333000000000000129,-35.587970973689174059
0.334000000000000130,-35.297755872119040532
0.335000000000000131,-35.011494883462077610
0.336000000000000132,-34.729239880537221552
0.337000000000000133,-34.451033307841420594
0.338000000000000134,-34.176908536366880753
0.339000000000000135,-33.906890225244090686
0.340000000000000135,-33.640994688580263983
0.341000000000000136,-33.379230265951321144
0.342000000000000137,-33.121597695095559288
0.343000000000000138,-32.868090485445847548
0.344000000000000139,-32.618695291227204791
0.345000000000000140,-32.373392282934453590
0.346000000000000141,-32.132155516092026915
0.347000000000000142,-31.894953296283127031
0.348000000000000143,-31.661748539519003032
0.349000000000000143,-31.432499127100165026
0.350000000000000144,-31.207158254199903524
0.351000000000000145,-30.985674771476482192
0.352000000000000146,-30.767993519093238319
0.353000000000000147,-30.554055652596105119
0.354000000000000148,-30.343798960164811263
0.355000000000000149,-30.137158170817862413
0.356000000000000150,-29.934065253212207125
0.357000000000000151,-29.734449704735631315
0.358000000000000151,-29.538238830644548472
0.359000000000000152,-29.345358013050297785
0.360000000000000153,-29.155730969605436087
0.361000000000000154,-28.969280001786319900
0.362000000000000155,-28.785926232709460493
0.363000000000000156,-28.605589834458641008
0.364000000000000157,-28.428190244935041875
0.365000000000000158,-28.253646374276264908
0.366000000000000159,-28.081876800920060333
0.367000000000000159,-27.912799957416666530
0.368000000000000160,-27.746334306118832558
0.369000000000000161,-27.582398504901551206
0.370000000000000162,-27.420911563083830487
0.371000000000000163,-27.261792987743881156
0.372000000000000164,-27.104962920634498857
0.373000000000000165,-26.950342265920774310
0.374000000000000166,-26.797852808973953387
0.375000000000000167,-26.647417326466559473
0.376000000000000167,-26.498959688022530656
0.377000000000000168,-26.352404949684295588
0.378000000000000169,-26.207679439463920090
0.379000000000000170,-26.064710835251197807
0.380000000000000171,-25.923428235354112559
0.381000000000000172,-25.783762221950251359
0.382000000000000173,-25.645644917728169787
0.383000000000000174,-25.509010035998716859
0.384000000000000175,-25.373792924555033323
0.385000000000000175,-25.239930603558853761
0.386000000000000176,-25.107361797728163566
0.387000000000000177,-24.976026963098590272
0.388000000000000178,-24.845868308626858578
0.389000000000000179,-24.716829812901210062
0.390000000000000180,-24.588857236218036206
0.391000000000000181,-24.461898128279919717
0.392000000000000182,-24.335901831764005010
0.393000000000000183,-24.210819482004044545
0.394000000000000183,-24.086604003023445841
0.395000000000000184,-23.963210100150195814
0.396000000000000185,-23.840594249437629060
0.397000000000000186,-23.718714684108899604
0.398000000000000187,-23.597531378235480304
0.399000000000000188,-23.477006027853288828
0.400000000000000189,-23.357102029713082914
0.401000000000000190,-23.237784457854438358
0.402000000000000191,-23.119020038185581711
0.403000000000000191,-23.000777121244215806
0.404000000000000192,-22.883025653307498715
0.405000000000000193,-22.765737146012096304
0.406000000000000194,-22.648884644638307861
0.407000000000000195,-22.532442695205606498
0.408000000000000196,-22.416387310519738207
0.409000000000000197,-22.300695935305149931
0.410000000000000198,-22.185347410549859148
0.411000000000000199,-22.070321937183432937
0.412000000000000199,-21.955601039202356617
0.413000000000000200,-21.841167526351238592
0.414000000000000201,-21.727005456461956356
0.415000000000000202,-21.613100097547111034
0.416000000000000203,-21.499437889738839402
0.417000000000000204,-21.386006407157914566
0.418000000000000205,-21.272794319793284501
0.419000000000000206,-21.159791355466914808
0.420000000000000207,-21.046988261953476496
0.421000000000000207,-20.934376769320287792
0.422000000000000208,-20.821949552547522444
0.423000000000000209,-20.709700194484973679
0.424000000000000210,-20.597623149196842007
0.425000000000000211,-20.485713705742135460
0.426000000000000212,-20.373967952434419715
0.427000000000000213,-20.262382741620605486
0.428000000000000214,-20.150955655015291512
0.429000000000000214,-20.039684969623131394
0.430000000000000215,-19.928569624279113270
0.431000000000000216,-19.817609186832903845
0.432000000000000217,-19.706803822000868109
0.433000000000000218,-19.596154259906253259
0.434000000000000219,-19.485661765325552608
0.435000000000000220,-19.375328107656407894
0.436000000000000221,-19.265155531620091978
0.437000000000000222,-19.155146728709212312
0.438000000000000222,-19.045304809389307366
0.439000000000000223,-18.935633276060936936
0.440000000000000224,-18.826135996786835136
0.441000000000000225,-18.716817179787096137
0.442000000000000226,-18.607681348703728474
0.443000000000000227,-18.498733318634055678
0.444000000000000228,-18.389978172931431999
0.445000000000000229,-18.281421240770022507
0.446000000000000230,-18.173068075469249294
0.447000000000000230,-18.064924433572496554
0.448000000000000231,-17.956996254673434521
0.449000000000000232,-17.849289641982217347
0.450000000000000233,-17.741810843623294858
0.451000000000000234,-17.634566234655299155
0.452000000000000235,-17.527562299803040702
0.453000000000000236,-17.420805616890710610
0.454000000000000237,-17.314302840965034136
0.455000000000000238,-17.208060689096285500
0.456000000000000238,-17.102085925844747294
0.457000000000000239,-16.996385349379686147
0.458000000000000240,-16.890965778237703177
0.459000000000000241,-16.785834038706489935
0.460000000000000242,-16.680996952820567714
0.461000000000000243,-16.576461326954312625
0.462000000000000244,-16.472233940998425084
0.463000000000000245,-16.368321538104879664
0.464000000000000246,-16.264730814986059215
0.465000000000000246,-16.161468412753169588
0.466000000000000247,-16.058540908279205439
0.467000000000000248,-15.955954806071645180
0.468000000000000249,-15.853716530640165061
0.469000000000000250,-15.751832419344520275
0.470000000000000251,-15.650308715708002083
0.471000000000000252,-15.549151563181681013
0.472000000000000253,-15.448366999345186201
0.473000000000000254,-15.347960950529380142
0.474000000000000254,-15.247939226846904504
0.475000000000000255,-15.148307517616284912
0.476000000000000256,-15.049071387165932734
0.477000000000000257,-14.950236271004163413
0.478000000000000258,-14.851807472341670646
0.479000000000000259,-14.753790158953359324
0.480000000000000260,-14.656189360366246532
0.481000000000000261,-14.559009965360610650
0.482000000000000262,-14.462256719771886537
0.483000000000000262,-14.365934224580836798
0.484000000000000263,-14.270046934279852380
0.485000000000000264,-14.174599155503662118
0.486000000000000265,-14.079595045912705942
0.487000000000000266,-13.985038613317948730
0.488000000000000267,-13.890933715035945539
0.489000000000000268,-13.797284057463553353
0.490000000000000269,-13.704093195861556609
0.491000000000000270,-13.611364534337152321
0.492000000000000270,-13.519101326015146469
0.493000000000000271,-13.427306673388287095
0.494000000000000272,-13.335983528837298095
0.495000000000000273,-13.245134695311316264
0.496000000000000274,-13.154762827160073613
0.497000000000000275,-13.064870431108989379
0.498000000000000276,-12.975459867368945410
0.499000000000000277,-12.886533350872648285
0.500000000000000222,-12.798092952629669838
0.501000000000000334,-12.710140601192678744
0.502000000000000224,-12.622678084227571205
0.503000000000000336,-12.535707050180203481
0.504000000000000226,-12.449229010033352694
0.505000000000000338,-12.363245339146738289
0.506000000000000227,-12.277757279174403848
0.507000000000000339,-12.192765940052751716
0.508000000000000229,-12.108272302053869396
0.509000000000000341,-12.024277217898028169
0.510000000000000231,-11.940781414920467185
0.511000000000000343,-11.857785497286595700
0.512000000000000233,-11.775289948251293382
0.513000000000000345,-11.693295132456862362
0.514000000000000234,-11.611801298265698179
0.515000000000000346,-11.530808580122577922
0.516000000000000236,-11.450317000943046608
0.517000000000000348,-11.370326474523292148
0.518000000000000238,-11.290836807968190669
0.519000000000000350,-11.211847704133331760
0.520000000000000240,-11.133358764078097991
0.521000000000000352,-11.055369489525949334
0.522000000000000242,-10.977879285329219528
0.523000000000000353,-10.900887461935015565
0.524000000000000243,-10.824393237849749383
0.525000000000000355,-10.748395742099232208
0.526000000000000245,-10.672894016682210605
0.527000000000000357,-10.597887019014409660
0.528000000000000247,-10.523373624361358480
0.529000000000000359,-10.449352628257372544
0.530000000000000249,-10.375822748909030224
0.531000000000000361,-10.302782629580903517
0.532000000000000250,-10.230230840962224903
0.533000000000000362,-10.158165883512225491
0.534000000000000252,-10.086586189783174561
0.535000000000000364,-10.015490126719191366
0.536000000000000254,-9.944875997929884193
0.537000000000000366,-9.874742045937098922
0.538000000000000256,-9.805086454394199791
0.539000000000000368,-9.735907350276146843
0.540000000000000258,-9.667202806040091190
0.541000000000000369,-9.598970841754855599
0.542000000000000259,-9.531209427199218709
0.543000000000000371,-9.463916483927583556
0.544000000000000261,-9.397089887302938038
0.545000000000000373,-9.330727468495998878
0.546000000000000263,-9.264827016450551511
0.547000000000000375,-9.199386279813847267
0.548000000000000265,-9.134402968832450398
0.549000000000000377,-9.069874757212391003
0.550000000000000266,-9.005799283944002198
0.551000000000000378,-8.942174155090681253
0.552000000000000268,-8.878996945541844710
0.553000000000000380,-8.816265200729493046
0.554000000000000270,-8.753976438308722408
0.555000000000000382,-8.692128149801746417
0.556000000000000272,-8.630717802205815303
0.557000000000000384,-8.569742839564584713
0.558000000000000274,-8.509200684503579026
0.559000000000000385,-8.449088739729280206
0.560000000000000275,-8.389404389492458591
0.561000000000000387,-8.330145001015546669
0.562000000000000277,-8.271307925884563872
0.563000000000000389,-8.212890501405510690
0.564000000000000279,-8.154890051925809402
0.565000000000000391,-8.097303890120759462
0.566000000000000281,-8.040129318245572421
0.567000000000000393,-7.983363629353040558
0.568000000000000282,-7.927004108477528455
0.569000000000000394,-7.871048033785196019
0.570000000000000284,-7.815492677691314505
0.571000000000000396,-7.760335307944615124
0.572000000000000286,-7.705573188679487373
0.573000000000000398,-7.651203581436067047
0.574000000000000288,-7.597223746148946688
0.575000000000000400,-7.543630942104755377
0.576000000000000290,-7.490422428869227822
0.577000000000000401,-7.437595467183983899
0.578000000000000291,-7.385147319833805568
0.579000000000000403,-7.333075252484545281
0.580000000000000293,-7.281376534492497221
0.581000000000000405,-7.230048439685340611
0.582000000000000295,-7.179088247115560151
0.583000000000000407,-7.128493241786441281
0.584000000000000297,-7.078260715351481380
0.585000000000000409,-7.028387966787407848
0.586000000000000298,-6.978872303041653069
0.587000000000000410,-6.929711039654395499
0.588000000000000300,-6.880901501356078143
0.589000000000000412,-6.832441022640525219
0.590000000000000302,-6.784326948314514993
0.591000000000000414,-6.736556634023999734
0.592000000000000304,-6.689127446757765938
0.593000000000000416,-6.642036765328738213
0.594000000000000306,-6.595281980833725299
0.595000000000000417,-6.548860497091835597
0.596000000000000307,-6.502769731062285175
0.597000000000000419,-6.457007113241862051
0.598000000000000309,-6.411570088042777726
0.599000000000000421,-6.366456114151137768
0.600000000000000311,-6.321662664866746439
0.601000000000000423,-6.277187228424466525
0.602000000000000313,-6.233027308297921287
0.603000000000000425,-6.189180423485587390
0.604000000000000314,-6.145644108780222936
0.605000000000000426,-6.102415915021557780
0.606000000000000316,-6.059493409333254199
0.607000000000000428,-6.016874175343973619
0.608000000000000318,-5.974555813393590320
0.609000000000000430,-5.932535940724454449
0.610000000000000320,-5.890812191658538310
0.611000000000000432,-5.849382217760537905
0.612000000000000322,-5.808243687987679316
0.613000000000000433,-5.767394288826301008
0.614000000000000323,-5.726831724415884395
0.615000000000000435,-5.686553716660720070
0.616000000000000325,-5.646558005329757712
0.617000000000000437,-5.606842348144871480
0.618000000000000327,-5.567404520858023176
0.619000000000000439,-5.528242317317602961
0.620000000000000329,-5.489353549524396136
0.621000000000000441,-5.450736047677394502
0.622000000000000330,-5.412387660209985185
0.623000000000000442,-5.374306253816596879
0.624000000000000332,-5.336489713470434992
0.625000000000000444,-5.298935942432332347
0.626000000000000334,-5.261642862251286523
0.627000000000000446,-5.224608412756778009
0.628000000000000336,-5.187830552043363852
0.629000000000000448,-5.151307256447655192
0.630000000000000338,-5.115036520518192908
0.631000000000000449,-5.079016356978203639
0.632000000000000339,-5.043244796681884523
0.633000000000000451,-5.007719888564100330
0.634000000000000341,-4.972439699584099593
0.635000000000000453,-4.937402314663229319
0.636000000000000343,-4.902605836617121682
0.637000000000000455,-4.868048386082429069
0.638000000000000345,-4.833728101438476976
0.639000000000000457,-4.799643138723931557
0.640000000000000346,-4.765791671548891273
0.641000000000000458,-4.732171891002400876
0.642000000000000348,-4.698782005555842467
0.643000000000000460,-4.665620240962160103
0.644000000000000350,-4.632684840151412686
0.645000000000000462,-4.599974063122528989
0.646000000000000352,-4.567486186831785311
0.647000000000000464,-4.535219505077876079
0.648000000000000353,-4.503172328384102308
0.649000000000000465,-4.471342983877439892
0.650000000000000355,-4.439729815165164517
0.651000000000000467,-4.408331182208667265
0.652000000000000357,-4.377145461195088849
0.653000000000000469,-4.346171044406562878
0.654000000000000359,-4.315406340087551307
0.655000000000000471,-4.284849772310074023
