# Fe001_GLUSCA-AC
# h[nm],U(h)[kJ/mol]
0.149999999999999994,92.551436740338616005
0.150999999999999995,91.645337947683287894
0.151999999999999996,88.173961413316334301
0.152999999999999997,84.207241200860622143
0.153999999999999998,80.524940031522675099
0.154999999999999999,77.287222702599621016
0.156000000000000000,74.402807765984874777
0.157000000000000001,71.716692364977504326
0.158000000000000002,69.094370509800000946
0.159000000000000002,66.449931786965620972
0.160000000000000003,63.746360592750576757
0.161000000000000004,60.984268626380028877
0.162000000000000005,58.187806081938560965
0.163000000000000006,55.391998687139661683
0.164000000000000007,52.633167756814863480
0.165000000000000008,49.942691802791365774
0.166000000000000009,47.343691655382386330
0.167000000000000010,44.849964344320092380
0.168000000000000010,42.466463672021220077
0.169000000000000011,40.190710692603133225
0.170000000000000012,38.014646276964647598
0.171000000000000013,35.926572213534178957
0.172000000000000014,33.912947454304728012
0.173000000000000015,31.959904145720493318
0.174000000000000016,30.054422464299314299
0.175000000000000017,28.185155905668949572
0.176000000000000018,26.342932982001464381
0.177000000000000018,24.520981121095125843
0.178000000000000019,22.714927604728629262
0.179000000000000020,20.922633834298494548
0.180000000000000021,19.143915687345995025
0.181000000000000022,17.380196268245470037
0.182000000000000023,15.634129474666707438
0.183000000000000024,13.909224568914940079
0.184000000000000025,12.209494071858221886
0.185000000000000026,10.539140221096811700
0.186000000000000026,8.902289181679993391
0.187000000000000027,7.302777246733585415
0.188000000000000028,5.743989396327505936
0.189000000000000029,4.228747711907813844
0.190000000000000030,2.759245150939709568
0.191000000000000031,1.337018936481681575
0.192000000000000032,-0.037042828409650674
0.193000000000000033,-1.362667881919548574
0.194000000000000034,-2.640146234971413541
0.195000000000000034,-3.870262248434301000
0.196000000000000035,-5.054217685743173760
0.197000000000000036,-6.193550369046112891
0.198000000000000037,-7.290052325482831108
0.199000000000000038,-8.345690571386001011
0.200000000000000039,-9.362532977180908489
0.201000000000000040,-10.342681005934959870
0.202000000000000041,-11.288210537312986403
0.203000000000000042,-12.201121483215350949
0.204000000000000042,-13.083296473789223668
0.205000000000000043,-13.936468541304151358
0.206000000000000044,-14.762197450447107627
0.207000000000000045,-15.561854111022096703
0.208000000000000046,-16.336612355879552183
0.209000000000000047,-17.087447265668245677
0.210000000000000048,-17.815139165115937203
0.211000000000000049,-18.520282395625329741
0.212000000000000050,-19.203297979067979639
0.213000000000000050,-19.864449321378664592
0.214000000000000051,-20.503860156164613215
0.215000000000000052,-21.121533992999435014
0.216000000000000053,-21.717374408019416876
0.217000000000000054,-22.291205592203805708
0.218000000000000055,-22.842792652255816677
0.219000000000000056,-23.371861237847866732
0.220000000000000057,-23.878116145224229427
0.221000000000000058,-24.361258619293096217
0.222000000000000058,-24.821002143338692036
0.223000000000000059,-25.257086566618689005
0.224000000000000060,-25.669290474970477334
0.225000000000000061,-26.057441757948453187
0.226000000000000062,-26.421426367968120275
0.227000000000000063,-26.761195302611547220
0.228000000000000064,-27.076769870936125528
0.229000000000000065,-27.368245328698350249
0.230000000000000066,-27.635792986283718164
0.231000000000000066,-27.879660907293782657
0.232000000000000067,-28.100173325664400181
0.233000000000000068,-28.297728915366480607
0.234000000000000069,-28.472798049651419916
0.235000000000000070,-28.625919186911339409
0.236000000000000071,-28.757694517967273384
0.237000000000000072,-28.868785005387259446
0.238000000000000073,-28.959904939646254007
0.239000000000000073,-29.031816129914069791
0.240000000000000074,-29.085321839306097047
0.241000000000000075,-29.121260565824947264
0.242000000000000076,-29.140499761201407836
0.243000000000000077,-29.143929570617096658
0.244000000000000078,-29.132456667036866094
0.245000000000000079,-29.106998244744069382
0.246000000000000080,-29.068476227781264498
0.247000000000000081,-29.017811740451225688
0.248000000000000081,-28.955919878905831411
0.249000000000000082,-28.883704815204470862
0.250000000000000111,-28.802055258099642288
0.251000000000000112,-28.711840288234505181
0.252000000000000113,-28.613905579430348070
0.253000000000000114,-28.509070012304256636
0.254000000000000115,-28.398122681587608440
0.255000000000000115,-28.281820294197462573
0.256000000000000116,-28.160884951332718629
0.257000000000000117,-28.036002304597758439
0.258000000000000118,-27.907820073374232095
0.259000000000000119,-27.776946908336601183
0.260000000000000120,-27.643951584108599207
0.261000000000000121,-27.509362502551692131
0.262000000000000122,-27.373667487033713996
0.263000000000000123,-27.237313847210039341
0.264000000000000123,-27.100708693331178267
0.265000000000000124,-26.964219478837016197
0.266000000000000125,-26.828174749980057356
0.267000000000000126,-26.692865081407472161
0.268000000000000127,-26.558544176999532738
0.269000000000000128,-26.425430115782411633
0.270000000000000129,-26.293706723383884594
0.271000000000000130,-26.163525050258176208
0.272000000000000131,-26.035004938751644232
0.273000000000000131,-25.908236661994273220
0.274000000000000132,-25.783282618567291422
0.275000000000000133,-25.660179067899321126
0.276000000000000134,-25.538937892367709281
0.277000000000000135,-25.419548373117287099
0.278000000000000136,-25.301978967644188856
0.279000000000000137,-25.186179078218835059
0.280000000000000138,-25.072080801231262370
0.281000000000000139,-24.959600648527164424
0.282000000000000139,-24.848641232758669872
0.283000000000000140,-24.739092909694612388
0.284000000000000141,-24.630835371317946425
0.285000000000000142,-24.523739184379287792
0.286000000000000143,-24.417667269873522429
0.287000000000000144,-24.312476319658681945
0.288000000000000145,-24.208018147143459231
0.289000000000000146,-24.104140969628982560
0.290000000000000147,-24.000690620503956296
0.291000000000000147,-23.897511690059040745
0.292000000000000148,-23.794448594207853631
0.293000000000000149,-23.691346570878454969
0.294000000000000150,-23.588052604272728985
0.295000000000000151,-23.484416277582713661
0.296000000000000152,-23.380290555104004113
0.297000000000000153,-23.275532494999630728
0.298000000000000154,-23.170003894243187403
0.299000000000000155,-23.063571867512358438
0.300000000000000155,-22.956109362011801522
0.301000000000000156,-22.847495610382452469
0.302000000000000157,-22.737616524003307461
0.303000000000000158,-22.626365029113706839
0.304000000000000159,-22.513641348281272059
0.305000000000000160,-22.399353229814689570
0.306000000000000161,-22.283416127773598703
0.307000000000000162,-22.165753335261211276
0.308000000000000163,-22.046296073701018514
0.309000000000000163,-21.924983540798969273
0.310000000000000164,-21.801762919877880620
0.311000000000000165,-21.676589353242938785
0.312000000000000166,-21.549425882198654847
0.313000000000000167,-21.420243356288086289
0.314000000000000168,-21.289020314267137479
0.315000000000000169,-21.155742839261115762
0.316000000000000170,-21.020404390478319101
0.317000000000000171,-20.883005613777626763
0.318000000000000171,-20.743554133304428433
0.319000000000000172,-20.602064326323421994
0.320000000000000173,-20.458557083287445266
0.321000000000000174,-20.313059555090514863
0.322000000000000175,-20.165604889360491114
0.323000000000000176,-20.016231957553618059
0.324000000000000177,-19.864985074518951791
0.325000000000000178,-19.711913712107637764
0.326000000000000179,-19.557072208309072892
0.327000000000000179,-19.400519473303894813
0.328000000000000180,-19.242318693733828638
0.329000000000000181,-19.082537036399948249
0.330000000000000182,-18.921245352513583526
0.331000000000000183,-18.758517883540974935
0.332000000000000184,-18.594431969599774845
0.333000000000000185,-18.429067761287150518
0.334000000000000186,-18.262507935742178233
0.335000000000000187,-18.094837417671854496
0.336000000000000187,-17.926143105999312155
0.337000000000000188,-17.756513606724904974
0.338000000000000189,-17.586038972526594648
0.339000000000000190,-17.414810449563912442
0.340000000000000191,-17.242920231891503136
0.341000000000000192,-17.070461223832943176
0.342000000000000193,-16.897526810612241377
0.343000000000000194,-16.724210637491943032
0.344000000000000195,-16.550606397619169741
0.345000000000000195,-16.376807628737868328
0.346000000000000196,-16.202907518884334337
0.347000000000000197,-16.028998721144773754
0.348000000000000198,-15.855173177518498306
0.349000000000000199,-15.681521951896908007
0.350000000000000200,-15.508135072138378163
0.351000000000000201,-15.335101381190757053
0.352000000000000202,-15.162508397187531628
0.353000000000000203,-14.990442182420327555
0.354000000000000203,-14.818987221068478988
0.355000000000000204,-14.648226305547570547
0.356000000000000205,-14.478240431320969606
0.357000000000000206,-14.309108700002786563
0.358000000000000207,-14.140908230566839876
0.359000000000000208,-13.973714078463965294
0.360000000000000209,-13.807599162439135654
0.361000000000000210,-13.642634198830851489
0.362000000000000210,-13.478887643127137608
0.363000000000000211,-13.316425638546201426
0.364000000000000212,-13.155311971404268334
0.365000000000000213,-12.995608033029029116
0.366000000000000214,-12.837372787973885480
0.367000000000000215,-12.680662748286120944
0.368000000000000216,-12.525531953580928857
0.369000000000000217,-12.372031956672602249
0.370000000000000218,-12.220211814514950532
0.371000000000000218,-12.070118084203723896
0.372000000000000219,-11.921794823795888618
0.373000000000000220,-11.775283597702792093
0.374000000000000221,-11.630623486417288603
0.375000000000000222,-11.487851100338170696
0.376000000000000223,-11.347000597459139470
0.377000000000000224,-11.208103704693895608
0.378000000000000225,-11.071189742613373852
0.379000000000000226,-10.936285653376089044
0.380000000000000226,-10.803416031637890882
0.381000000000000227,-10.672603158232522702
0.382000000000000228,-10.543867036420358829
0.383000000000000229,-10.417225430508253226
0.384000000000000230,-10.292693906649279967
0.385000000000000231,-10.170285875637484097
0.386000000000000232,-10.050012637518591418
0.387000000000000233,-9.931883427843848366
0.388000000000000234,-9.815905465400479812
0.389000000000000234,-9.702084001258523216
0.390000000000000235,-9.590422368979593770
0.391000000000000236,-9.480922035840116280
0.392000000000000237,-9.373582654926781998
0.393000000000000238,-9.268402117969065657
0.394000000000000239,-9.165376608778791123
0.395000000000000240,-9.064500657173457654
0.396000000000000241,-8.965767193265412160
0.397000000000000242,-8.869167602004976558
0.398000000000000242,-8.774691777871373333
0.399000000000000243,-8.682328179610623309
0.400000000000000244,-8.592063884925229544
0.401000000000000245,-8.503884645025884481
0.402000000000000246,-8.417774938960327802
0.403000000000000247,-8.333718027639717363
0.404000000000000248,-8.251696007487934637
0.405000000000000249,-8.171689863643747387
0.406000000000000250,-8.093679522650592872
0.407000000000000250,-8.017643904573146685
0.408000000000000251,-7.943560974484213943
0.409000000000000252,-7.871407793269756148
0.410000000000000253,-7.801160567703687043
0.411000000000000254,-7.732794699748334111
0.412000000000000255,-7.666284835039874679
0.413000000000000256,-7.601604910521935210
0.414000000000000257,-7.538728201193815259
0.415000000000000258,-7.477627365943300575
0.416000000000000258,-7.418274492437130441
0.417000000000000259,-7.360641141045185520
0.418000000000000260,-7.304698387777572854
0.419000000000000261,-7.250416866216295553
0.420000000000000262,-7.197766808426128371
0.421000000000000263,-7.146718084831685580
0.422000000000000264,-7.097240243050033648
0.423000000000000265,-7.049302545670610876
0.424000000000000266,-7.002874006976365528
0.425000000000000266,-6.957923428601910487
0.426000000000000267,-6.914419434126611641
0.427000000000000268,-6.872330502602264524
0.428000000000000269,-6.831625001016755405
0.429000000000000270,-6.792271215696646713
0.430000000000000271,-6.754237382653309751
0.431000000000000272,-6.717491716878444485
0.432000000000000273,-6.682002440596301440
0.433000000000000274,-6.647737810481098464
0.434000000000000274,-6.614666143849279756
0.435000000000000275,-6.582755843837359677
0.436000000000000276,-6.551975423577029112
0.437000000000000277,-6.522293529380175592
0.438000000000000278,-6.493678962947250000
0.439000000000000279,-6.466100702613267970
0.440000000000000280,-6.439527923646276797
0.441000000000000281,-6.413930017613935775
0.442000000000000282,-6.389276610834309977
0.443000000000000282,-6.365537581927521948
0.444000000000000283,-6.342683078485388037
0.445000000000000284,-6.320683532876532951
0.446000000000000285,-6.299509677204832236
0.447000000000000286,-6.279132557439423223
0.448000000000000287,-6.259523546734593324
0.449000000000000288,-6.240654357958281828
0.450000000000000289,-6.222497055447985481
0.451000000000000290,-6.205024066012976292
0.452000000000000290,-6.188208189201906961
0.453000000000000291,-6.172022606854916660
0.454000000000000292,-6.156440891959343631
0.455000000000000293,-6.141437016828180440
0.456000000000000294,-6.126985360620400556
0.457000000000000295,-6.113060716222140201
0.458000000000000296,-6.099638296507756685
0.459000000000000297,-6.086693739999560648
0.460000000000000298,-6.074203115944984965
0.461000000000000298,-6.062142928829681310
0.462000000000000299,-6.050490122345067334
0.463000000000000300,-6.039222082828400673
0.464000000000000301,-6.028316642193488839
0.465000000000000302,-6.017752080369730194
0.466000000000000303,-6.007507127267176728
0.467000000000000304,-5.997560964284739171
0.468000000000000305,-5.987893225378758011
0.469000000000000306,-5.978483997708650577
0.470000000000000306,-5.969313821876124138
0.471000000000000307,-5.960363691774201556
0.472000000000000308,-5.951615054062043164
0.473000000000000309,-5.943049807281097330
0.474000000000000310,-5.934650300627952291
0.475000000000000311,-5.926399332398981201
0.476000000000000312,-5.918280148121339401
0.477000000000000313,-5.910276438384848063
0.478000000000000314,-5.902372336388717500
0.479000000000000314,-5.894552415216976371
0.480000000000000315,-5.886801684855876182
0.481000000000000316,-5.879105588966572427
0.482000000000000317,-5.871450001425664311
0.483000000000000318,-5.863821222646183884
0.484000000000000319,-5.856205975691080923
0.485000000000000320,-5.848591402191095412
0.486000000000000321,-5.840965058078419148
0.487000000000000322,-5.833314909147356175
0.488000000000000322,-5.825629326452857804
0.489000000000000323,-5.817897081557402927
0.490000000000000324,-5.810107341636522094
0.491000000000000325,-5.802249664452867606
0.492000000000000326,-5.794313993208363378
0.493000000000000327,-5.786290651283886532
0.494000000000000328,-5.778170336875357194
0.495000000000000329,-5.769944117535074746
0.496000000000000330,-5.761603424626633441
0.497000000000000330,-5.753140047701641002
0.498000000000000331,-5.744546128806073071
0.499000000000000332,-5.735814156723838764
0.500000000000000333,-5.726936961164926565
0.501000000000000334,-5.717907706905147158
0.502000000000000335,-5.708719887884265987
0.503000000000000336,-5.699367321269095399
0.504000000000000337,-5.689844141487820472
0.505000000000000338,-5.680144794241560824
0.506000000000000338,-5.670264030499025054
0.507000000000000339,-5.660196900479819604
0.508000000000000340,-5.649938747631685132
0.509000000000000341,-5.639485202606858039
0.510000000000000342,-5.628832177242381718
0.511000000000000343,-5.617975858549081991
0.512000000000000344,-5.606912702713649388
0.513000000000000345,-5.595639429118109298
0.514000000000000346,-5.584153014380756730
0.515000000000000346,-5.572450686422383725
0.516000000000000347,-5.560529918561525342
0.517000000000000348,-5.548388423642228062
0.518000000000000349,-5.536024148197593142
0.519000000000000350,-5.523435266652351849
0.520000000000000351,-5.510620175567359169
0.521000000000000352,-5.497577487928884565
0.522000000000000353,-5.484306027485299495
0.523000000000000353,-5.470804823133724071
0.524000000000000354,-5.457073103358971444
0.525000000000000355,-5.443110290726965061
0.526000000000000356,-5.428915996434737323
0.527000000000000357,-5.414490014918951211
0.528000000000000358,-5.399832318524712349
0.529000000000000359,-5.384943052236360828
0.530000000000000360,-5.369822528471826395
0.531000000000000361,-5.354471221941944137
0.532000000000000361,-5.338889764576090435
0.533000000000000362,-5.323078940515273416
0.534000000000000363,-5.307039681173924883
0.535000000000000364,-5.290773060371225078
0.536000000000000365,-5.274280289532998545
0.537000000000000366,-5.257562712964932494
0.538000000000000367,-5.240621803197804240
0.539000000000000368,-5.223459156405445114
0.540000000000000369,-5.206076487895861860
0.541000000000000369,-5.188475627676085722
0.542000000000000370,-5.170658516091055645
0.543000000000000371,-5.152627199536895297
0.544000000000000372,-5.134383826248797078
0.545000000000000373,-5.115930642163708519
0.546000000000000374,-5.097269986857872581
0.547000000000000375,-5.078404289559318663
0.548000000000000376,-5.059336065235275903
0.549000000000000377,-5.040067910754411074
0.550000000000000377,-5.020602501123743622
0.551000000000000378,-5.000942585800126849
0.552000000000000379,-4.981090985075981692
0.553000000000000380,-4.961050586539066387
0.554000000000000381,-4.940824341605882353
0.555000000000000382,-4.920415262128471134
0.556000000000000383,-4.899826417074028662
0.557000000000000384,-4.879060929277061476
0.558000000000000385,-4.858121972263466759
0.559000000000000385,-4.837012767146107173
0.560000000000000386,-4.815736579591275657
0.561000000000000387,-4.794296716855517282
0.562000000000000388,-4.772696524892173997
0.563000000000000389,-4.750939385527003012
0.564000000000000390,-4.729028713702254194
0.565000000000000391,-4.706967954788484398
0.566000000000000392,-4.684760581963425707
0.567000000000000393,-4.662410093657181953
0.568000000000000393,-4.639920011062975469
0.569000000000000394,-4.617293875712738860
0.570000000000000395,-4.594535247116757759
0.571000000000000396,-4.571647700466513697
0.572000000000000397,-4.548634824400019205
0.573000000000000398,-4.525500218828761412
0.574000000000000399,-4.502247492825437902
0.575000000000000400,-4.478880262571665050
0.576000000000000401,-4.455402149364775966
0.577000000000000401,-4.431816777682920261
0.578000000000000402,-4.408127773307510822
0.579000000000000403,-4.384338761502229787
0.580000000000000404,-4.360453365247682456
0.581000000000000405,-4.336475203530847367
0.582000000000000406,-4.312407889688405938
0.583000000000000407,-4.288255029803094587
0.584000000000000408,-4.264020221152222234
0.585000000000000409,-4.239707050707409941
0.586000000000000409,-4.215319093684700036
0.587000000000000410,-4.190859912144190957
0.588000000000000411,-4.166333053638221706
0.589000000000000412,-4.141742049907323420
0.590000000000000413,-4.117090415622982391
0.591000000000000414,-4.092381647176392967
0.592000000000000415,-4.067619221512321914
0.593000000000000416,-4.042806595007162329
0.594000000000000417,-4.017947202390378614
0.595000000000000417,-3.993044455708499640
0.596000000000000418,-3.968101743330657794
0.597000000000000419,-3.943122428995090356
0.598000000000000420,-3.918109850895457047
0.599000000000000421,-3.893067320806403497
0.600000000000000422,-3.867998123247354592
0.601000000000000423,-3.842905514683845780
0.602000000000000424,-3.817792722765476210
0.603000000000000425,-3.792662945599771795
0.604000000000000425,-3.767519351061064725
0.605000000000000426,-3.742365076133693069
0.606000000000000427,-3.717203226288679385
0.607000000000000428,-3.692036874893100951
0.608000000000000429,-3.666869062651471722
0.609000000000000430,-3.641702797078262055
