# Fe001_ILESCA-AC
# h[nm],U(h)[kJ/mol]
0.149999999999999994,110.521292126303961822
0.150999999999999995,106.486816955997781520
0.151999999999999996,102.430176019280409605
0.152999999999999997,98.363448989609324258
0.153999999999999998,94.370765203520534214
0.154999999999999999,90.523513365717093393
0.156000000000000000,86.856025982229439819
0.157000000000000001,83.368319174803758642
0.158000000000000002,80.038103398365137764
0.159000000000000002,76.833422438562465118
0.160000000000000003,73.722393982320795658
0.161000000000000004,70.679206165101035708
0.162000000000000005,67.686781169332320474
0.163000000000000006,64.736978422480646600
0.164000000000000007,61.829258427332675296
0.165000000000000008,58.968588233067329440
0.166000000000000009,56.163166688269313909
0.167000000000000010,53.422347153799805142
0.168000000000000010,50.754966798726506738
0.169000000000000011,48.168164288583191990
0.170000000000000012,45.666680363197450276
0.171000000000000013,43.252582418888849247
0.172000000000000014,40.925327130915398754
0.173000000000000015,38.682066945768546873
0.174000000000000016,36.518110526786138337
0.175000000000000017,34.427458841709679405
0.176000000000000018,32.403353723787475360
0.177000000000000018,30.438791748724469244
0.178000000000000019,28.526971414214877143
0.179000000000000020,26.661654876208615406
0.180000000000000021,24.837436405866647249
0.181000000000000022,23.049918170423001840
0.182000000000000023,21.295800035196002398
0.183000000000000024,19.572894097813630765
0.184000000000000025,17.880076932457946270
0.185000000000000026,16.217193393108807697
0.186000000000000026,14.584925637881545057
0.187000000000000027,12.984640095729753639
0.188000000000000028,11.418223662856378908
0.189000000000000029,9.887918703419206423
0.190000000000000030,8.396164606308644807
0.191000000000000031,6.945451843962222149
0.192000000000000032,5.538192780864617859
0.193000000000000033,4.176611948302861421
0.194000000000000034,2.862657172863955601
0.195000000000000034,1.597931834240642335
0.196000000000000035,0.383647633588589443
0.197000000000000036,-0.779403433211918517
0.198000000000000037,-1.890859699768482560
0.199000000000000038,-2.950785181412323599
0.200000000000000039,-3.959651969332187882
0.201000000000000040,-4.918312043140140588
0.202000000000000041,-5.827960843824335768
0.203000000000000042,-6.690094839077119104
0.204000000000000042,-7.506465147382053615
0.205000000000000043,-8.279029083349682239
0.206000000000000044,-9.009901259473190649
0.207000000000000045,-9.701305641115027356
0.208000000000000046,-10.355529712185704838
0.209000000000000047,-10.974881676521887286
0.210000000000000048,-11.561651400370026366
0.211000000000000049,-12.118075598892811939
0.212000000000000050,-12.646307587055517274
0.213000000000000050,-13.148391754210758009
0.214000000000000051,-13.626242782797058695
0.215000000000000052,-14.081629514612640008
0.216000000000000053,-14.516163272332494927
0.217000000000000054,-14.931290368063168117
0.218000000000000055,-15.328288473219298993
0.219000000000000056,-15.708266483100633337
0.220000000000000057,-16.072167483386532894
0.221000000000000058,-16.420774412444799850
0.222000000000000058,-16.754718011012897705
0.223000000000000059,-17.074486657648723309
0.224000000000000060,-17.380437702682918655
0.225000000000000061,-17.672809933672617433
0.226000000000000062,-17.951736830141594936
0.227000000000000063,-18.217260293429774265
0.228000000000000064,-18.469344567650498590
0.229000000000000065,-18.707890099106471382
0.230000000000000066,-18.932747113220308677
0.231000000000000066,-19.143728719412603567
0.232000000000000067,-19.340623384846573174
0.233000000000000068,-19.523206647109596190
0.234000000000000069,-19.691251963375396627
0.235000000000000070,-19.844540619134150461
0.236000000000000071,-19.982870643019879253
0.237000000000000072,-20.106064695502613660
0.238000000000000073,-20.213976918201641553
0.239000000000000073,-20.306498747319949416
0.240000000000000074,-20.383563709245358098
0.241000000000000075,-20.445151228784759212
0.242000000000000076,-20.491289490898456194
0.243000000000000077,-20.522057405301580957
0.244000000000000078,-20.537585730034017217
0.245000000000000079,-20.538057415210388967
0.246000000000000080,-20.523707231796787909
0.247000000000000081,-20.494820752568642774
0.248000000000000081,-20.451732753531565834
0.249000000000000082,-20.394825104177979114
0.250000000000000111,-20.324524214145302636
0.251000000000000112,-20.241298102265016468
0.252000000000000113,-20.145653151773196043
0.253000000000000114,-20.038130612701422706
0.254000000000000115,-19.919302909293087112
0.255000000000000115,-19.789769806785688644
0.256000000000000116,-19.650154488154822019
0.257000000000000117,-19.501099587507248145
0.258000000000000118,-19.343263222806310608
0.259000000000000119,-19.177315066576920088
0.260000000000000120,-19.003932489218676949
0.261000000000000121,-18.823796805601638482
0.262000000000000122,-18.637589651767147103
0.263000000000000123,-18.445989514837503265
0.264000000000000123,-18.249668435679339495
0.265000000000000124,-18.049288900485400688
0.266000000000000125,-17.845500934255149161
0.267000000000000126,-17.638939406175541791
0.268000000000000127,-17.430221554137602880
0.269000000000000128,-17.219944733075884358
0.270000000000000129,-17.008684389486834476
0.271000000000000130,-16.796992262366973847
0.272000000000000131,-16.585394808909711628
0.273000000000000131,-16.374391851602901227
0.274000000000000132,-16.164455441873123220
0.275000000000000133,-15.956028934117298945
0.276000000000000134,-15.749526262838156043
0.277000000000000135,-15.545331414649373514
0.278000000000000136,-15.343798086125426394
0.279000000000000137,-15.145249517831988584
0.280000000000000138,-14.949978494373741711
0.281000000000000139,-14.758247499924962653
0.282000000000000139,-14.570289018456511698
0.283000000000000140,-14.386305967727290422
0.284000000000000141,-14.206472256060331816
0.285000000000000142,-14.030933450962823628
0.286000000000000143,-13.859807548765829210
0.287000000000000144,-13.693185834644339138
0.288000000000000145,-13.531133822622999574
0.289000000000000146,-13.373692265468694274
0.290000000000000147,-13.220878224711148263
0.291000000000000147,-13.072686191409005119
0.292000000000000148,-12.929089248685704305
0.293000000000000149,-12.790040267489533932
0.294000000000000150,-12.655473127481045026
0.295000000000000151,-12.525303955413154000
0.296000000000000152,-12.399432373839083255
0.297000000000000153,-12.277742753458616320
0.298000000000000154,-12.160105462887766947
0.299000000000000155,-12.046378110109797532
0.300000000000000155,-11.936406770332064653
0.301000000000000156,-11.830027195431508602
0.302000000000000157,-11.727066000619322139
0.303000000000000158,-11.627341824390674319
0.304000000000000159,-11.530666458246631834
0.305000000000000160,-11.436845943080751198
0.306000000000000161,-11.345681629512336386
0.307000000000000162,-11.256971199819961527
0.308000000000000163,-11.170509649482388781
0.309000000000000163,-11.086090226669458758
0.310000000000000164,-11.003505328341722347
0.311000000000000165,-10.922547351915035563
0.312000000000000166,-10.843009501725081378
0.313000000000000167,-10.764686549786393499
0.314000000000000168,-10.687375550581728945
0.315000000000000169,-10.610876509840799997
0.316000000000000170,-10.534993007472483129
0.317000000000000171,-10.459532775002811533
0.318000000000000171,-10.384308228041886579
0.319000000000000172,-10.309136954458306690
0.320000000000000173,-10.233842159078829326
0.321000000000000174,-10.158253065855708641
0.322000000000000175,-10.082205278554427608
0.323000000000000176,-10.005541101111514735
0.324000000000000177,-9.928109818895919148
0.325000000000000178,-9.849767942179340707
0.326000000000000179,-9.770379413181700556
0.327000000000000179,-9.689815778107078614
0.328000000000000180,-9.607956325625675476
0.329000000000000181,-9.524688193287749627
0.330000000000000182,-9.439906443376557377
0.331000000000000183,-9.353514109721908554
0.332000000000000184,-9.265422217001425764
0.333000000000000185,-9.175549774056488417
0.334000000000000186,-9.083823742742890062
0.335000000000000187,-8.990178983823884806
0.336000000000000187,-8.894558181395748164
0.337000000000000188,-8.796911747313684415
0.338000000000000189,-8.697197707059910243
0.339000000000000190,-8.595381568465480626
0.340000000000000191,-8.491436174664276137
0.341000000000000192,-8.385341542622041899
0.342000000000000193,-8.277084688544043445
0.343000000000000194,-8.166659441425434096
0.344000000000000195,-8.054066245965305626
0.345000000000000195,-7.939311956022454986
0.346000000000000196,-7.822409619745731568
0.347000000000000197,-7.703378257466313883
0.348000000000000198,-7.582242633393379450
0.349000000000000199,-7.459033022107526278
0.350000000000000200,-7.333784970800330427
0.351000000000000201,-7.206539058161068212
0.352000000000000202,-7.077340650765814090
0.353000000000000203,-6.946239657777768528
0.354000000000000203,-6.813290284722233636
0.355000000000000204,-6.678550787054905236
0.356000000000000205,-6.542083224198023572
0.357000000000000206,-6.403953214675832228
0.358000000000000207,-6.264229692938304339
0.359000000000000208,-6.122984668421430854
0.360000000000000209,-5.980292987351772283
0.361000000000000210,-5.836232097764485260
0.362000000000000210,-5.690881818166079853
0.363000000000000211,-5.544324110236978242
0.364000000000000212,-5.396642855933693639
0.365000000000000213,-5.247923639316566025
0.366000000000000214,-5.098253533396633230
0.367000000000000215,-4.947720892263913761
0.368000000000000216,-4.796415148729645139
0.369000000000000217,-4.644426617686386649
0.370000000000000218,-4.491846305362902747
0.371000000000000218,-4.338765724624666476
0.372000000000000219,-4.185276716446441725
0.373000000000000220,-4.031471277660000574
0.374000000000000221,-3.877441395058155216
0.375000000000000222,-3.723278885915342507
0.376000000000000223,-3.569075244965493887
0.377000000000000224,-3.414921497859653154
0.378000000000000225,-3.260908061108374945
0.379000000000000226,-3.107124608497922047
0.380000000000000226,-2.953659943954368927
0.381000000000000227,-2.800601880815412503
0.382000000000000228,-2.648037127457146589
0.383000000000000229,-2.496051179210822646
0.384000000000000230,-2.344728216493511930
0.385000000000000231,-2.194151009066877211
0.386000000000000232,-2.044400826328508725
0.387000000000000233,-1.895557353532238976
0.388000000000000234,-1.747698613826056402
0.389000000000000234,-1.600900895989585404
0.390000000000000235,-1.455238687746684079
0.391000000000000236,-1.310784614523744507
0.392000000000000237,-1.167609383519013999
0.393000000000000238,-1.025781732944669233
0.394000000000000239,-0.885368386299364318
0.395000000000000240,-0.746434011526374230
0.396000000000000241,-0.609041184909865030
0.397000000000000242,-0.473250359559815537
0.398000000000000242,-0.339119838334930646
0.399000000000000243,-0.206705751051590253
0.400000000000000244,-0.076062035826249486
0.401000000000000245,0.052759575601030749
0.402000000000000246,0.179709568714716134
0.403000000000000247,0.304740653395641270
0.404000000000000248,0.427807767567573438
0.405000000000000249,0.548868077468874338
0.406000000000000250,0.667880974697934393
0.407000000000000250,0.784808070179627171
0.408000000000000251,0.899613185198223086
0.409000000000000252,1.012262339639971476
0.410000000000000253,1.122723737586718062
0.411000000000000254,1.230967750399107219
0.412000000000000255,1.336966897425773793
0.413000000000000256,1.440695824471980746
0.414000000000000257,1.542131280158592244
0.415000000000000258,1.641252090299173405
0.416000000000000258,1.738039130420175216
0.417000000000000259,1.832475296546060450
0.418000000000000260,1.924545474368004161
0.419000000000000261,2.014236506911835534
0.420000000000000262,2.101537160817331884
0.421000000000000263,2.186438091338054779
0.422000000000000264,2.268931806167336251
0.423000000000000265,2.349012628193005270
0.424000000000000266,2.426676657279753790
0.425000000000000266,2.501921731175135832
0.426000000000000267,2.574747385631613650
0.427000000000000268,2.645154813833831220
0.428000000000000269,2.713146825217094271
0.429000000000000270,2.778727803759682757
0.430000000000000271,2.841903665828486858
0.431000000000000272,2.902681817654243268
0.432000000000000273,2.961071112509490177
0.433000000000000274,3.017081807659270254
0.434000000000000274,3.070725521151600024
0.435000000000000275,3.122015188511651385
0.436000000000000276,3.170965019400686202
0.437000000000000277,3.217590454297918345
0.438000000000000278,3.261908121260573612
0.439000000000000279,3.303935792814696182
0.440000000000000280,3.343692343026534619
0.441000000000000281,3.381197704801716775
0.442000000000000282,3.416472827456705552
0.443000000000000282,3.449539634604771088
0.444000000000000283,3.480420982395957541
0.445000000000000284,3.509140618148339108
0.446000000000000285,3.535723139405609228
0.447000000000000286,3.560193953453446802
0.448000000000000287,3.582579237325391741
0.449000000000000288,3.602905898326472567
0.450000000000000289,3.621201535100969870
0.451000000000000290,3.637494399268685896
0.452000000000000290,3.651813357652170744
0.453000000000000291,3.664187855115502934
0.454000000000000292,3.674647878033437287
0.455000000000000293,3.683223918408068620
0.456000000000000294,3.689946938648415831
0.457000000000000295,3.694848337026908958
0.458000000000000296,3.697959913824940603
0.459000000000000297,3.699313838178599045
0.460000000000000298,3.698942615633821873
0.461000000000000298,3.696879056419347442
0.462000000000000299,3.693156244444071312
0.463000000000000300,3.687807507024618126
0.464000000000000301,3.680866385347461467
0.465000000000000302,3.672366605668943684
0.466000000000000303,3.662342051255424114
0.467000000000000304,3.650826735064884421
0.468000000000000305,3.637854773170079881
0.469000000000000306,3.623460358922764524
0.470000000000000306,3.607677737857397204
0.471000000000000307,3.590541183331944719
0.472000000000000308,3.572084972902736411
0.473000000000000309,3.552343365429476929
0.474000000000000310,3.531350578905885662
0.475000000000000311,3.509140769010694161
0.476000000000000312,3.485748008373324325
0.477000000000000313,3.461206266547725896
0.478000000000000314,3.435549390687537397
0.479000000000000314,3.408811086915115141
0.480000000000000315,3.381024902376549512
0.481000000000000316,3.352224207974362713
0.482000000000000317,3.322442181769144298
0.483000000000000318,3.291711793041068201
0.484000000000000319,3.260065787001848125
0.485000000000000320,3.227536670147387987
0.486000000000000321,3.194156696241140292
0.487000000000000322,3.159957852917867349
0.488000000000000322,3.124971848897295512
0.489000000000000323,3.089230101797018069
0.490000000000000324,3.052763726533660904
0.491000000000000325,3.015603524301316618
0.492000000000000326,2.977779972116029406
0.493000000000000327,2.939323212915061934
0.494000000000000328,2.900263046199447636
0.495000000000000329,2.860628919208443754
0.496000000000000330,2.820449918614216678
0.497000000000000330,2.779754762725290984
0.498000000000000331,2.738571794186946740
0.499000000000000332,2.696928973167159960
0.500000000000000333,2.654853871016206845
0.501000000000000334,2.612373664388420114
0.502000000000000335,2.569515129814469390
0.503000000000000336,2.526304638712590478
0.504000000000000337,2.482768152827223851
0.505000000000000338,2.438931220083611962
0.506000000000000338,2.394818970846972483
0.507000000000000339,2.350456114574912103
0.508000000000000340,2.305866936851836968
0.509000000000000341,2.261075296794344602
0.510000000000000342,2.216104624816392921
0.511000000000000343,2.170977920743489609
0.512000000000000344,2.125717752265019023
0.513000000000000345,2.080346253714102644
0.514000000000000346,2.034885125164373143
0.515000000000000346,1.989355631833348070
0.516000000000000347,1.943778603782085002
0.517000000000000348,1.898174435901012647
0.518000000000000349,1.852563088171974570
0.519000000000000350,1.806964086196710229
0.520000000000000351,1.761396521981994479
0.521000000000000352,1.715879054972110795
0.522000000000000353,1.670429913319180004
0.523000000000000353,1.625066895382196730
0.524000000000000354,1.579807371445872022
0.525000000000000355,1.534668285650246711
0.526000000000000356,1.489666158122609385
0.527000000000000357,1.444817087303092329
0.528000000000000358,1.400136752455581446
0.529000000000000359,1.355640416355978761
0.530000000000000360,1.311342928149562326
0.531000000000000361,1.267258726369850708
0.532000000000000361,1.223401842111188742
0.533000000000000362,1.179785902347668003
0.534000000000000363,1.136424133391028102
0.535000000000000364,1.093329364480431831
0.536000000000000365,1.050514031497165490
0.537000000000000366,1.007990180797456281
0.538000000000000367,0.965769473156772529
0.539000000000000368,0.923863187819219056
0.540000000000000369,0.882282226645623724
0.541000000000000369,0.841037118354329927
0.542000000000000370,0.800138022848609465
0.543000000000000371,0.759594735624979700
0.544000000000000372,0.719416692256730550
0.545000000000000373,0.679612972947244431
0.546000000000000374,0.640192307147682382
0.547000000000000375,0.601163078233980297
0.548000000000000376,0.562533328238035701
0.549000000000000377,0.524310762628295901
0.550000000000000377,0.486502755134952392
0.551000000000000378,0.449116352615212322
0.552000000000000379,0.412158279954220663
0.553000000000000380,0.375634944997292386
0.554000000000000381,0.339552443509345936
0.555000000000000382,0.303916564157516056
0.556000000000000383,0.268732793513033641
0.557000000000000384,0.234006321068674833
0.558000000000000385,0.199742044268102548
0.559000000000000385,0.165944573543639423
0.560000000000000386,0.132618237359123814
0.561000000000000387,0.099767087254545112
0.562000000000000388,0.067394902889380132
0.563000000000000389,0.035505197081602727
0.564000000000000390,0.004101220839490660
0.565000000000000391,-0.026814031616589705
0.566000000000000392,-0.057237817845050998
0.567000000000000393,-0.087167642189181632
0.568000000000000393,-0.116601250800928868
0.569000000000000394,-0.145536626684756726
0.570000000000000395,-0.173971984763750726
0.571000000000000396,-0.201905766970213729
0.572000000000000397,-0.229336637362763163
0.573000000000000398,-0.256263477271908346
0.574000000000000399,-0.282685380475966364
0.575000000000000400,-0.308601648409157991
0.576000000000000401,-0.334011785403493300
0.577000000000000401,-0.358915493966133758
0.578000000000000402,-0.383312670093760743
0.579000000000000403,-0.407203398625341939
0.580000000000000404,-0.430587948634729933
0.581000000000000405,-0.453466768864380920
0.582000000000000406,-0.475840483201375619
0.583000000000000407,-0.497709886196968487
0.584000000000000408,-0.519075938630676803
0.585000000000000409,-0.539939763119951621
0.586000000000000409,-0.560302639776411260
0.587000000000000410,-0.580166001909474205
0.588000000000000411,-0.599531431778231427
0.589000000000000412,-0.618400656392348980
0.590000000000000413,-0.636775543362660401
0.591000000000000414,-0.654658096802146816
0.592000000000000415,-0.672050453277842630
0.593000000000000416,-0.688954877814270450
0.594000000000000417,-0.705373759948871859
0.595000000000000417,-0.721309609839819954
0.596000000000000418,-0.736765054426732124
0.597000000000000419,-0.751742833644491015
0.598000000000000420,-0.766245796690587122
0.599000000000000421,-0.780276898346168757
0.600000000000000422,-0.793839195351076943
0.601000000000000423,-0.806935842832973593
0.602000000000000424,-0.819570090790776029
0.603000000000000425,-0.831745280632473105
0.604000000000000425,-0.843464841767343487
0.605000000000000426,-0.854732288252690764
0.606000000000000427,-0.865551215495030446
0.607000000000000428,-0.875925297005729186
0.608000000000000429,-0.885858281211014953
0.609000000000000430,-0.895353988316279881
0.610000000000000431,-0.904416307224551241
0.611000000000000432,-0.913049192508965213
0.612000000000000433,-0.921256661439103675
0.613000000000000433,-0.929042791060978423
0.614000000000000434,-0.936411715330420669
