# Fe001_PHO-AC
# h[nm],U(h)[kJ/mol]
0.149999999999999994,132.192038772911701017
0.150999999999999995,127.771711898322152479
0.151999999999999996,123.797044713611597899
0.152999999999999997,119.905380151885012197
0.153999999999999998,115.984646196750688318
0.154999999999999999,112.035127370369679056
0.156000000000000000,108.096107539911713502
0.157000000000000001,104.210408202719833071
0.158000000000000002,100.410068326118590676
0.159000000000000002,96.713030345802238230
0.160000000000000003,93.124912656358603158
0.161000000000000004,89.642579659097265221
0.162000000000000005,86.257819116297795858
0.163000000000000006,82.960373846535077291
0.164000000000000007,79.740096597759674069
0.165000000000000008,76.588264410975227747
0.166000000000000009,73.498205967381977644
0.167000000000000010,70.465428187586738318
0.168000000000000010,67.487417445775847114
0.169000000000000011,64.563260519286714612
0.170000000000000012,61.693194687558253975
0.171000000000000013,58.878162551279658032
0.172000000000000014,56.119418521394628385
0.173000000000000015,53.418211582827254347
0.174000000000000016,50.775552672541444110
0.175000000000000017,48.192064026305359903
0.176000000000000018,45.667901125577891719
0.177000000000000018,43.202734394713829147
0.178000000000000019,40.795776645298950314
0.179000000000000020,38.445842676992917575
0.180000000000000021,36.151428821290373605
0.181000000000000022,33.910802103469009694
0.182000000000000023,31.722090774253196344
0.183000000000000024,29.583370006581208855
0.184000000000000025,27.492738426305642463
0.185000000000000026,25.448382772054277012
0.186000000000000026,23.448629326417485430
0.187000000000000027,21.491981826045069681
0.188000000000000028,19.577146359602227932
0.189000000000000029,17.703044328749498959
0.190000000000000030,15.868814912783964388
0.191000000000000031,14.073808678125663718
0.192000000000000032,12.317574043955264784
0.193000000000000033,10.599838286517865527
0.194000000000000034,8.920484664549025666
0.195000000000000034,7.279527100350645874
0.196000000000000035,5.677083674454867612
0.197000000000000036,4.113350001810305301
0.198000000000000037,2.588573365705680640
0.199000000000000038,1.103028300819896002
0.200000000000000039,-0.343005855144826177
0.201000000000000040,-1.749265076975770938
0.202000000000000041,-3.115518206632082343
0.203000000000000042,-4.441581835711649440
0.204000000000000042,-5.727332501395180131
0.205000000000000043,-6.972716260023409163
0.206000000000000044,-8.177755763711243020
0.207000000000000045,-9.342555011120948549
0.208000000000000046,-10.467301975559182736
0.209000000000000047,-11.552269333819305430
0.210000000000000048,-12.597813529516187714
0.211000000000000049,-13.604372406810105289
0.212000000000000050,-14.572461646015971937
0.213000000000000050,-15.502670223099517699
0.214000000000000051,-16.395655101774135431
0.215000000000000052,-17.252135350947700232
0.216000000000000053,-18.072885862583468963
0.217000000000000054,-18.858730826431596483
0.218000000000000055,-19.610537099207949296
0.219000000000000056,-20.329207587162954951
0.220000000000000057,-21.015674743005167358
0.221000000000000058,-21.670894261111875778
0.222000000000000058,-22.295839039101373658
0.223000000000000059,-22.891493459284770751
0.224000000000000060,-23.458848030348779190
0.225000000000000061,-23.998894417869959028
0.226000000000000062,-24.512620881915246684
0.227000000000000063,-25.001008131004418544
0.228000000000000064,-25.465025594030407774
0.229000000000000065,-25.905628105276310436
0.230000000000000066,-26.323752992336928003
0.231000000000000066,-26.720317552454464050
0.232000000000000067,-27.096216899407078671
0.233000000000000068,-27.452322160547350194
0.234000000000000069,-27.789479001774498812
0.235000000000000070,-28.108506457045969285
0.236000000000000071,-28.410196038399799789
0.237000000000000072,-28.695311102288496130
0.238000000000000073,-28.964586448237941596
0.239000000000000073,-29.218728126373640919
0.240000000000000074,-29.458413431139355509
0.241000000000000075,-29.684291059512155186
0.242000000000000076,-29.896981413144807505
0.243000000000000077,-30.097077025099885361
0.244000000000000078,-30.285143093141492443
0.245000000000000079,-30.461718102888170279
0.246000000000000080,-30.627314525480613838
0.247000000000000081,-30.782419575756030383
0.248000000000000081,-30.927496018230055341
0.249000000000000082,-31.062983009453763117
0.250000000000000111,-31.189296966526097066
0.251000000000000112,-31.306832452691669033
0.252000000000000113,-31.415963072038003645
0.253000000000000114,-31.517042366315184410
0.254000000000000115,-31.610404707840427108
0.255000000000000115,-31.696366183311916132
0.256000000000000116,-31.775225464147098364
0.257000000000000117,-31.847264659679062504
0.258000000000000118,-31.912750150192728427
0.259000000000000119,-31.971933397365898344
0.260000000000000120,-32.025051730200090105
0.261000000000000121,-32.072329104985399795
0.262000000000000122,-32.113976838250550827
0.263000000000000123,-32.150194312001339370
0.264000000000000123,-32.181169650859075659
0.265000000000000124,-32.207080370972576588
0.266000000000000125,-32.228094000802613550
0.267000000000000126,-32.244368674064887159
0.268000000000000127,-32.256053695275419102
0.269000000000000128,-32.263290078468806144
0.270000000000000129,-32.266211059762937907
0.271000000000000130,-32.264942584523858216
0.272000000000000131,-32.259603769944348528
0.273000000000000131,-32.250307343893588552
0.274000000000000132,-32.237160060923343963
0.275000000000000133,-32.220263096332644182
0.276000000000000134,-32.199712419197567215
0.277000000000000135,-32.175599145269373480
0.278000000000000136,-32.148009870633153184
0.279000000000000137,-32.117026987001878524
0.280000000000000138,-32.082728979498796207
0.281000000000000139,-32.045190707755821791
0.282000000000000139,-32.004483671126408240
0.283000000000000140,-31.960676258781933967
0.284000000000000141,-31.913833985427839224
0.285000000000000142,-31.864019713344283957
0.286000000000000143,-31.811293861422711871
0.287000000000000144,-31.755714601837677691
0.288000000000000145,-31.697338044961306025
0.289000000000000146,-31.636218413096532487
0.290000000000000147,-31.572408203575445640
0.291000000000000147,-31.505958341739738415
0.292000000000000148,-31.436918324293380067
0.293000000000000149,-31.365336353490569365
0.294000000000000150,-31.291259462598059571
0.295000000000000151,-31.214733633047046624
0.296000000000000152,-31.135803903668108461
0.297000000000000153,-31.054514472382457768
0.298000000000000154,-30.970908790703326474
0.299000000000000155,-30.885029651383739235
0.300000000000000155,-30.796919269530615537
0.301000000000000156,-30.706619357489511657
0.302000000000000157,-30.614171193790649994
0.303000000000000158,-30.519615686433400725
0.304000000000000159,-30.422993430774845081
0.305000000000000160,-30.324344762276275844
0.306000000000000161,-30.223709804351649666
0.307000000000000162,-30.121128511552530682
0.308000000000000163,-30.016640708314668018
0.309000000000000163,-29.910286123483821541
0.310000000000000164,-29.802104420830250575
0.311000000000000165,-29.692135225754519468
0.312000000000000166,-29.580418148380335452
0.313000000000000167,-29.466992803223881481
0.314000000000000168,-29.351898825623276679
0.315000000000000169,-29.235175885105796567
0.316000000000000170,-29.116863695865571771
0.317000000000000171,-28.997002024518838681
0.318000000000000171,-28.875630695299044248
0.319000000000000172,-28.752789592849335776
0.320000000000000173,-28.628518662765088720
0.321000000000000174,-28.502857910034681055
0.322000000000000175,-28.375847395522203698
0.323000000000000176,-28.247527230631341411
0.324000000000000177,-28.117937570285523208
0.325000000000000178,-27.987118604354570550
0.326000000000000179,-27.855110547654863495
0.327000000000000179,-27.721953628644648404
0.328000000000000180,-27.587688076932739278
0.329000000000000181,-27.452354109714644181
0.330000000000000182,-27.315991917245405318
0.331000000000000183,-27.178641647455332730
0.332000000000000184,-27.040343389809777364
0.333000000000000185,-26.901137158510657343
0.334000000000000186,-26.761062875133358574
0.335000000000000187,-26.620160350788118819
0.336000000000000187,-26.478469267892091210
0.337000000000000188,-26.336029161632989570
0.338000000000000189,-26.192879401202723955
0.339000000000000190,-26.049059170874663494
0.340000000000000191,-25.904607450994525664
0.341000000000000192,-25.759562998951697210
0.342000000000000193,-25.613964330193311980
0.343000000000000194,-25.467849699340643355
0.344000000000000195,-25.321257081462775318
0.345000000000000195,-25.174224153560359696
0.346000000000000196,-25.026788276307524228
0.347000000000000197,-24.878986476097640690
0.348000000000000198,-24.730855427434907057
0.349000000000000199,-24.582431435710610401
0.350000000000000200,-24.433750420400116354
0.351000000000000201,-24.284847898713113779
0.352000000000000202,-24.135758969727312717
0.353000000000000203,-23.986518299032546508
0.354000000000000203,-23.837160103909678099
0.355000000000000204,-23.687718139066141987
0.356000000000000205,-23.538225682947164330
0.357000000000000206,-23.388715524639753340
0.358000000000000207,-23.239219951383446983
0.359000000000000208,-23.089770736700465648
0.360000000000000209,-22.940399129155018443
0.361000000000000210,-22.791135841749856183
0.362000000000000210,-22.642011041966146223
0.363000000000000211,-22.493054342450712113
0.364000000000000212,-22.344294792353302626
0.365000000000000213,-22.195760869314312913
0.366000000000000214,-22.047480472102432003
0.367000000000000215,-21.899480913899598278
0.368000000000000216,-21.751788916229866544
0.369000000000000217,-21.604430603526786570
0.370000000000000218,-21.457431498333299658
0.371000000000000218,-21.310816517126703218
0.372000000000000219,-21.164609966759933002
0.373000000000000220,-21.018835541510142662
0.374000000000000221,-20.873516320723844331
0.375000000000000222,-20.728674767047586158
0.376000000000000223,-20.584332725232094674
0.377000000000000224,-20.440511421497330247
0.378000000000000225,-20.297231463445093880
0.379000000000000226,-20.154512840505255156
0.380000000000000226,-20.012374924901514817
0.381000000000000227,-19.870836473121507026
0.382000000000000228,-19.729915627876508211
0.383000000000000229,-19.589629920534914476
0.384000000000000230,-19.449996274013763298
0.385000000000000231,-19.311031006112532538
0.386000000000000232,-19.172749833272668241
0.387000000000000233,-19.035167874746786509
0.388000000000000234,-18.898299657160951170
0.389000000000000234,-18.762159119453780676
0.390000000000000235,-18.626759618175597666
0.391000000000000236,-18.492113933131445691
0.392000000000000237,-18.358234273351296650
0.393000000000000238,-18.225132283371468844
0.394000000000000239,-18.092819049810579202
0.395000000000000240,-17.961305108224404847
0.396000000000000241,-17.830600450223535347
0.397000000000000242,-17.700714530837981187
0.398000000000000242,-17.571656276113667872
0.399000000000000243,-17.443434090925034496
0.400000000000000244,-17.316055866989035650
0.401000000000000245,-17.189528991065792241
0.402000000000000246,-17.063860353331353537
0.403000000000000247,-16.939056355908284957
0.404000000000000248,-16.815122921540506695
0.405000000000000249,-16.692065502398634180
0.406000000000000250,-16.569889089002654003
0.407000000000000250,-16.448598219249046082
0.408000000000000251,-16.328196987529931761
0.409000000000000252,-16.208689053931884416
0.410000000000000253,-16.090077653502767419
0.411000000000000254,-15.972365605574960767
0.412000000000000255,-15.855555323133998513
0.413000000000000256,-15.739648822221889546
0.414000000000000257,-15.624647731364532888
0.415000000000000258,-15.510553301013525029
0.416000000000000258,-15.397366412992488094
0.417000000000000259,-15.285087589938711972
0.418000000000000260,-15.173717004731219760
0.419000000000000261,-15.063254489896573673
0.420000000000000262,-14.953699546984418944
0.421000000000000263,-14.845051355904752555
0.422000000000000264,-14.737308784219413482
0.423000000000000265,-14.630470396380729881
0.424000000000000266,-14.524534462910466459
0.425000000000000266,-14.419498969512568820
0.426000000000000267,-14.315361626113556781
0.427000000000000268,-14.212119875824745563
0.428000000000000269,-14.109770903820782806
0.429000000000000270,-14.008311646129305572
0.430000000000000271,-13.907738798326789720
0.431000000000000272,-13.808048824136031740
0.432000000000000273,-13.709237963920916314
0.433000000000000274,-13.611302243074481666
0.434000000000000274,-13.514237480296490190
0.435000000000000275,-13.418039295757065332
0.436000000000000276,-13.322703119143190165
0.437000000000000277,-13.228224197584996347
0.438000000000000278,-13.134597603459264192
0.439000000000000279,-13.041818242067629185
0.440000000000000280,-12.949880859187132387
0.441000000000000281,-12.858780048491251335
0.442000000000000282,-12.768510258839548044
0.443000000000000282,-12.679065801434287408
0.444000000000000283,-12.590440856842732842
0.445000000000000284,-12.502629481883879237
0.446000000000000285,-12.415625616378523688
0.447000000000000286,-12.329423089762139298
0.448000000000000287,-12.244015627559445392
0.449000000000000288,-12.159396857720702556
0.450000000000000289,-12.075560316818954476
0.451000000000000290,-11.992499456108358658
0.452000000000000290,-11.910207647443431966
0.453000000000000291,-11.828678189059321113
0.454000000000000292,-11.747904311213508421
0.455000000000000293,-11.667879181689038148
0.456000000000000294,-11.588595911160087581
0.457000000000000295,-11.510047558420243519
0.458000000000000296,-11.432227135474331448
0.459000000000000297,-11.355127612494625211
0.460000000000000298,-11.278741922642288031
0.461000000000000298,-11.203062966755128471
0.462000000000000299,-11.128083617902751357
0.463000000000000300,-11.053796725810299151
0.464000000000000301,-10.980195121152018345
0.465000000000000302,-10.907271619716036426
0.466000000000000303,-10.835019026441731427
0.467000000000000304,-10.763430139331102708
0.468000000000000305,-10.692497753235794988
0.469000000000000306,-10.622214663521196698
0.470000000000000306,-10.552573669609449425
0.471000000000000307,-10.483567578402759324
0.472000000000000308,-10.415189207589047982
0.473000000000000309,-10.347431388831440202
0.474000000000000310,-10.280286970843523164
0.475000000000000311,-10.213748822352108903
0.476000000000000312,-10.147809834949514496
0.477000000000000313,-10.082462925836988887
0.478000000000000314,-10.017701040461375328
0.479000000000000314,-9.953517155046897713
0.480000000000000315,-9.889904279023884470
0.481000000000000316,-9.826855457356572288
0.482000000000000317,-9.764363772771734062
0.483000000000000318,-9.702422347890266252
0.484000000000000319,-9.641024347263574157
0.485000000000000320,-9.580162979316868999
0.486000000000000321,-9.519831498201208220
0.487000000000000322,-9.460023205556344905
0.488000000000000322,-9.400731452186303017
0.489000000000000323,-9.341949639649712367
0.490000000000000324,-9.283671221766796933
0.491000000000000325,-9.225889706045030891
0.492000000000000326,-9.168598655025284927
0.493000000000000327,-9.111791687550587326
0.494000000000000328,-9.055462479959231814
0.495000000000000329,-8.999604767204269606
0.496000000000000330,-8.944212343901190465
0.497000000000000330,-8.889279065305709437
0.498000000000000331,-8.834798848223504919
0.499000000000000332,-8.780765671853785648
0.500000000000000333,-8.727173578568404366
0.501000000000000334,-8.674016674628447277
0.502000000000000335,-8.621289130839945969
0.503000000000000336,-8.568985183150617857
0.504000000000000337,-8.517099133189216076
0.505000000000000338,-8.465625348749309609
0.506000000000000338,-8.414558264219124339
0.507000000000000339,-8.363892380959132566
0.508000000000000340,-8.313622267629018125
0.509000000000000341,-8.263742560465649589
0.510000000000000342,-8.214247963513612305
0.511000000000000343,-8.165133248809913979
0.512000000000000344,-8.116393256524329303
0.513000000000000345,-8.068022895056955690
0.514000000000000346,-8.020017141094463398
0.515000000000000346,-7.972371039626432676
0.516000000000000347,-7.925079703923239904
0.517000000000000348,-7.878138315476988396
0.518000000000000349,-7.831542123906638508
0.519000000000000350,-7.785286446828948215
0.520000000000000351,-7.739366669696321921
0.521000000000000352,-7.693778245603017929
0.522000000000000353,-7.648516695060889603
0.523000000000000353,-7.603577605745900136
0.524000000000000354,-7.558956632216732530
0.525000000000000355,-7.514649495606512630
0.526000000000000356,-7.470651983288925990
0.527000000000000357,-7.426959948519874288
0.528000000000000358,-7.383569310055619894
0.529000000000000359,-7.340476051748717978
0.530000000000000360,-7.297676222122611023
0.531000000000000361,-7.255165933926012833
0.532000000000000361,-7.212941363668041284
0.533000000000000362,-7.170998751135091887
0.534000000000000363,-7.129334398890432745
0.535000000000000364,-7.087944671757358428
0.536000000000000365,-7.046825996286926852
0.537000000000000366,-7.005974860211077626
0.538000000000000367,-6.965387811881972979
0.539000000000000368,-6.925061459698513389
0.540000000000000369,-6.884992471520639867
0.541000000000000369,-6.845177574072427440
0.542000000000000370,-6.805613552334557781
0.543000000000000371,-6.766297248926994357
0.544000000000000372,-6.727225563482589266
0.545000000000000373,-6.688395452012263931
0.546000000000000374,-6.649803926262504383
0.547000000000000375,-6.611448053065736019
0.548000000000000376,-6.573324953684358540
0.549000000000000377,-6.535431803148911811
0.550000000000000377,-6.497765829591014786
0.551000000000000378,-6.460324313571703669
0.552000000000000379,-6.423104587405681798
0.553000000000000380,-6.386104034481997260
0.554000000000000381,-6.349320088581711374
0.555000000000000382,-6.312750233193092697
0.556000000000000383,-6.276392000824670525
0.557000000000000384,-6.240242972316835335
0.558000000000000385,-6.204300776152239294
0.559000000000000385,-6.168563087765560837
0.560000000000000386,-6.133027628852973479
0.561000000000000387,-6.097692166681777159
0.562000000000000388,-6.062554513400549183
0.563000000000000389,-6.027612525350175332
0.564000000000000390,-5.992864102376165292
0.565000000000000391,-5.958307187142530381
0.566000000000000392,-5.923939764447620604
0.567000000000000393,-5.889759860542208791
0.568000000000000393,-5.855765542450066974
0.569000000000000394,-5.821954917291423115
0.570000000000000395,-5.788326131609546898
0.571000000000000396,-5.754877370700630657
0.572000000000000397,-5.721606857947381108
0.573000000000000398,-5.688512854156416054
0.574000000000000399,-5.655593656899797317
0.575000000000000400,-5.622847599860846479
0.576000000000000401,-5.590273052184480562
0.577000000000000401,-5.557868417832300345
0.578000000000000402,-5.525632134942525475
0.579000000000000403,-5.493562675195032163
0.580000000000000404,-5.461658543181644454
0.581000000000000405,-5.429918275781811410
0.582000000000000406,-5.398340441543827417
0.583000000000000407,-5.366923640071736834
0.584000000000000408,-5.335666501418087293
0.585000000000000409,-5.304567685482572514
0.586000000000000409,-5.273625881416754702
0.587000000000000410,-5.242839807034950894
0.588000000000000411,-5.212208208231350781
0.589000000000000412,-5.181729858403514299
0.590000000000000413,-5.151403557882258788
0.591000000000000414,-5.121228133368086688
0.592000000000000415,-5.091202437374194645
0.593000000000000416,-5.061325347676083553
0.594000000000000417,-5.031595766767898326
0.595000000000000417,-5.002012621325553354
0.596000000000000418,-4.972574861676549496
0.597000000000000419,-4.943281461276755273
0.598000000000000420,-4.914131416193955104
0.599000000000000421,-4.885123744598361739
0.600000000000000422,-4.856257486260014744
0.601000000000000423,-4.827531702053159179
0.602000000000000424,-4.798945473467542300
0.603000000000000425,-4.770497902126715317
0.604000000000000425,-4.742188109313289601
0.605000000000000426,-4.714015235501170409
0.606000000000000427,-4.685978439894792125
