# Fe001_ALASCA-JS
# h[nm],U(h)[kJ/mol]
0.200000000000000011,52.036443484895166023
0.201000000000000012,49.435685398099778354
0.202000000000000013,47.785847911913933217
0.203000000000000014,46.497540456529065978
0.204000000000000015,45.272507365478844577
0.205000000000000016,43.985732783737795160
0.206000000000000016,42.608468977407568445
0.207000000000000017,41.159582553805321936
0.208000000000000018,39.676151705504551614
0.209000000000000019,38.196861987860380339
0.210000000000000020,36.753666574911243003
0.211000000000000021,35.368573673811098956
0.212000000000000022,34.053431440950440390
0.213000000000000023,32.811299925920323517
0.214000000000000024,31.638506272731554247
0.215000000000000024,30.526830803367197120
0.216000000000000025,29.465510495802607949
0.217000000000000026,28.442904609391611359
0.218000000000000027,27.447768375546587549
0.219000000000000028,26.470142070533150047
0.220000000000000029,25.501897023559472188
0.221000000000000030,24.536996271887421273
0.222000000000000031,23.571532124486179072
0.223000000000000032,22.603600374817631291
0.224000000000000032,21.633064435467812103
0.225000000000000033,20.661254350237307165
0.226000000000000034,19.690636834652686105
0.227000000000000035,18.724484044610683497
0.228000000000000036,17.766561153915354510
0.229000000000000037,16.820846267622478365
0.230000000000000038,15.891290779918884724
0.231000000000000039,14.981623970944326629
0.232000000000000040,14.095202334467424876
0.233000000000000040,13.234901714412027118
0.234000000000000041,12.403048667924881698
0.235000000000000042,11.601386431899433305
0.236000000000000043,10.831070323132827582
0.237000000000000044,10.092687236978289178
0.238000000000000045,9.386294027661005401
0.239000000000000046,8.711469872744132203
0.240000000000000047,8.067378176549468094
0.241000000000000048,7.452834098039867072
0.242000000000000048,6.866374355060116841
0.243000000000000049,6.306326526508887476
0.244000000000000050,5.770875623299039248
0.245000000000000051,5.258126211374563930
0.246000000000000052,4.766158834962753943
0.247000000000000053,4.293079899641949915
0.248000000000000054,3.837064530279555186
0.249000000000000055,3.396392218716344225
0.250000000000000056,2.969475322467213019
0.251000000000000056,2.554880672254431495
0.252000000000000057,2.151344697322293165
0.253000000000000058,1.757782588123115719
0.254000000000000059,1.373292091211000043
0.255000000000000060,0.997152576098954357
0.256000000000000061,0.628820033289835489
0.257000000000000062,0.267918661241395406
0.258000000000000063,-0.085770318154402947
0.259000000000000064,-0.432322007148824017
0.260000000000000064,-0.771682775144012623
0.261000000000000065,-1.103686277069409805
0.262000000000000066,-1.428070078927057951
0.263000000000000067,-1.744492476386863888
0.264000000000000068,-2.052549146907139743
0.265000000000000069,-2.351789329581990717
0.266000000000000070,-2.641731278692437179
0.267000000000000071,-2.921876785940090038
0.268000000000000071,-3.191724611970812031
0.269000000000000072,-3.450782709649308000
0.270000000000000073,-3.698579159380080306
0.271000000000000074,-3.934671770480142161
0.272000000000000075,-4.158656332198690464
0.273000000000000076,-4.370173523537963511
0.274000000000000077,-4.568914512720171572
0.275000000000000078,-4.754625295175820554
0.276000000000000079,-4.927109833548263040
0.277000000000000079,-5.086232074688928684
0.278000000000000080,-5.231916927241802462
0.279000000000000081,-5.364150289476907751
0.280000000000000082,-5.482978220818019111
0.281000000000000083,-5.588505352302638229
0.282000000000000084,-5.680892631283061434
0.283000000000000085,-5.760354494282042381
0.284000000000000086,-5.827155559294976861
0.285000000000000087,-5.881606925204731162
0.286000000000000087,-5.924062161546822303
0.287000000000000088,-5.954913066816144962
0.288000000000000089,-5.974585268005224492
0.289000000000000090,-5.983533728254528228
0.290000000000000091,-5.982238223504706909
0.291000000000000092,-5.971198842980280475
0.292000000000000093,-5.950931562298239719
0.293000000000000094,-5.921963932064186587
0.294000000000000095,-5.884830919058648746
0.295000000000000095,-5.840070931581066382
0.296000000000000096,-5.788222055252159493
0.297000000000000097,-5.729818520608423782
0.298000000000000098,-5.665387419179847228
0.299000000000000099,-5.595445680439651071
0.300000000000000100,-5.520497318061257985
0.301000000000000101,-5.441030950316248394
0.302000000000000102,-5.357517596196746723
0.303000000000000103,-5.270408745938725659
0.304000000000000103,-5.180134702051160112
0.305000000000000104,-5.087103184706775139
0.306000000000000105,-4.991698193408633522
0.307000000000000106,-4.894279115196763286
0.308000000000000107,-4.795180068283364072
0.309000000000000108,-4.694709468884783021
0.310000000000000109,-4.593149808134873169
0.311000000000000110,-4.490757625299037770
0.312000000000000111,-4.387763663041083007
0.313000000000000111,-4.284373190208641269
0.314000000000000112,-4.180766477478355725
0.315000000000000113,-4.077099411221743352
0.316000000000000114,-3.973504231100524642
0.317000000000000115,-3.870090377159191686
0.318000000000000116,-3.766945432538502558
0.319000000000000117,-3.664136148371758939
0.320000000000000118,-3.561709537932920000
0.321000000000000119,-3.459694027669751648
0.322000000000000119,-3.358100653364972654
0.323000000000000120,-3.256924290313170989
0.324000000000000121,-3.156144907071930739
0.325000000000000122,-3.055728833033687586
0.326000000000000123,-2.955630030762282701
0.327000000000000124,-2.855791364738480720
0.328000000000000125,-2.756145858856187125
0.329000000000000126,-2.656617935699337352
0.330000000000000127,-2.557124631305102813
0.331000000000000127,-2.457576779777665088
0.332000000000000128,-2.357880162754597553
0.333000000000000129,-2.257936619343001272
0.334000000000000130,-2.157645112731900738
0.335000000000000131,-2.056902750249666845
0.336000000000000132,-1.955605754168838528
0.337000000000000133,-1.853650381064777308
0.338000000000000134,-1.750933788008046221
0.339000000000000135,-1.647354844314202094
0.340000000000000135,-1.542814887986446948
0.341000000000000136,-1.437218426369225588
0.342000000000000137,-1.330473780882525325
0.343000000000000138,-1.222493676029203780
0.344000000000000139,-1.113195773161125945
0.345000000000000140,-1.002503149755933798
0.346000000000000141,-0.890344725194629816
0.347000000000000142,-0.776655634243134663
0.348000000000000143,-0.661377549629039052
0.349000000000000143,-0.544458955268833811
0.350000000000000144,-0.425855371843106290
0.351000000000000145,-0.305529536537779367
0.352000000000000146,-0.183451538870215453
0.353000000000000147,-0.059598914601164885
0.354000000000000148,0.066043300201791305
0.355000000000000149,0.193482552835416766
0.356000000000000150,0.322718793219089695
0.357000000000000151,0.453744526573212625
0.358000000000000151,0.586544897343940219
0.359000000000000152,0.721097802205047378
0.360000000000000153,0.857374029983076325
0.361000000000000154,0.995337426376404322
0.362000000000000155,1.134945081372429554
0.363000000000000156,1.276147537307535940
0.364000000000000157,1.418889015562252442
0.365000000000000158,1.563107659937215121
0.366000000000000159,1.708735794813932118
0.367000000000000159,1.855700196267393576
0.368000000000000160,2.003922374363378278
0.369000000000000161,2.153318864943262412
0.370000000000000162,2.303801529270578463
0.371000000000000163,2.455277859986951139
0.372000000000000164,2.607651291900491053
0.373000000000000165,2.760821516204706505
0.374000000000000166,2.914684796802884392
0.375000000000000167,3.069134287488325619
0.376000000000000167,3.224060348807160636
0.377000000000000168,3.379350863505335756
0.378000000000000169,3.534891549535644550
0.379000000000000170,3.690566269673476452
0.380000000000000171,3.846257336861920173
0.381000000000000172,4.001845814476153507
0.382000000000000173,4.157211810765727655
0.383000000000000174,4.312234766799036834
0.384000000000000175,4.466793737298642597
0.385000000000000175,4.620767663817638038
0.386000000000000176,4.774035639767225447
0.387000000000000177,4.926477166862481383
0.388000000000000178,5.077972402608447844
0.389000000000000179,5.228402398500943349
0.390000000000000180,5.377649328666388229
0.391000000000000181,5.525596708712795291
0.392000000000000182,5.672129604608388220
0.393000000000000183,5.817134831447917875
0.394000000000000183,5.960501142005976583
0.395000000000000184,6.102119405014986064
0.396000000000000185,6.241882773140923213
0.397000000000000186,6.379686840662662561
0.398000000000000187,6.515429790892140360
0.399000000000000188,6.649012533401086777
0.400000000000000189,6.780338831146363709
0.401000000000000190,6.909315417611145094
0.402000000000000191,7.035852104100743354
0.403000000000000191,7.159861877353381310
0.404000000000000192,7.281260987644225580
0.405000000000000193,7.399969027578312541
0.406000000000000194,7.515909001783039223
0.407000000000000195,7.629007387724458411
0.408000000000000196,7.739194187883683185
0.409000000000000197,7.846402973540238079
0.410000000000000198,7.950570920418075005
0.411000000000000199,8.051638836457986059
0.412000000000000199,8.149551181986506521
0.413000000000000200,8.244256082556507437
0.414000000000000201,8.335705334739129668
0.415000000000000202,8.423854405149558744
0.416000000000000203,8.508662422991141838
0.417000000000000204,8.590092166403868745
0.418000000000000205,8.668110042902977597
0.419000000000000206,8.742686064193325279
0.420000000000000207,8.813793815643768070
0.421000000000000207,8.881410420703547359
0.422000000000000208,8.945516500540527716
0.423000000000000209,9.006096129177468157
0.424000000000000210,9.063136784399011603
0.425000000000000211,9.116629294697787600
0.426000000000000212,9.166567782523298291
0.427000000000000213,9.212949604092239397
0.428000000000000214,9.255775286013399494
0.429000000000000214,9.295048458974628502
0.430000000000000215,9.330775788733264520
0.431000000000000216,9.362966904645123378
0.432000000000000217,9.391634325960763974
0.433000000000000218,9.416793386111024233
0.434000000000000219,9.438462155196953418
0.435000000000000220,9.456661360892553603
0.436000000000000221,9.471414307961495638
0.437000000000000222,9.482746796582038229
0.438000000000000222,9.490687039667252023
0.439000000000000223,9.495265579360385289
0.440000000000000224,9.496515202878308415
0.441000000000000225,9.494470857868529734
0.442000000000000226,9.489169567438455744
0.443000000000000227,9.480650345008385216
0.444000000000000228,9.468954109132758035
0.445000000000000229,9.454123598427376152
0.446000000000000230,9.436203286733253037
0.447000000000000230,9.415239298641468579
0.448000000000000231,9.391279325496347141
0.449000000000000232,9.364372541988007725
0.450000000000000233,9.334569523439204985
0.451000000000000234,9.301922163884551509
0.452000000000000235,9.266483595034928911
0.453000000000000236,9.228308106213273021
0.454000000000000237,9.187451065342534307
0.455000000000000238,9.143968841060903685
0.456000000000000238,9.097918726033828563
0.457000000000000239,9.049358861527206699
0.458000000000000240,8.998348163300924796
0.459000000000000241,8.944946248876750161
0.460000000000000242,8.889213366230233504
0.461000000000000243,8.831210323951072638
0.462000000000000244,8.770998422912356318
0.463000000000000245,8.708639389484536864
0.464000000000000246,8.644195310325923032
0.465000000000000246,8.577728568777470031
0.466000000000000247,8.509301782885851040
0.467000000000000248,8.438977745075032288
0.468000000000000249,8.366819363483257277
0.469000000000000250,8.292889604978693541
0.470000000000000251,8.217251439864137197
0.471000000000000252,8.139967788277875371
0.472000000000000253,8.061101468294918249
0.473000000000000254,7.980715145730266968
0.474000000000000254,7.898871285643015661
0.475000000000000255,7.815632105537710927
0.476000000000000256,7.731059530257096135
0.477000000000000257,7.645215148558174967
0.478000000000000258,7.558160171361159030
0.479000000000000259,7.469955391659468091
0.480000000000000260,7.380661146076532120
0.481000000000000261,7.290337278053750758
0.482000000000000262,7.199043102652342263
0.483000000000000262,7.106837372950252529
0.484000000000000263,7.013778248013859518
0.485000000000000264,6.919923262423152366
0.486000000000000265,6.825329297327516365
0.487000000000000266,6.730052553008562199
0.488000000000000267,6.634148522925173097
0.489000000000000268,6.537671969215118395
0.490000000000000269,6.440676899626801344
0.491000000000000270,6.343216545853927357
0.492000000000000270,6.245343343245231438
0.493000000000000271,6.147108911860771130
0.494000000000000272,6.048564038846014235
0.495000000000000273,5.949758662093964645
0.496000000000000274,5.850741855165993321
0.497000000000000275,5.751561813440972948
0.498000000000000276,5.652265841462419615
0.499000000000000277,5.552900341453328892
0.500000000000000222,5.453510802967651117
0.501000000000000334,5.354141793648006242
0.502000000000000224,5.254836951058633687
0.503000000000000336,5.155638975562694348
0.504000000000000226,5.056589624213499334
0.505000000000000338,4.957729705628449501
0.506000000000000227,4.859099075815811020
0.507000000000000339,4.760736634923243393
0.508000000000000229,4.662680324878585303
0.509000000000000341,4.564967127892207266
0.510000000000000231,4.467633065792045777
0.511000000000000343,4.370713200161062240
0.512000000000000233,4.274241633248834660
0.513000000000000345,4.178251509627752824
0.514000000000000234,4.082775018566161762
0.515000000000000346,3.987843397089652520
0.516000000000000236,3.893486933703673714
0.517000000000000348,3.799734972749439610
0.518000000000000238,3.706615919367132417
0.519000000000000350,3.614157245039288036
0.520000000000000240,3.522385493689208058
0.521000000000000352,3.431326288308333083
0.522000000000000242,3.341004338088233716
0.523000000000000353,3.251443446032112661
0.524000000000000243,3.162666517022586277
0.525000000000000355,3.074695566321566709
0.526000000000000245,2.987551728479955759
0.527000000000000357,2.901255266634075181
0.528000000000000247,2.815825582167528651
0.529000000000000359,2.731281224716509026
0.530000000000000249,2.647639902498158726
0.531000000000000361,2.564918492941169248
0.532000000000000250,2.483133053599232642
0.533000000000000362,2.402298833327452421
0.534000000000000252,2.322430283703598608
0.535000000000000364,2.243541070675092453
0.536000000000000254,2.165644086414804992
0.537000000000000366,2.088751461367585716
0.538000000000000256,2.012874576471449295
0.539000000000000368,1.938024075536570745
0.540000000000000258,1.864209877766907386
0.541000000000000369,1.791441190408517681
0.542000000000000259,1.719726521510553496
0.543000000000000371,1.649073692783902256
0.544000000000000261,1.579489852544217365
0.545000000000000373,1.510981488725624322
0.546000000000000263,1.443554441952546119
0.547000000000000375,1.377213918656771785
0.548000000000000265,1.311964504228401385
0.549000000000000377,1.247810176188475673
0.550000000000000266,1.184754317372800125
0.551000000000000378,1.122799729115799616
0.552000000000000268,1.061948644424545618
0.553000000000000380,1.002202741132810271
0.554000000000000270,0.943563155026012845
0.555000000000000382,0.886030492927707969
0.556000000000000272,0.829604845739300933
0.557000000000000384,0.774285801424434816
0.558000000000000274,0.720072457930385212
0.559000000000000385,0.666963436038742197
0.560000000000000275,0.614956892138401101
0.561000000000000387,0.564050530913813186
0.562000000000000277,0.514241617942279183
0.563000000000000389,0.465526992193797284
0.564000000000000279,0.417903078428000896
0.565000000000000391,0.371365899482284323
0.566000000000000281,0.325911088446265207
0.567000000000000393,0.281533900717326424
0.568000000000000282,0.238229225932917371
0.569000000000000394,0.195991599774956865
0.570000000000000284,0.154815215642615550
0.571000000000000396,0.114693936189258563
0.572000000000000286,0.075621304720405402
0.573000000000000398,0.037590556449058551
0.574000000000000288,0.000594629605610697
0.575000000000000400,-0.035373823600725142
0.576000000000000290,-0.070322426171322450
0.577000000000000401,-0.104259065661037043
0.578000000000000291,-0.137191883676469534
0.579000000000000403,-0.169129265531817008
0.580000000000000293,-0.200079830063837255
0.581000000000000405,-0.230052419607737757
0.582000000000000295,-0.259056090135099781
0.583000000000000407,-0.287100101555346321
0.584000000000000297,-0.314193908181461867
0.585000000000000409,-0.340347149361148738
0.586000000000000298,-0.365569640273850749
0.587000000000000410,-0.389871362894415152
0.588000000000000300,-0.413262457123609539
0.589000000000000412,-0.435753212085957409
0.590000000000000302,-0.457354057594805297
0.591000000000000414,-0.478075555784809592
0.592000000000000304,-0.497928392911594908
0.593000000000000416,-0.516923371318371294
0.594000000000000306,-0.535071401569140903
0.595000000000000417,-0.552383494748080794
0.596000000000000307,-0.568870754924405198
0.597000000000000419,-0.584544371782144578
0.598000000000000309,-0.599415613414021387
0.599000000000000421,-0.613495819278547350
0.600000000000000311,-0.626796393319425271
0.601000000000000423,-0.639328797246232927
0.602000000000000313,-0.651104543975186245
0.603000000000000425,-0.662135191228998110
0.604000000000000314,-0.672432335294331218
0.605000000000000426,-0.682007604935763290
0.606000000000000316,-0.690872655464717988
0.607000000000000428,-0.699039162962012961
0.608000000000000318,-0.706518818652531855
0.609000000000000430,-0.713323323430428924
0.610000000000000320,-0.719464382533322899
0.611000000000000432,-0.724953700363827225
0.612000000000000322,-0.729802975456757874
0.613000000000000433,-0.734023895590253384
0.614000000000000323,-0.737628133039150313
0.615000000000000435,-0.740627339968733311
0.616000000000000325,-0.743033143967083198
0.617000000000000437,-0.744857143714234393
0.618000000000000327,-0.746110904786174145
0.619000000000000439,-0.746805955591876680
0.620000000000000329,-0.746953783441444474
0.621000000000000441,-0.746565830743387004
0.622000000000000330,-0.745653491329166918
0.623000000000000442,-0.744228106902994901
0.624000000000000332,-0.742300963614930365
0.625000000000000444,-0.739883288755309065
0.626000000000000334,-0.736986247568523045
0.627000000000000446,-0.733620940184120385
0.628000000000000336,-0.729798398663282888
0.629000000000000448,-0.725529584158640661
0.630000000000000338,-0.720825384185436291
0.631000000000000449,-0.715696610002037770
0.632000000000000339,-0.710153994097824870
0.633000000000000451,-0.704208187786384943
0.634000000000000341,-0.697869758902118220
0.635000000000000453,-0.691149189598191827
0.636000000000000343,-0.684056874243917368
0.637000000000000455,-0.676603117419533051
0.638000000000000345,-0.668798132006474644
0.639000000000000457,-0.660652037371137313
0.640000000000000346,-0.652174857640246408
0.641000000000000458,-0.643376520065834456
0.642000000000000348,-0.634266853477999493
0.643000000000000460,-0.624855586823428233
0.644000000000000350,-0.615152347787944920
0.645000000000000462,-0.605166661501029379
0.646000000000000352,-0.594907949320648499
0.647000000000000464,-0.584385527696382190
0.648000000000000353,-0.573608607109170832
0.649000000000000465,-0.562586291085727441
0.650000000000000355,-0.551327575286012506
0.651000000000000467,-0.539841346661792509
0.652000000000000357,-0.528136382684761374
0.653000000000000469,-0.516221350642249610
0.654000000000000359,-0.504104806999064015
0.655000000000000471,-0.491795196823566871
0.656000000000000361,-0.479300853276454775
0.657000000000000473,-0.466629997160501020
0.658000000000000362,-0.453790736529729177
0.659000000000000474,-0.440791066356332806
0.660000000000000364,-0.427638868253819304
0.661000000000000476,-0.414341910254758805
0.662000000000000366,-0.400907846641691878
0.663000000000000478,-0.387344217829551973
0.664000000000000368,-0.373658450298261002
0.665000000000000480,-0.359857856573895629
0.666000000000000369,-0.345949635257066401
0.667000000000000481,-0.331940871097042178
0.668000000000000371,-0.317838535110237852
