# Fe001_ASPSCA-AC
# h[nm],U(h)[kJ/mol]
0.149999999999999994,95.933589089098106228
0.150999999999999995,95.395085585505881909
0.151999999999999996,92.111207456920212167
0.152999999999999997,88.288935857506061211
0.153999999999999998,84.754625645912000209
0.154999999999999999,81.676021196802324198
0.156000000000000000,78.956230777064519089
0.157000000000000001,76.433040827875473155
0.158000000000000002,73.967274276437620983
0.159000000000000002,71.471482701763008549
0.160000000000000003,68.909431006564872746
0.161000000000000004,66.283695630048256930
0.162000000000000005,63.620608248692313680
0.163000000000000006,60.956952278666150846
0.164000000000000007,58.330067467737464426
0.165000000000000008,55.771551327462702830
0.166000000000000009,53.304052480384449098
0.167000000000000010,50.940402055440721085
0.168000000000000010,48.684319625554593358
0.169000000000000011,46.532034953022979096
0.170000000000000012,44.474313127383410915
0.171000000000000013,42.498518613365476426
0.172000000000000014,40.590483628763280421
0.173000000000000015,38.736050542183718903
0.174000000000000016,36.922235779852364601
0.175000000000000017,35.138016681529613550
0.176000000000000018,33.374776934510791193
0.177000000000000018,31.626465039606767249
0.178000000000000019,29.889527817299967438
0.179000000000000020,28.162680749483008924
0.180000000000000021,26.446571796927194953
0.181000000000000022,24.743387400843531054
0.182000000000000023,23.056440251085831505
0.183000000000000024,21.389769179612638794
0.184000000000000025,19.747772924481864720
0.185000000000000026,18.134891919953240347
0.186000000000000026,16.555345898589845177
0.187000000000000027,15.012929986233405799
0.188000000000000028,13.510868074732794497
0.189000000000000029,12.051719453694044404
0.190000000000000030,10.637332822665662491
0.191000000000000031,9.268840729049651728
0.192000000000000032,7.946687027152458782
0.193000000000000033,6.670679984044431521
0.194000000000000034,5.440064038580700867
0.195000000000000034,4.253603840036260131
0.196000000000000035,3.109674960425731882
0.197000000000000036,2.006356516059176531
0.198000000000000037,0.941521792229641163
0.199000000000000038,-0.087076202221603088
0.200000000000000039,-1.081726546234506925
0.201000000000000040,-2.044691176939989141
0.202000000000000041,-2.978145595828631365
0.203000000000000042,-3.884129961585766289
0.204000000000000042,-4.764510585181487734
0.205000000000000043,-5.620951494057775832
0.206000000000000044,-6.454895463744598771
0.207000000000000045,-7.267553719061912609
0.208000000000000046,-8.059903374503679885
0.209000000000000047,-8.832691605450801120
0.210000000000000048,-9.586445509664976328
0.211000000000000049,-10.321486623651429326
0.212000000000000050,-11.037949093163964775
0.213000000000000050,-11.735800554331060397
0.214000000000000051,-12.414864855407600430
0.215000000000000052,-13.074845833632982917
0.216000000000000053,-13.715351452553722567
0.217000000000000054,-14.335917698675254783
0.218000000000000055,-14.936031729384549038
0.219000000000000056,-15.515153854324358562
0.220000000000000057,-16.072738017972220348
0.221000000000000058,-16.608250530744911089
0.222000000000000058,-17.121186868621197874
0.223000000000000059,-17.611086426504169111
0.224000000000000060,-18.077545168095241479
0.225000000000000061,-18.520226164924594059
0.226000000000000062,-18.938868059567148805
0.227000000000000063,-19.333291523308922422
0.228000000000000064,-19.703403807054996832
0.229000000000000065,-20.049201506608255841
0.230000000000000066,-20.370771680154422967
0.231000000000000066,-20.668291467453428822
0.232000000000000067,-20.942026367444306345
0.233000000000000068,-21.192327334302817121
0.234000000000000069,-21.419626852002547679
0.235000000000000070,-21.624434144649423928
0.236000000000000071,-21.807329674777378159
0.237000000000000072,-21.968959074861686531
0.238000000000000073,-22.110026648935665605
0.239000000000000073,-22.231288571752624961
0.240000000000000074,-22.333545902746948286
0.241000000000000075,-22.417637521396606815
0.242000000000000076,-22.484433079721945603
0.243000000000000077,-22.534826056782030435
0.244000000000000078,-22.569726989322994370
0.245000000000000079,-22.590056942336772750
0.246000000000000080,-22.596741273320525067
0.247000000000000081,-22.590703734573189365
0.248000000000000081,-22.572860948996225972
0.249000000000000082,-22.544117286625720453
0.250000000000000111,-22.505360161543759290
0.251000000000000112,-22.457455761912509473
0.252000000000000113,-22.401245219648480145
0.253000000000000114,-22.337541220696454758
0.254000000000000115,-22.267125051959812509
0.255000000000000115,-22.190744076667989759
0.256000000000000116,-22.109109626288226735
0.257000000000000117,-22.022895293981001430
0.258000000000000118,-21.932735612022032257
0.259000000000000119,-21.839225093530561850
0.260000000000000120,-21.742917617214438053
0.261000000000000121,-21.644326132627213610
0.262000000000000122,-21.543922662593821826
0.263000000000000123,-21.442138578958612527
0.264000000000000123,-21.339365127608271422
0.265000000000000124,-21.235954178783721602
0.266000000000000125,-21.132219178989139152
0.267000000000000126,-21.028436281297040011
0.268000000000000127,-20.924845631509889188
0.269000000000000128,-20.821652788439841686
0.270000000000000129,-20.719030257486032554
0.271000000000000130,-20.617119117697974673
0.272000000000000131,-20.516030723594472107
0.273000000000000131,-20.415848464139106255
0.274000000000000132,-20.316629562440120083
0.275000000000000133,-20.218406900928169279
0.276000000000000134,-20.121190857956587905
0.277000000000000135,-20.024971142954154146
0.278000000000000136,-19.929718618428957200
0.279000000000000137,-19.835387098265854888
0.280000000000000138,-19.741915112871179616
0.281000000000000139,-19.649227632791461673
0.282000000000000139,-19.557237743461854507
0.283000000000000140,-19.465848264722417582
0.284000000000000141,-19.374953309671866464
0.285000000000000142,-19.284439778307685742
0.286000000000000143,-19.194188782226952128
0.287000000000000144,-19.104076997432962060
0.288000000000000145,-19.013977943009102489
0.289000000000000146,-18.923763184082901034
0.290000000000000147,-18.833303458111682716
0.291000000000000147,-18.742469724076691762
0.292000000000000148,-18.651134134677796794
0.293000000000000149,-18.559170932075957694
0.294000000000000150,-18.466457268139119918
0.295000000000000151,-18.372873950510069108
0.296000000000000152,-18.278306116134388049
0.297000000000000153,-18.182643834166032804
0.298000000000000154,-18.085782640408190503
0.299000000000000155,-17.987624005651749570
0.300000000000000155,-17.888075740444435269
0.301000000000000156,-17.787052338962631381
0.302000000000000157,-17.684475264768533265
0.303000000000000158,-17.580273181318364806
0.304000000000000159,-17.474382130146373981
0.305000000000000160,-17.366745659685467018
0.306000000000000161,-17.257314907701506002
0.307000000000000162,-17.146048640315562750
0.308000000000000163,-17.032913250569361452
0.309000000000000163,-16.917882719455423768
0.310000000000000164,-16.800938542286314004
0.311000000000000165,-16.682069623218978904
0.312000000000000166,-16.561272140681843723
0.313000000000000167,-16.438549386375090222
0.314000000000000168,-16.313911580430300319
0.315000000000000169,-16.187375665225175680
0.316000000000000170,-16.058965080253628344
0.317000000000000171,-15.928709520352120066
0.318000000000000171,-15.796644679480740692
0.319000000000000172,-15.662811982153096224
0.320000000000000173,-15.527258304503027020
0.321000000000000174,-15.390035686869770970
0.322000000000000175,-15.251201039676512750
0.323000000000000176,-15.110815844271456854
0.324000000000000177,-14.968945850295426681
0.325000000000000178,-14.825660771036627494
0.326000000000000179,-14.681033978131949880
0.327000000000000179,-14.535142196874627274
0.328000000000000180,-14.388065203291370509
0.329000000000000181,-14.239885524058820465
0.330000000000000182,-14.090688140237144665
0.331000000000000183,-13.940560195712203395
0.332000000000000184,-13.789590711152238001
0.333000000000000185,-13.637870304204728455
0.334000000000000186,-13.485490916581444054
0.335000000000000187,-13.332545548605612140
0.336000000000000187,-13.179128001725127106
0.337000000000000188,-13.025332629428669762
0.338000000000000189,-12.871254096938661959
0.339000000000000190,-12.716987149995258477
0.340000000000000191,-12.562626392989173496
0.341000000000000192,-12.408266076649223209
0.342000000000000193,-12.253999895439902090
0.343000000000000194,-12.099920794779546185
0.344000000000000195,-11.946120788145748293
0.345000000000000195,-11.792690784095682943
0.346000000000000196,-11.639720423191711518
0.347000000000000197,-11.487297924789217518
0.348000000000000198,-11.335509943612304795
0.349000000000000199,-11.184441436014683546
0.350000000000000200,-11.034175535797476897
0.351000000000000201,-10.884793439431929229
0.352000000000000202,-10.736374300514384572
0.353000000000000203,-10.588995133261985160
0.354000000000000203,-10.442730724840769696
0.355000000000000204,-10.297653556303300704
0.356000000000000205,-10.153833731900238746
0.357000000000000206,-10.011338916519123998
0.358000000000000207,-9.870234280994386822
0.359000000000000208,-9.730582455024883615
0.360000000000000209,-9.592443487429006765
0.361000000000000210,-9.455874813462353146
0.362000000000000210,-9.320931228919516087
0.363000000000000211,-9.187664870738981193
0.364000000000000212,-9.056125203828887749
0.365000000000000213,-8.926359013830918343
0.366000000000000214,-8.798410405540419532
0.367000000000000215,-8.672320806702074947
0.368000000000000216,-8.548128976902983567
0.369000000000000217,-8.425871021287617779
0.370000000000000218,-8.305580408823088234
0.371000000000000218,-8.187287994847052275
0.372000000000000219,-8.071022047635445062
0.373000000000000220,-7.956808278732386164
0.374000000000000221,-7.844669876790128171
0.375000000000000222,-7.734627544672927790
0.376000000000000223,-7.626699539584871346
0.377000000000000224,-7.520901715988297376
0.378000000000000225,-7.417247571086198477
0.379000000000000226,-7.315748292648798667
0.380000000000000226,-7.216412808971765180
0.381000000000000227,-7.119247840760475121
0.382000000000000228,-7.024257954742294530
0.383000000000000229,-6.931445618815959442
0.384000000000000230,-6.840811258554526653
0.385000000000000231,-6.752353314885910507
0.386000000000000232,-6.666068302782133692
0.387000000000000233,-6.581950870795838071
0.388000000000000234,-6.499993861289856234
0.389000000000000234,-6.420188371212856460
0.390000000000000235,-6.342523813280923406
0.391000000000000236,-6.266987977432359358
0.392000000000000237,-6.193567092429265841
0.393000000000000238,-6.122245887486810645
0.394000000000000239,-6.053007653817141787
0.395000000000000240,-5.985834305981720505
0.396000000000000241,-5.920706442952004878
0.397000000000000242,-5.857603408784460619
0.398000000000000242,-5.796503352822098165
0.399000000000000243,-5.737383289340224124
0.400000000000000244,-5.680219156559881633
0.401000000000000245,-5.624985874958042587
0.402000000000000246,-5.571657404808549430
0.403000000000000247,-5.520206802893143916
0.404000000000000248,-5.470606278326811456
0.405000000000000249,-5.422827247446309507
0.406000000000000250,-5.376840387715356329
0.407000000000000250,-5.332615690604358250
0.408000000000000251,-5.290122513406623206
0.409000000000000252,-5.249329629957300014
0.410000000000000253,-5.210205280224731617
0.411000000000000254,-5.172717218748021040
0.412000000000000255,-5.136832761897745847
0.413000000000000256,-5.102518833940424159
0.414000000000000257,-5.069742011890184585
0.415000000000000258,-5.038468569134477271
0.416000000000000258,-5.008664517823212314
0.417000000000000259,-4.980295650013638387
0.418000000000000260,-4.953327577565783457
0.419000000000000261,-4.927725770785646553
0.420000000000000262,-4.903455595815734647
0.421000000000000263,-4.880482350774668632
0.422000000000000264,-4.858771300649431524
0.423000000000000265,-4.838287710946000075
0.424000000000000266,-4.818996880105751224
0.425000000000000266,-4.800864170696579336
0.426000000000000267,-4.783855039389388608
0.427000000000000268,-4.767935065731977673
0.428000000000000269,-4.753069979733622219
0.429000000000000270,-4.739225688274904869
0.430000000000000271,-4.726368300358581465
0.431000000000000272,-4.714464151218043853
0.432000000000000273,-4.703479825301213779
0.433000000000000274,-4.693382178148234551
0.434000000000000274,-4.684138357182376922
0.435000000000000275,-4.675715821434050845
0.436000000000000276,-4.668082360218591020
0.437000000000000277,-4.661206110788925550
0.438000000000000278,-4.655055574984781508
0.439000000000000279,-4.649599634900498657
0.440000000000000280,-4.644807567593809416
0.441000000000000281,-4.640649058858274500
0.442000000000000282,-4.637094216082415343
0.443000000000000282,-4.634113580218512496
0.444000000000000283,-4.631678136884472607
0.445000000000000284,-4.629759326622052029
0.446000000000000285,-4.628329054334828996
0.447000000000000286,-4.627359697929451343
0.448000000000000287,-4.626824116183360758
0.449000000000000288,-4.626695655862496537
0.450000000000000289,-4.626948158112080378
0.451000000000000290,-4.627555964143607703
0.452000000000000290,-4.628493920240967618
0.453000000000000291,-4.629737382108421784
0.454000000000000292,-4.631262218582990364
0.455000000000000293,-4.633044814733472627
0.456000000000000294,-4.635062074368215157
0.457000000000000295,-4.637291421973285033
0.458000000000000296,-4.639710804102582742
0.459000000000000297,-4.642298690240973080
0.460000000000000298,-4.645034073161315114
0.461000000000000298,-4.647896468795761571
0.462000000000000299,-4.650865915641585246
0.463000000000000300,-4.653922973721152268
0.464000000000000301,-4.657048723115548405
0.465000000000000302,-4.660224762090728667
0.466000000000000303,-4.663433204834970702
0.467000000000000304,-4.666656678825676252
0.468000000000000305,-4.669878321843472513
0.469000000000000306,-4.673081778650965745
0.470000000000000306,-4.676251197353184175
0.471000000000000307,-4.679371225456259609
0.472000000000000308,-4.682427005640643181
0.473000000000000309,-4.685404171264517359
0.474000000000000310,-4.688288841612797242
0.475000000000000311,-4.691067616906776649
0.476000000000000312,-4.693727573088798621
0.477000000000000313,-4.696256256396218909
0.478000000000000314,-4.698641677738310207
0.479000000000000314,-4.700872306889505303
0.480000000000000315,-4.702937066511798214
0.481000000000000316,-4.704825326018974962
0.482000000000000317,-4.706526895294657287
0.483000000000000318,-4.708032018276023578
0.484000000000000319,-4.709331366414494013
0.485000000000000320,-4.710416032024426158
0.486000000000000321,-4.711277521530370826
0.487000000000000322,-4.711907748623185732
0.488000000000000322,-4.712299027334835522
0.489000000000000323,-4.712444065041440311
0.490000000000000324,-4.712335955403736065
0.491000000000000325,-4.711968171253786863
0.492000000000000326,-4.711334557436394732
0.493000000000000327,-4.710429323613444019
0.494000000000000328,-4.709247037038932326
0.495000000000000329,-4.707782615312313013
0.496000000000000330,-4.706031319117223610
0.497000000000000330,-4.703988744952644296
0.498000000000000331,-4.701650817862992326
0.499000000000000332,-4.699013784173498465
0.500000000000000333,-4.696074204236937888
0.501000000000000334,-4.692828945197426549
0.502000000000000335,-4.689275173776766614
0.503000000000000336,-4.685410349088625637
0.504000000000000337,-4.681232215485454873
0.505000000000000338,-4.676738795442899388
0.506000000000000338,-4.671928382486174591
0.507000000000000339,-4.666799534162664465
0.508000000000000340,-4.661351065064719634
0.509000000000000341,-4.655582039906501102
0.510000000000000342,-4.649491766658405467
0.511000000000000343,-4.643079789742465380
0.512000000000000344,-4.636345883291868475
0.513000000000000345,-4.629290044477574639
0.514000000000000346,-4.621912486904859563
0.515000000000000346,-4.614213634082271476
0.516000000000000347,-4.606194112965516396
0.517000000000000348,-4.597854747578508317
0.518000000000000349,-4.589196552713579180
0.519000000000000350,-4.580220727712886131
0.520000000000000351,-4.570928650332693799
0.521000000000000352,-4.561321870692187197
0.522000000000000353,-4.551402105308261170
0.523000000000000353,-4.541171231217637327
0.524000000000000354,-4.530631280187523480
0.525000000000000355,-4.519784433015820113
0.526000000000000356,-4.508633013921892640
0.527000000000000357,-4.497179485028707013
0.528000000000000358,-4.485426440937038350
0.529000000000000359,-4.473376603392356543
0.530000000000000360,-4.461032816044891547
0.531000000000000361,-4.448398039303294915
0.532000000000000361,-4.435475345282180903
0.533000000000000362,-4.422267912843735438
0.534000000000000363,-4.408779022733575914
0.535000000000000364,-4.395012052810852055
0.536000000000000365,-4.380970473372546969
0.537000000000000366,-4.366657842571899373
0.538000000000000367,-4.352077801930695600
0.539000000000000368,-4.337234071945250236
0.540000000000000369,-4.322130447785650809
0.541000000000000369,-4.306770795087979664
0.542000000000000370,-4.291159045838981001
0.543000000000000371,-4.275299194352720988
0.544000000000000372,-4.259195293338660093
0.545000000000000373,-4.242851450060538099
0.546000000000000374,-4.226271822585412785
0.547000000000000375,-4.209460616122131071
0.548000000000000376,-4.192422079448556715
0.549000000000000377,-4.175160501426695703
0.550000000000000377,-4.157680207604933287
0.551000000000000378,-4.139985556906531805
0.552000000000000379,-4.122080938403520634
0.553000000000000380,-4.103970768175011052
0.554000000000000381,-4.085659486249036298
0.555000000000000382,-4.067151553626965566
0.556000000000000383,-4.048451449389397716
0.557000000000000384,-4.029563667882675837
0.558000000000000385,-4.010492715984827150
0.559000000000000385,-3.991243110450004572
0.560000000000000386,-3.971819375330259305
0.561000000000000387,-3.952226039473650587
0.562000000000000388,-3.932467634097510434
0.563000000000000389,-3.912548690435818433
0.564000000000000390,-3.892473737459519523
0.565000000000000391,-3.872247299668686082
0.566000000000000392,-3.851873894955383015
0.567000000000000393,-3.831358032536079428
0.568000000000000393,-3.810704210952461146
0.569000000000000394,-3.789916916139490777
0.570000000000000395,-3.769000619559615295
0.571000000000000396,-3.747959776401823095
0.572000000000000397,-3.726798823844583275
0.573000000000000398,-3.705522179381342873
0.574000000000000399,-3.684134239207531802
0.575000000000000400,-3.662639376667863989
0.576000000000000401,-3.641041940762796969
0.577000000000000401,-3.619346254713057931
0.578000000000000402,-3.597556614580977197
0.579000000000000403,-3.575677287947601091
0.580000000000000404,-3.553712512644405130
0.581000000000000405,-3.531666495538471562
0.582000000000000406,-3.509543411370051214
0.583000000000000407,-3.487347401641329725
0.584000000000000408,-3.465082573555403833
0.585000000000000409,-3.442752999004260683
0.586000000000000409,-3.420362713604730320
0.587000000000000410,-3.397915715781365975
0.588000000000000411,-3.375415965895096626
0.589000000000000412,-3.352867385416714363
0.590000000000000413,-3.330273856144018829
0.591000000000000414,-3.307639219461711466
0.592000000000000415,-3.284967275642950657
0.593000000000000416,-3.262261783191538367
0.594000000000000417,-3.239526458223801253
0.595000000000000417,-3.216764973889163493
0.596000000000000418,-3.193980959828349064
0.597000000000000419,-3.171178001668438995
0.598000000000000420,-3.148359640553616501
0.599000000000000421,-3.125529372710841969
0.600000000000000422,-3.102690649049424820
0.601000000000000423,-3.079846874793644496
0.602000000000000424,-3.057001409147488857
0.603000000000000425,-3.034157564990656031
0.604000000000000425,-3.011318608604909297
0.605000000000000426,-2.988487759429985235
0.606000000000000427,-2.965668189848174041
0.607000000000000428,-2.942863024996727805
0.608000000000000429,-2.920075342607353797
0.609000000000000430,-2.897308172871890353
