# Fe001_CS-7021-AC
# h[nm],U(h)[kJ/mol]
0.200000000000000011,90.708059030695238789
0.201000000000000012,83.988475351515106126
0.202000000000000013,79.993242493514713942
0.203000000000000014,77.250222230033116944
0.204000000000000015,74.931388529099251627
0.205000000000000016,72.616987450490299238
0.206000000000000016,70.134911369542322745
0.207000000000000017,67.453733624476456043
0.208000000000000018,64.613535189020055327
0.209000000000000019,61.682933765028636230
0.210000000000000020,58.733929097008115150
0.211000000000000021,55.828562496993995978
0.212000000000000022,53.013151112777428864
0.213000000000000023,50.317150362300061772
0.214000000000000024,47.754637765412795147
0.215000000000000024,45.327087250737214674
0.216000000000000025,43.026582784059087317
0.217000000000000026,40.838955353618914046
0.218000000000000027,38.746556845212289488
0.219000000000000028,36.730537359947867060
0.220000000000000029,34.772590885591981191
0.221000000000000030,32.856194108494477746
0.222000000000000031,30.967396451436904670
0.223000000000000032,29.095234819604268495
0.224000000000000032,27.231850284475950019
0.225000000000000033,25.372380477099085283
0.226000000000000034,23.514693901199699155
0.227000000000000035,21.659022831809931375
0.228000000000000036,19.807541339728906848
0.229000000000000037,17.963925165376846138
0.230000000000000038,16.132921183125269238
0.231000000000000039,14.319946322580355158
0.232000000000000040,12.530729149843262249
0.233000000000000040,10.771001851787037396
0.234000000000000041,9.046246033760295902
0.235000000000000042,7.361492421269862696
0.236000000000000043,5.721172116706986444
0.237000000000000044,4.129015366700135914
0.238000000000000045,2.587992712736617129
0.239000000000000046,1.100292806105828802
0.240000000000000047,-0.332669040118825421
0.241000000000000048,-1.710217408242197923
0.242000000000000048,-3.032363997472009576
0.243000000000000049,-4.299740630213005232
0.244000000000000050,-5.513522638485223837
0.245000000000000051,-6.675346653113995998
0.246000000000000052,-7.787226230924181536
0.247000000000000053,-8.851468177836139262
0.248000000000000054,-9.870591876414003707
0.249000000000000055,-10.847253417339983272
0.250000000000000056,-11.784175873214447705
0.251000000000000056,-12.684086644140103672
0.252000000000000057,-13.549662449090225991
0.253000000000000058,-14.383482234334167060
0.254000000000000059,-15.187988017932150697
0.255000000000000060,-15.965453484183786514
0.256000000000000061,-16.717959979920756552
0.257000000000000062,-17.447379441288113355
0.258000000000000063,-18.155363690631528328
0.259000000000000064,-18.843339483796231804
0.260000000000000064,-19.512508654203735148
0.261000000000000065,-20.163852687404677511
0.262000000000000066,-20.798141064625411900
0.263000000000000067,-21.415942732680854022
0.264000000000000068,-22.017640087434802609
0.265000000000000069,-22.603444896026736899
0.266000000000000070,-23.173415626977494242
0.267000000000000071,-23.727475705006035867
0.268000000000000071,-24.265432257211422495
0.269000000000000072,-24.786994967772827181
0.270000000000000073,-25.291794708325955554
0.271000000000000074,-25.779401659756580045
0.272000000000000075,-26.249342687586608491
0.273000000000000076,-26.701117776872358434
0.274000000000000077,-27.134215373203709021
0.275000000000000078,-27.548126513733478760
0.276000000000000079,-27.942357666039072228
0.277000000000000079,-28.316442222977514120
0.278000000000000080,-28.669950628566017059
0.279000000000000081,-29.002499133397144249
0.280000000000000082,-29.313757198312352159
0.281000000000000083,-29.603453582185657922
0.282000000000000084,-29.871381163904622724
0.283000000000000085,-30.117400560195243031
0.284000000000000086,-30.341442610043650063
0.285000000000000087,-30.543509803348058540
0.286000000000000087,-30.723676736317525382
0.287000000000000088,-30.882089679240898761
0.288000000000000089,-31.018965343794160816
0.289000000000000090,-31.134588937243393048
0.290000000000000091,-31.229311589922765791
0.291000000000000092,-31.303547240407077368
0.292000000000000093,-31.357769060017904650
0.293000000000000094,-31.392505494856170145
0.294000000000000095,-31.408335999580543785
0.295000000000000095,-31.405886532773326536
0.296000000000000096,-31.385824879066397841
0.297000000000000097,-31.348855858337135061
0.298000000000000098,-31.295716477313789028
0.299000000000000099,-31.227171073928349898
0.300000000000000100,-31.144006499784222086
0.301000000000000101,-31.047027381222999765
0.302000000000000102,-30.937051494722943801
0.303000000000000103,-30.814905287779737364
0.304000000000000103,-30.681419572036965349
0.305000000000000104,-30.537425411272902664
0.306000000000000105,-30.383750222929318596
0.307000000000000106,-30.221214108197777648
0.308000000000000107,-30.050626422268550186
0.309000000000000108,-29.872782593198888179
0.310000000000000109,-29.688461194971232260
0.311000000000000110,-29.498421277685785924
0.312000000000000111,-29.303399955459287440
0.313000000000000111,-29.104110250476537658
0.314000000000000112,-28.901239189753432868
0.315000000000000113,-28.695446149509791667
0.316000000000000114,-28.487361440606594698
0.317000000000000115,-28.277585127261595233
0.318000000000000116,-28.066686070209687642
0.319000000000000117,-27.855201184604396758
0.320000000000000118,-27.643634902253417351
0.321000000000000119,-27.432458827230970400
0.322000000000000119,-27.222111573499471859
0.323000000000000120,-27.012998772890945531
0.324000000000000121,-26.805493241633179480
0.325000000000000122,-26.599935293543438775
0.326000000000000123,-26.396633188044923202
0.327000000000000124,-26.195863701275037272
0.328000000000000125,-25.997872808742805262
0.329000000000000126,-25.802876468242477159
0.330000000000000127,-25.611061492036224507
0.331000000000000127,-25.422586497670316419
0.332000000000000128,-25.237582927179165182
0.333000000000000129,-25.056156124854073397
0.334000000000000130,-24.878386464200058725
0.335000000000000131,-24.704330515171516680
0.336000000000000132,-24.534022243257002316
0.337000000000000133,-24.367474232473846030
0.338000000000000134,-24.204678924826946940
0.339000000000000135,-24.045609869281936000
0.340000000000000135,-23.890222973794742245
0.341000000000000136,-23.738457754427400914
0.342000000000000137,-23.590238576057622311
0.343000000000000138,-23.445475879658570051
0.344000000000000139,-23.304067391579980750
0.345000000000000140,-23.165899310703796488
0.346000000000000141,-23.030847469772439240
0.347000000000000142,-22.898778467597132646
0.348000000000000143,-22.769550769245228139
0.349000000000000143,-22.643015771678363990
0.350000000000000144,-22.519018832667747176
0.351000000000000145,-22.397400261148550982
0.352000000000000146,-22.277996267491449345
0.353000000000000147,-22.160639872466610711
0.354000000000000148,-22.045161773953903861
0.355000000000000149,-21.931391170711840743
0.356000000000000150,-21.819156542759635897
0.357000000000000151,-21.708286388148859913
0.358000000000000151,-21.598609916107200490
0.359000000000000152,-21.489957696724523828
0.360000000000000153,-21.382162267524130073
0.361000000000000154,-21.275058697417200904
0.362000000000000155,-21.168485108680055617
0.363000000000000156,-21.062283157719768667
0.364000000000000157,-20.956298475505992229
0.365000000000000158,-20.850381068646875349
0.366000000000000159,-20.744385682172868712
0.367000000000000159,-20.638172125168111393
0.368000000000000160,-20.531605560452717896
0.369000000000000161,-20.424556759573128772
0.370000000000000162,-20.316902324401411306
0.371000000000000163,-20.208524876679810234
0.372000000000000164,-20.099313216872449317
0.373000000000000165,-19.989162453705848321
0.374000000000000166,-19.877974105790496395
0.375000000000000167,-19.765656176721073223
0.376000000000000167,-19.652123205051715615
0.377000000000000168,-19.537296290535824284
0.378000000000000169,-19.421103098008355659
0.379000000000000170,-19.303477840272357469
0.380000000000000171,-19.184361241330911696
0.381000000000000172,-19.063700481282193522
0.382000000000000173,-18.941449124167633045
0.383000000000000174,-18.817567030033714559
0.384000000000000175,-18.692020252435266769
0.385000000000000175,-18.564780922573483224
0.386000000000000176,-18.435827121225877079
0.387000000000000177,-18.305142739587136447
0.388000000000000178,-18.172717330101274769
0.389000000000000179,-18.038545948325001689
0.390000000000000180,-17.902628986821923718
0.391000000000000181,-17.764972002045702482
0.392000000000000182,-17.625585535129012271
0.393000000000000183,-17.484484927453245007
0.394000000000000183,-17.341690131832734778
0.395000000000000184,-17.197225520105593688
0.396000000000000185,-17.051119687882422937
0.397000000000000186,-16.903405257163807818
0.398000000000000187,-16.754118677497189083
0.399000000000000188,-16.603300026304889769
0.400000000000000189,-16.450992808976472759
0.401000000000000190,-16.297243759280792830
0.402000000000000191,-16.142102640617000731
0.403000000000000191,-15.985622048587291744
0.404000000000000192,-15.827857215340282337
0.405000000000000193,-15.668865816099673438
0.406000000000000194,-15.508707778260804488
0.407000000000000195,-15.347445093406097527
0.408000000000000196,-15.185141632560135605
0.409000000000000197,-15.021862964976175903
0.410000000000000198,-14.857676180717911407
0.411000000000000199,-14.692649717273486232
0.412000000000000199,-14.526853190413271832
0.413000000000000200,-14.360357229478506014
0.414000000000000201,-14.193233317264525084
0.415000000000000202,-14.025553634640118617
0.416000000000000203,-13.857390910023895003
0.417000000000000204,-13.688818273818004201
0.418000000000000205,-13.519909117881358185
0.419000000000000206,-13.350736960106297957
0.420000000000000207,-13.181375314145913791
0.421000000000000207,-13.011897564323916754
0.422000000000000208,-12.842376845743469715
0.423000000000000209,-12.672885929598319166
0.424000000000000210,-12.503497113676193209
0.425000000000000211,-12.334282118032497522
0.426000000000000212,-12.165311985801505301
0.427000000000000213,-11.996656989101408541
0.428000000000000214,-11.828386539980709102
0.429000000000000214,-11.660569106344041757
0.430000000000000215,-11.493272132787982542
0.431000000000000216,-11.326561966270075388
0.432000000000000217,-11.160503786527204539
0.433000000000000218,-10.995161541154093499
0.434000000000000219,-10.830597885246948664
0.435000000000000220,-10.666874125512590510
0.436000000000000221,-10.504050168739194504
0.437000000000000222,-10.342184474520994542
0.438000000000000222,-10.181334012126276534
0.439000000000000223,-10.021554221395094331
0.440000000000000224,-9.862898977550898394
0.441000000000000225,-9.705420559808377590
0.442000000000000226,-9.549169623658681161
0.443000000000000227,-9.394195176711360062
0.444000000000000228,-9.240544557972569351
0.445000000000000229,-9.088263420437820983
0.446000000000000230,-8.937395716878011598
0.447000000000000230,-8.787983688697377005
0.448000000000000231,-8.640067857742524282
0.449000000000000232,-8.493687020942340737
0.450000000000000233,-8.348878247659582641
0.451000000000000234,-8.205676879635914744
0.452000000000000235,-8.064116533413624666
0.453000000000000236,-7.924229105118510752
0.454000000000000237,-7.786044777490478630
0.455000000000000238,-7.649592029049534503
0.456000000000000238,-7.514897645287516248
0.457000000000000239,-7.381986731777208988
0.458000000000000240,-7.250882729093349965
0.459000000000000241,-7.121607429441442427
0.460000000000000242,-6.994180994893520520
0.461000000000000243,-6.868621977131459388
0.462000000000000244,-6.744947338601721576
0.463000000000000245,-6.623172474987107705
0.464000000000000246,-6.503311238904361247
0.465000000000000246,-6.385375964738502219
0.466000000000000247,-6.269377494527574868
0.467000000000000248,-6.155325204814029227
0.468000000000000249,-6.043227034381759566
0.469000000000000250,-5.933089512800090226
0.470000000000000251,-5.824917789699026294
0.471000000000000252,-5.718715664702274104
0.472000000000000253,-5.614485617947631013
0.473000000000000254,-5.512228841126420420
0.474000000000000254,-5.411945268976608325
0.475000000000000255,-5.313633611166535431
0.476000000000000256,-5.217291384508786045
0.477000000000000257,-5.122914945446331636
0.478000000000000258,-5.030499522755173203
0.479000000000000259,-4.940039250410494631
0.480000000000000260,-4.851527200565557862
0.481000000000000261,-4.764955416594644610
0.482000000000000262,-4.680314946154181754
0.483000000000000262,-4.597595874217804912
0.484000000000000263,-4.516787356043747259
0.485000000000000264,-4.437877650034785404
0.486000000000000265,-4.360854150453320699
0.487000000000000266,-4.285703419955906313
0.488000000000000267,-4.212411221913709980
0.489000000000000268,-4.140962552487404302
0.490000000000000269,-4.071341672426481928
0.491000000000000270,-4.003532138565327969
0.492000000000000270,-3.937516834989634340
0.493000000000000271,-3.873278003848917628
0.494000000000000272,-3.810797275792162431
0.495000000000000273,-3.750055700005498149
0.496000000000000274,-3.691033773832310239
0.497000000000000275,-3.633711471957499661
0.498000000000000276,-3.578068275139401067
0.499000000000000277,-3.524083198473930700
0.500000000000000222,-3.471734819177097364
0.501000000000000334,-3.421001303873192789
0.502000000000000224,-3.371860435377386445
0.503000000000000336,-3.324289638962292237
0.504000000000000226,-3.278266008099810058
0.505000000000000338,-3.233766329669910622
0.506000000000000227,-3.190767108629926518
0.507000000000000339,-3.149244592138017662
0.508000000000000229,-3.109174793126330716
0.509000000000000341,-3.070533513319557262
0.510000000000000231,-3.033296365696106278
0.511000000000000343,-2.997438796389308102
0.512000000000000233,-2.962936106027514338
0.513000000000000345,-2.929763470512147361
0.514000000000000234,-2.897895961234033368
0.515000000000000346,-2.867308564728372922
0.516000000000000236,-2.837976201770087137
0.517000000000000348,-2.809873745911275922
0.518000000000000238,-2.782976041463483430
0.519000000000000350,-2.757257920927833172
0.520000000000000240,-2.732694221876700080
0.521000000000000352,-2.709259803291008684
0.522000000000000242,-2.686929561357738194
0.523000000000000353,-2.665678444732640706
0.524000000000000243,-2.645481469273545549
0.525000000000000355,-2.626313732250008748
0.526000000000000245,-2.608150426035452885
0.527000000000000357,-2.590966851288154960
0.528000000000000247,-2.574738429627895009
0.529000000000000359,-2.559440715815116896
0.530000000000000249,-2.545049409440008681
0.531000000000000361,-2.531540366128787856
0.532000000000000250,-2.518889608275038938
0.533000000000000362,-2.507073335303805273
0.534000000000000252,-2.496067933476518341
0.535000000000000364,-2.485849985245011773
0.536000000000000254,-2.476396278162783737
0.537000000000000366,-2.467683813361996492
0.538000000000000256,-2.459689813604787556
0.539000000000000368,-2.452391730917339530
0.540000000000000258,-2.445767253815558373
0.541000000000000369,-2.439794314130928843
0.542000000000000259,-2.434451093445413328
0.543000000000000371,-2.429716029144116440
0.544000000000000261,-2.425567820094624238
0.545000000000000373,-2.421985431961712010
0.546000000000000263,-2.418948102166336156
0.547000000000000375,-2.416435344497678273
0.548000000000000265,-2.414426953386984209
0.549000000000000377,-2.412903007852016835
0.550000000000000266,-2.411843875120719183
0.551000000000000378,-2.411230213942849421
0.552000000000000268,-2.411042977598115478
0.553000000000000380,-2.411263416609343846
0.554000000000000270,-2.411873081169180200
0.555000000000000382,-2.412853823288666710
0.556000000000000272,-2.414187798676040941
0.557000000000000384,-2.415857468353885373
0.558000000000000274,-2.417845600022898278
0.559000000000000385,-2.420135269180130333
0.560000000000000275,-2.422709859999773840
0.561000000000000387,-2.425553065984214385
0.562000000000000277,-2.428648890393081405
0.563000000000000389,-2.431981646457934243
0.564000000000000279,-2.435535957390013717
0.565000000000000391,-2.439296756188482185
0.566000000000000281,-2.443249285256300141
0.567000000000000393,-2.447379095830987783
0.568000000000000282,-2.451672047237194452
0.569000000000000394,-2.456114305967961098
0.570000000000000284,-2.460692344601405068
0.571000000000000396,-2.465392940559527624
0.572000000000000286,-2.470203174715563055
0.573000000000000398,-2.475110429856226091
0.574000000000000288,-2.480102389005118368
0.575000000000000400,-2.485167033613456589
0.576000000000000290,-2.490292641623926162
0.577000000000000401,-2.495467785413704398
0.578000000000000291,-2.500681329622216786
0.579000000000000403,-2.505922428869254315
0.580000000000000293,-2.511180525368909233
0.581000000000000405,-2.516445346444688091
0.582000000000000295,-2.521706901950865110
0.583000000000000407,-2.526955481605332565
0.584000000000000297,-2.532181652238679082
0.585000000000000409,-2.537376254964498035
0.586000000000000298,-2.542530402275456236
0.587000000000000410,-2.547635475069802702
0.588000000000000300,-2.552683119612663365
0.589000000000000412,-2.557665244436527097
0.590000000000000302,-2.562574017185018427
0.591000000000000414,-2.567401861404167818
0.592000000000000304,-2.572141453284996881
0.593000000000000416,-2.576785718361366939
0.594000000000000306,-2.581327828166781746
0.595000000000000417,-2.585761196853793464
0.596000000000000307,-2.590079477779426487
0.597000000000000419,-2.594276560060150949
0.598000000000000309,-2.598346565099631356
0.599000000000000421,-2.602283843092358051
0.600000000000000311,-2.606082969506402058
0.601000000000000423,-2.609738741548146113
0.602000000000000313,-2.613246174611895789
0.603000000000000425,-2.616600498717179590
0.604000000000000314,-2.619797154936399419
0.605000000000000426,-2.622831791815406266
0.606000000000000316,-2.625700261789522205
0.607000000000000428,-2.628398617597343723
0.608000000000000318,-2.630923108694761758
0.609000000000000430,-2.633270177671291901
0.610000000000000320,-2.635436456670909866
0.611000000000000432,-2.637418763819475931
0.612000000000000322,-2.639214099660642354
0.613000000000000433,-2.640819643602211109
0.614000000000000323,-2.642232750374716055
0.615000000000000435,-2.643450946503970389
0.616000000000000325,-2.644471926799220718
0.617000000000000437,-2.645293550858556664
0.618000000000000327,-2.645913839593017514
0.619000000000000439,-2.646330971770882723
0.620000000000000329,-2.646543280583534052
0.621000000000000441,-2.646549250234154549
0.622000000000000330,-2.646347512550585090
0.623000000000000442,-2.645936843623451384
0.624000000000000332,-2.645316160470706279
0.625000000000000444,-2.644484517729713158
0.626000000000000334,-2.643441104377756368
0.627000000000000446,-2.642185240482055164
0.628000000000000336,-2.640716373980087628
0.629000000000000448,-2.639034077491113628
0.630000000000000338,-2.637138045159658439
0.631000000000000449,-2.635028089531724849
0.632000000000000339,-2.632704138464422527
0.633000000000000451,-2.630166232069619081
0.634000000000000341,-2.627414519692260253
0.635000000000000453,-2.624449256923931273
0.636000000000000343,-2.621270802652050591
0.637000000000000455,-2.617879616145367017
0.638000000000000345,-2.614276254175980085
0.639000000000000457,-2.610461368178415231
0.640000000000000346,-2.606435701446064623
0.641000000000000458,-2.602200086365308529
0.642000000000000348,-2.597755441687577438
0.643000000000000460,-2.593102769839656929
0.644000000000000350,-2.588243154272411140
0.645000000000000462,-2.583177756848106021
0.646000000000000352,-2.577907815266505587
0.647000000000000464,-2.572434640529857930
0.648000000000000353,-2.566759614446870508
0.649000000000000465,-2.560884187175706206
0.650000000000000355,-2.554809874806135639
0.651000000000000467,-2.548538256980717343
0.652000000000000357,-2.542070974555177276
0.653000000000000469,-2.535409727297751381
0.654000000000000359,-2.528556271627669272
0.655000000000000471,-2.521512418392485522
0.656000000000000361,-2.514280030684306499
0.657000000000000473,-2.506861021694753777
0.658000000000000362,-2.499257352608524663
