# Fe001_CS-11530-AC
# h[nm],U(h)[kJ/mol]
0.200000000000000011,89.902390544702569741
0.201000000000000012,83.160924842434425841
0.202000000000000013,79.478185261808576456
0.203000000000000014,77.175194048323419338
0.204000000000000015,75.310517182127100000
0.205000000000000016,73.409776185303627472
0.206000000000000016,71.281508627676217316
0.207000000000000017,68.894611070335074032
0.208000000000000018,66.299137088604553014
0.209000000000000019,63.577142442716009896
0.210000000000000020,60.813951256744509521
0.211000000000000021,58.082956351375358395
0.212000000000000022,55.439091209524676174
0.213000000000000023,52.917595424918282276
0.214000000000000024,50.535774062418539643
0.215000000000000024,48.296226681776438738
0.216000000000000025,46.190571919606426832
0.217000000000000026,44.203077695934027247
0.218000000000000027,42.313870005246627670
0.219000000000000028,40.501568429108374403
0.220000000000000029,38.745309020263320576
0.221000000000000030,37.026183628855406482
0.222000000000000031,35.328162728089594680
0.223000000000000032,33.638586298954045617
0.224000000000000032,31.948311517535945114
0.225000000000000033,30.251601943748550383
0.226000000000000034,28.545834189280054005
0.227000000000000035,26.831087068913337390
0.228000000000000036,25.109666616473077738
0.229000000000000037,23.385609089294280949
0.230000000000000038,21.664193792017204743
0.231000000000000039,19.951488532190371217
0.232000000000000040,18.253942892549964938
0.233000000000000040,16.578038257307685654
0.234000000000000041,14.929998573772342851
0.235000000000000042,13.315562033951716003
0.236000000000000043,11.739811071160085376
0.237000000000000044,10.207056127553398639
0.238000000000000045,8.720767409213348031
0.239000000000000046,7.283548167109437088
0.240000000000000047,5.897142801301924031
0.241000000000000048,4.562473174845929513
0.242000000000000048,3.279696852121542605
0.243000000000000049,2.048281468386965010
0.244000000000000050,0.867090032091267005
0.245000000000000051,-0.265527389641002642
0.246000000000000052,-1.351639486443618976
0.247000000000000053,-2.393640251223267068
0.248000000000000054,-3.394158865903000866
0.249000000000000055,-4.355974958369766448
0.250000000000000056,-5.281940741016627250
0.251000000000000056,-6.174911078920674257
0.252000000000000057,-7.037682134072317020
0.253000000000000058,-7.872938890273980306
0.254000000000000059,-8.683211578742941583
0.255000000000000060,-9.470840793268569868
0.256000000000000061,-10.237950901418670924
0.257000000000000062,-10.986431219763209910
0.258000000000000063,-11.717924321230853479
0.259000000000000064,-12.433820776413073261
0.260000000000000064,-13.135259592948809626
0.261000000000000065,-13.823133603407566028
0.262000000000000066,-14.498099058049470855
0.263000000000000067,-15.160588700569059384
0.264000000000000068,-15.810827638939034756
0.265000000000000069,-16.448851366680628416
0.266000000000000070,-17.074525339620961972
0.267000000000000071,-17.687565567165272284
0.268000000000000071,-18.287559733372781068
0.269000000000000072,-18.873988420076280192
0.270000000000000073,-19.446246060614701179
0.271000000000000074,-20.003661307412848203
0.272000000000000075,-20.545516548835301762
0.273000000000000076,-21.071066359856537531
0.274000000000000077,-21.579554716702848083
0.275000000000000078,-22.070230847454389789
0.276000000000000079,-22.542363628498740979
0.277000000000000079,-22.995254470655968504
0.278000000000000080,-23.428248668784409148
0.279000000000000081,-23.840745214838509725
0.280000000000000082,-24.232205096837482472
0.281000000000000083,-24.602158125220309870
0.282000000000000084,-24.950208343829736179
0.283000000000000085,-25.276038095533714056
0.284000000000000086,-25.579410822509906609
0.285000000000000087,-25.860172688746491332
0.286000000000000087,-26.118253117608794867
0.287000000000000088,-26.353664340636395735
0.288000000000000089,-26.566500055311301765
0.289000000000000090,-26.756933289607321313
0.290000000000000091,-26.925213569906116362
0.291000000000000092,-27.071663486555060274
0.292000000000000093,-27.196674748125438725
0.293000000000000094,-27.300703811484044792
0.294000000000000095,-27.384267170266049618
0.295000000000000095,-27.447936379375924787
0.296000000000000096,-27.492332887867053870
0.297000000000000097,-27.518122747070975720
0.298000000000000098,-27.526011255258993060
0.299000000000000099,-27.516737594506206932
0.300000000000000100,-27.491069509860587061
0.301000000000000101,-27.449798075458978985
0.302000000000000102,-27.393732586927036721
0.303000000000000103,-27.323695614292155653
0.304000000000000103,-27.240518244759506672
0.305000000000000104,-27.145035540076758451
0.306000000000000105,-27.038082228862027279
0.307000000000000106,-26.920488650202052838
0.308000000000000107,-26.793076961055128038
0.309000000000000108,-26.656657616515111897
0.310000000000000109,-26.512026128810692427
0.311000000000000110,-26.359960108022939096
0.312000000000000111,-26.201216584898354256
0.313000000000000111,-26.036529613803953254
0.314000000000000112,-25.866608151806751437
0.315000000000000113,-25.692134208048457822
0.316000000000000114,-25.513761256015801138
0.317000000000000115,-25.332112899963004082
0.318000000000000116,-25.147781785611165617
0.319000000000000117,-24.961328744316563899
0.320000000000000118,-24.773282159149047743
0.321000000000000119,-24.584137540741004102
0.322000000000000119,-24.394357300340441697
0.323000000000000120,-24.204370707215677072
0.324000000000000121,-24.014574017400253325
0.325000000000000122,-23.825330760721847412
0.326000000000000123,-23.636972173116042484
0.327000000000000124,-23.449797761372245475
0.328000000000000125,-23.264075987685721714
0.329000000000000126,-23.080045061682930907
0.330000000000000127,-22.897913827940527653
0.331000000000000127,-22.717862737420801977
0.332000000000000128,-22.540044891689269946
0.333000000000000129,-22.364587149257278753
0.334000000000000130,-22.191591283894855025
0.335000000000000131,-22.021135185282357583
0.336000000000000132,-21.853274092905458303
0.337000000000000133,-21.688041854643465456
0.338000000000000134,-21.525452202049610406
0.339000000000000135,-21.365500034871026003
0.340000000000000135,-21.208162707899749222
0.341000000000000136,-21.053401313783790982
0.342000000000000137,-20.901161955953561744
0.343000000000000138,-20.751377006333001418
0.344000000000000139,-20.603966343003854433
0.345000000000000140,-20.458838563474419203
0.346000000000000141,-20.315892169668131828
0.347000000000000142,-20.175016721193195224
0.348000000000000143,-20.036093953879831275
0.349000000000000143,-19.898998860976213621
0.350000000000000144,-19.763600734778144385
0.351000000000000145,-19.629764166829307470
0.352000000000000146,-19.497350005170176246
0.353000000000000147,-19.366216267432708520
0.354000000000000148,-19.236219008876357606
0.355000000000000149,-19.107213144738178556
0.356000000000000150,-18.979053226526751530
0.357000000000000151,-18.851594172126553417
0.358000000000000151,-18.724691949796902435
0.359000000000000152,-18.598204216348385387
0.360000000000000153,-18.471990909960400273
0.361000000000000154,-18.345914798266779400
0.362000000000000155,-18.219841982483060860
0.363000000000000156,-18.093642358479925747
0.364000000000000157,-17.967190035822902416
0.365000000000000158,-17.840363715900391384
0.366000000000000159,-17.713047030349333255
0.367000000000000159,-17.585128841063735194
0.368000000000000160,-17.456503503134385369
0.369000000000000161,-17.327071092120181817
0.370000000000000162,-17.196737597093310512
0.371000000000000163,-17.065415080932837100
0.372000000000000164,-16.933021809363804522
0.373000000000000165,-16.799482350254500318
0.374000000000000166,-16.664727644691023301
0.375000000000000167,-16.528695051349142631
0.376000000000000167,-16.391328365676834267
0.377000000000000168,-16.252577815389294358
0.378000000000000169,-16.112400033760827966
0.379000000000000170,-15.970758012176640150
0.380000000000000171,-15.827621033380941284
0.381000000000000172,-15.682964586828756381
0.382000000000000173,-15.536770267515269239
0.383000000000000174,-15.389025659621356823
0.384000000000000175,-15.239724206275235829
0.385000000000000175,-15.088865066690138050
0.386000000000000176,-14.936452961895971825
0.387000000000000177,-14.782498010239297770
0.388000000000000178,-14.627015553781742341
0.389000000000000179,-14.470025976681409219
0.390000000000000180,-14.311554516596121545
0.391000000000000181,-14.151631070100876286
0.392000000000000182,-13.990289993066053142
0.393000000000000183,-13.827569896895747448
0.394000000000000183,-13.663513441480528599
0.395000000000000184,-13.498167125672623001
0.396000000000000185,-13.331581076046592926
0.397000000000000186,-13.163808834664374459
0.398000000000000187,-12.994907146519622643
0.399000000000000188,-12.824935747293675803
0.400000000000000189,-12.653957152013862952
0.401000000000000190,-12.482036445163748439
0.402000000000000191,-12.309241072755952473
0.403000000000000191,-12.135640636838987305
0.404000000000000192,-11.961306692873099777
0.405000000000000193,-11.786312550373581942
0.406000000000000194,-11.610733077185660278
0.407000000000000195,-11.434644507721761997
0.408000000000000196,-11.258124255459502905
0.409000000000000197,-11.081250729968505908
0.410000000000000198,-10.904103158704543830
0.411000000000000199,-10.726761413781336074
0.412000000000000199,-10.549305843903635349
0.413000000000000200,-10.371817111620092788
0.414000000000000201,-10.194376036029620280
0.415000000000000202,-10.017063441052560080
0.416000000000000203,-9.839960009356287784
0.417000000000000204,-9.663146142004018557
0.418000000000000205,-9.486701823876922290
0.419000000000000206,-9.310706494901307195
0.420000000000000207,-9.135238927095407746
0.421000000000000207,-8.960377107435240518
0.422000000000000208,-8.786198126523286689
0.423000000000000209,-8.612778073030890269
0.424000000000000210,-8.440191933871915353
0.425000000000000211,-8.268513500053733978
0.426000000000000212,-8.097815278140757300
0.427000000000000213,-7.928168407255606454
0.428000000000000214,-7.759642581534270889
0.429000000000000214,-7.592305977942875650
0.430000000000000215,-7.426225189356530976
0.431000000000000216,-7.261465162794088712
0.432000000000000217,-7.098089142696066389
0.433000000000000218,-6.936158619128320879
0.434000000000000219,-6.775733280788921675
0.435000000000000220,-6.616870972691772934
0.436000000000000221,-6.459627658396970062
0.437000000000000222,-6.304057386654866590
0.438000000000000222,-6.150212262328603963
0.439000000000000223,-5.998142421457661300
0.440000000000000224,-5.847896010323619720
0.441000000000000225,-5.699519168378166079
0.442000000000000226,-5.553056014893043013
0.443000000000000227,-5.408548639190756901
0.444000000000000228,-5.266037094315572098
0.445000000000000229,-5.125559394004265634
0.446000000000000230,-4.987151512817038501
0.447000000000000230,-4.850847389289842937
0.448000000000000231,-4.716678931970720079
0.449000000000000232,-4.584676028204091480
0.450000000000000233,-4.454866555528761651
0.451000000000000234,-4.327276395557182020
0.452000000000000235,-4.201929450205669880
0.453000000000000236,-4.078847660147344456
0.454000000000000237,-3.958051025362249398
0.455000000000000238,-3.839557627661162709
0.456000000000000238,-3.723383655062723285
0.457000000000000239,-3.609543427905712143
0.458000000000000240,-3.498049426581724131
0.459000000000000241,-3.388912320775651743
0.460000000000000242,-3.282141000105082806
0.461000000000000243,-3.177742606052089691
0.462000000000000244,-3.075722565084435978
0.463000000000000245,-2.976084622865815099
0.464000000000000246,-2.878830879458332159
0.465000000000000246,-2.783961825423218350
0.466000000000000247,-2.691476378728974161
0.467000000000000248,-2.601371922379266177
0.468000000000000249,-2.513644342676138344
0.469000000000000250,-2.428288068036941638
0.470000000000000251,-2.345296108286752279
0.471000000000000252,-2.264660094350801067
0.472000000000000253,-2.186370318274852842
0.473000000000000254,-2.110415773504033421
0.474000000000000254,-2.036784195353883664
0.475000000000000255,-1.965462101610201184
0.476000000000000256,-1.896434833197028436
0.477000000000000257,-1.829686594855177928
0.478000000000000258,-1.765200495776163780
0.479000000000000259,-1.702958590139348249
0.480000000000000260,-1.642941917502697802
0.481000000000000261,-1.585130542999995784
0.482000000000000262,-1.529503597300223561
0.483000000000000262,-1.476039316286894110
0.484000000000000263,-1.424715080417868318
0.485000000000000264,-1.375507453728286533
0.486000000000000265,-1.328392222441774795
0.487000000000000266,-1.283344433157075581
0.488000000000000267,-1.240338430579464468
0.489000000000000268,-1.199347894768657996
0.490000000000000269,-1.160345877876433729
0.491000000000000270,-1.123304840349736766
0.492000000000000270,-1.088196686576403893
0.493000000000000271,-1.054992799952924942
0.494000000000000272,-1.023664077355031843
0.495000000000000273,-0.994180962993937989
0.496000000000000274,-0.966513481642519934
0.497000000000000275,-0.940631271217248432
0.498000000000000276,-0.916503614703477076
0.499000000000000277,-0.894099471412780011
0.500000000000000222,-0.873387507562786936
0.501000000000000334,-0.854336126171002297
0.502000000000000224,-0.836913496255678013
0.503000000000000336,-0.821087581337680228
0.504000000000000226,-0.806826167238890002
0.505000000000000338,-0.794096889173351750
0.506000000000000227,-0.782867258128909893
0.507000000000000339,-0.773104686537604335
0.508000000000000229,-0.764776513234501354
0.509000000000000341,-0.757850027705290197
0.510000000000000231,-0.752292493623945568
0.511000000000000343,-0.748071171682519021
0.512000000000000233,-0.745153341715965034
0.513000000000000345,-0.743506324125616791
0.514000000000000234,-0.743097500605663597
0.515000000000000346,-0.743894334177485517
0.516000000000000236,-0.745864388537515688
0.517000000000000348,-0.748975346724778612
0.518000000000000238,-0.753195029114688053
0.519000000000000350,-0.758491410746447658
0.520000000000000240,-0.764832637991561759
0.521000000000000352,-0.772187044571656989
0.522000000000000242,-0.780523166933984602
0.523000000000000353,-0.789809758993631927
0.524000000000000243,-0.800015806251421657
0.525000000000000355,-0.811110539297197009
0.526000000000000245,-0.823063446708150237
0.527000000000000357,-0.835844287352331072
0.528000000000000247,-0.849423102107556227
0.529000000000000359,-0.863770225006193493
0.530000000000000249,-0.878856293816544509
0.531000000000000361,-0.894652260071589267
0.532000000000000250,-0.911129398556080994
0.533000000000000362,-0.928259316263112866
0.534000000000000252,-0.946013960831182721
0.535000000000000364,-0.964365628473315084
0.536000000000000254,-0.983286971409175869
0.537000000000000366,-1.002751004811917701
0.538000000000000256,-1.022731113280875404
0.539000000000000368,-1.043201056851711828
0.540000000000000258,-1.064134976555288103
0.541000000000000369,-1.085507399536808082
0.542000000000000259,-1.107293243746406475
0.543000000000000371,-1.129467822212733896
0.544000000000000261,-1.152006846910670124
0.545000000000000373,-1.174886432234452771
0.546000000000000263,-1.198083098087304954
0.547000000000000375,-1.221573772598805618
0.548000000000000265,-1.245335794480693314
0.549000000000000377,-1.269346915032336653
0.550000000000000266,-1.293585299806280009
0.551000000000000378,-1.318029529944882539
0.552000000000000268,-1.342658603198305434
0.553000000000000380,-1.367451934634456467
0.554000000000000270,-1.392389357051059706
0.555000000000000382,-1.417451121100101075
0.556000000000000272,-1.442617895134560735
0.557000000000000384,-1.467870764787340354
0.558000000000000274,-1.493191232292136572
0.559000000000000385,-1.518561215555732424
0.560000000000000275,-1.543963046991163157
0.561000000000000387,-1.569379472121031016
0.562000000000000277,-1.594793647959902749
0.563000000000000389,-1.620189141184929627
0.564000000000000279,-1.645549926103198946
0.565000000000000391,-1.670860382424628199
0.566000000000000281,-1.696105292848558488
0.567000000000000393,-1.721269840472558599
0.568000000000000282,-1.746339606031277469
0.569000000000000394,-1.771300564973431024
0.570000000000000284,-1.796139084384423157
0.571000000000000396,-1.820841919762456795
0.572000000000000286,-1.845396211655224050
0.573000000000000398,-1.869789482164577521
0.574000000000000288,-1.894009631326085241
0.575000000000000400,-1.918044933370528282
0.576000000000000290,-1.941884032873757659
0.577000000000000401,-1.965515940801749739
0.578000000000000291,-1.988930030456983022
0.579000000000000403,-2.012116033332449483
0.580000000000000293,-2.035064034879269457
0.581000000000000405,-2.057764470193905737
0.582000000000000295,-2.080208119630436503
0.583000000000000407,-2.102386104343735074
0.584000000000000297,-2.124289881768642196
0.585000000000000409,-2.145911241040648232
0.586000000000000298,-2.167242298362869413
0.587000000000000410,-2.188275492324525562
0.588000000000000300,-2.209003579175422338
0.589000000000000412,-2.229419628061305225
0.590000000000000302,-2.249517016224324539
0.591000000000000414,-2.269289424173191350
0.592000000000000304,-2.288730830826961160
0.593000000000000416,-2.307835508636713051
0.594000000000000306,-2.326598018688871061
0.595000000000000417,-2.345013205794108657
0.596000000000000307,-2.363076193565268213
0.597000000000000419,-2.380782379488047162
0.598000000000000309,-2.398127429987693571
0.599000000000000421,-2.415107275494961847
0.600000000000000311,-2.431718105514573125
0.601000000000000423,-2.447956363699148596
0.602000000000000313,-2.463818742931437544
0.603000000000000425,-2.479302180417813695
0.604000000000000314,-2.494403852795505028
0.605000000000000426,-2.509121171256305072
0.606000000000000316,-2.523451776689089154
0.607000000000000428,-2.537393534843546572
0.608000000000000318,-2.550944531517396641
0.609000000000000430,-2.564103067769210043
0.610000000000000320,-2.576867655158835202
0.611000000000000432,-2.589237011017529788
0.612000000000000322,-2.601210053749472451
0.613000000000000433,-2.612785898166580800
0.614000000000000323,-2.623963850858249014
0.615000000000000435,-2.634743405597607335
0.616000000000000325,-2.645124238785783177
0.617000000000000437,-2.655106204935703040
0.618000000000000327,-2.664689332196638283
0.619000000000000439,-2.673873817920890072
0.620000000000000329,-2.682660024273747723
0.621000000000000441,-2.691048473887850179
0.622000000000000330,-2.699039845563044882
0.623000000000000442,-2.706634970012694374
0.624000000000000332,-2.713834825657312155
0.625000000000000444,-2.720640534466511440
0.626000000000000334,-2.727053357849881454
0.627000000000000446,-2.733074692597681654
0.628000000000000336,-2.738706066871920086
0.629000000000000448,-2.743949136248481135
0.630000000000000338,-2.748805679810819580
0.631000000000000449,-2.753277596295796492
0.632000000000000339,-2.757366900292036682
0.633000000000000451,-2.761075718491243780
0.634000000000000341,-2.764406285992811352
0.635000000000000453,-2.767360942662122181
0.636000000000000343,-2.769942129542613873
0.637000000000000455,-2.772152385322087742
0.638000000000000345,-2.773994342853163264
0.639000000000000457,-2.775470725728262256
0.640000000000000346,-2.776584344909043267
0.641000000000000458,-2.777338095410472718
0.642000000000000348,-2.777734953039451948
0.643000000000000460,-2.777777971188099215
0.644000000000000350,-2.777470277681556521
0.645000000000000462,-2.776815071680306168
0.646000000000000352,-2.775815620636850500
0.647000000000000464,-2.774475257306679765
0.648000000000000353,-2.772797376813297632
0.649000000000000465,-2.770785433767172456
0.650000000000000355,-2.768442939438390038
0.651000000000000467,-2.765773458982726307
0.652000000000000357,-2.762780608720979192
0.653000000000000469,-2.759468053471129334
0.654000000000000359,-2.755839503933208867
0.655000000000000471,-2.751898714126376433
0.656000000000000361,-2.747649478877977280
0.657000000000000473,-2.743095631364171449
0.658000000000000362,-2.738241040701779649
0.659000000000000474,-2.733089609590915625
