# Fe001_CS-9357-AC
# h[nm],U(h)[kJ/mol]
0.149999999999999994,77.004223859338566172
0.150999999999999995,72.757261626348253003
0.151999999999999996,68.818627665535871074
0.152999999999999997,65.027988676357750819
0.153999999999999998,61.354314607624232281
0.154999999999999999,57.805705127031956181
0.156000000000000000,54.391616069042356685
0.157000000000000001,51.111400259781369471
0.158000000000000002,47.954556179059657950
0.159000000000000002,44.904973126181879195
0.160000000000000003,41.945468750843858174
0.161000000000000004,39.061139025521889323
0.162000000000000005,36.241192529277192591
0.163000000000000006,33.479469829950986082
0.164000000000000007,30.774033474002361999
0.165000000000000008,28.126222885921929873
0.166000000000000009,25.539499373747823086
0.167000000000000010,23.018313671491149819
0.168000000000000010,20.567139651454041882
0.169000000000000011,18.189745028955364603
0.170000000000000012,15.888716379243433607
0.171000000000000013,13.665220446653716380
0.172000000000000014,11.518963448358844559
0.173000000000000015,9.448301218064937501
0.174000000000000016,7.450452156870133180
0.175000000000000017,5.521769150641114621
0.176000000000000018,3.658033601339310881
0.177000000000000018,1.854742839952564948
0.178000000000000019,0.107370305251888662
0.179000000000000020,-1.588414725196158894
0.180000000000000021,-3.236574765022871336
0.181000000000000022,-4.840580979922416205
0.182000000000000023,-6.403337360239289566
0.183000000000000024,-7.927147650372960541
0.184000000000000025,-9.413718842063751424
0.185000000000000026,-10.864194220005106928
0.186000000000000026,-12.279208769383924249
0.187000000000000027,-13.658960048497544193
0.188000000000000028,-15.003288248103078928
0.189000000000000029,-16.311759978620703038
0.190000000000000030,-17.583751246782910016
0.191000000000000031,-18.818526027631712338
0.192000000000000032,-20.015307749219360289
0.193000000000000033,-21.173341846861230664
0.194000000000000034,-22.291948286787125255
0.195000000000000034,-23.370563592656104390
0.196000000000000035,-24.408772428704075708
0.197000000000000036,-25.406329202959959446
0.198000000000000037,-26.363170460273654072
0.199000000000000038,-27.279419048088119126
0.200000000000000039,-28.155381169858749502
0.201000000000000040,-28.991537504322860030
0.202000000000000041,-29.788529575897250368
0.203000000000000042,-30.547142524146863707
0.204000000000000042,-31.268285349360716907
0.205000000000000043,-31.952969616429221844
0.206000000000000044,-32.602287488798168624
0.207000000000000045,-33.217389845320383301
0.208000000000000046,-33.799465111121079985
0.209000000000000047,-34.349719313741871929
0.210000000000000048,-34.869357761365520787
0.211000000000000049,-35.359568633437199026
0.212000000000000050,-35.821508677264432663
0.213000000000000050,-36.256291118275299823
0.214000000000000051,-36.664975817059286101
0.215000000000000052,-37.048561643162187806
0.216000000000000053,-37.407980983553265730
0.217000000000000054,-37.744096262159636979
0.218000000000000055,-38.057698315107231224
0.219000000000000056,-38.349506443428630575
0.220000000000000057,-38.620169950034608064
0.221000000000000058,-38.870270959701244351
0.222000000000000058,-39.100328318716172760
0.223000000000000059,-39.310802373692695255
0.224000000000000060,-39.502100436000112893
0.225000000000000061,-39.674582748430822221
0.226000000000000062,-39.828568783364033834
0.227000000000000063,-39.964343716109752336
0.228000000000000064,-40.082164932716736416
0.229000000000000065,-40.182268447784721843
0.230000000000000066,-40.264875124283463492
0.231000000000000066,-40.330196603679461020
0.232000000000000067,-40.378440870498380377
0.233000000000000068,-40.409817390564690243
0.234000000000000069,-40.424541776374518065
0.235000000000000070,-40.422839946234716990
0.236000000000000071,-40.404951755848806272
0.237000000000000072,-40.371134091893310369
0.238000000000000073,-40.321663426783473483
0.239000000000000073,-40.256837842276510742
0.240000000000000074,-40.176978536834141664
0.241000000000000075,-40.082430837802199619
0.242000000000000076,-39.973564744523130798
0.243000000000000077,-39.850775032545342924
0.244000000000000078,-39.714480952204411324
0.245000000000000079,-39.565125557103343112
0.246000000000000080,-39.403174699497682809
0.247000000000000081,-39.229115730373251836
0.248000000000000081,-39.043455942174276174
0.249000000000000082,-38.846720791774558279
0.250000000000000111,-38.639451940460183721
0.251000000000000112,-38.422205146479576854
0.252000000000000113,-38.195548044184803871
0.253000000000000114,-37.960057841994974126
0.254000000000000115,-37.716318969419965867
0.255000000000000115,-37.464920701238675349
0.256000000000000116,-37.206454784678705039
0.257000000000000117,-36.941513093136208568
0.258000000000000118,-36.670685327639176876
0.259000000000000119,-36.394556784930998106
0.260000000000000120,-36.113706208756731542
0.261000000000000121,-35.828703738698528980
0.262000000000000122,-35.540108968746906726
0.263000000000000123,-35.248469125727645235
0.264000000000000123,-34.954317375741979390
0.265000000000000124,-34.658171264930309974
0.266000000000000125,-34.360531299144234652
0.267000000000000126,-34.061879665512059034
0.268000000000000127,-33.762679097412345186
0.269000000000000128,-33.463371883029225273
0.270000000000000129,-33.164379016450354243
0.271000000000000130,-32.866099489182850846
0.272000000000000131,-32.568909718999947245
0.273000000000000131,-32.273163112187006618
0.274000000000000132,-31.979189754526650802
0.275000000000000133,-31.687296225741221178
0.276000000000000134,-31.397765531592433774
0.277000000000000135,-31.110857147416055568
0.278000000000000136,-30.826807166536735139
0.279000000000000137,-30.545828546758503563
0.280000000000000138,-30.268111447954208160
0.281000000000000139,-29.993823653673480578
0.282000000000000139,-29.723111069649764460
0.283000000000000140,-29.456098292104535119
0.284000000000000141,-29.192889238815347142
0.285000000000000142,-28.933567836028807108
0.286000000000000143,-28.678198754452843389
0.287000000000000144,-28.426828187750935228
0.288000000000000145,-28.179484667178662960
0.289000000000000146,-27.936179906245012461
0.290000000000000147,-27.696909669543877897
0.291000000000000147,-27.461654660180137455
0.292000000000000148,-27.230381420507047352
0.293000000000000149,-27.003043241192507651
0.294000000000000150,-26.779581073939333180
0.295000000000000151,-26.559924443495866342
0.296000000000000152,-26.343992354904578690
0.297000000000000153,-26.131694192247245212
0.298000000000000154,-25.922930605452041419
0.299000000000000155,-25.717594382030263489
0.300000000000000155,-25.515571300905428132
0.301000000000000156,-25.316740965785520245
0.302000000000000157,-25.120977615806893368
0.303000000000000158,-24.928150911447502835
0.304000000000000159,-24.738126693964481717
0.305000000000000160,-24.550767716857397005
0.306000000000000161,-24.365934348093325923
0.307000000000000162,-24.183485242052213948
0.308000000000000163,-24.003277980360831378
0.309000000000000163,-23.825169680981584719
0.310000000000000164,-23.649017575107208700
0.311000000000000165,-23.474679551585005299
0.312000000000000166,-23.302014668754999605
0.313000000000000167,-23.130883633734114824
0.314000000000000168,-22.961149249315308651
0.315000000000000169,-22.792676828775256581
0.316000000000000170,-22.625334578998028690
0.317000000000000171,-22.458993952425057472
0.318000000000000171,-22.293529968434150135
0.319000000000000172,-22.128821504832981049
0.320000000000000173,-21.964751560225476368
0.321000000000000174,-21.801207488073323759
0.322000000000000175,-21.638081203330536084
0.323000000000000176,-21.475269362575968302
0.324000000000000177,-21.312673518608299617
0.325000000000000178,-21.150200250500386545
0.326000000000000179,-20.987761270135884217
0.327000000000000179,-20.825273506269589063
0.328000000000000180,-20.662659167167412022
0.329000000000000181,-20.499845782889380530
0.330000000000000182,-20.336766228282410651
0.331000000000000183,-20.173358727748247787
0.332000000000000184,-20.009566842846076895
0.333000000000000185,-19.845339443780204647
0.334000000000000186,-19.680630665810063817
0.335000000000000187,-19.515399851603895343
0.336000000000000187,-19.349611480538754904
0.337000000000000188,-19.183235085928117769
0.338000000000000189,-19.016245161135206132
0.339000000000000190,-18.848621055504601429
0.340000000000000191,-18.680346861017831372
0.341000000000000192,-18.511411290550764619
0.342000000000000193,-18.341807548580352005
0.343000000000000194,-18.171533195158783514
0.344000000000000195,-18.000590003941276507
0.345000000000000195,-17.828983815022507287
0.346000000000000196,-17.656724383304432280
0.347000000000000197,-17.483825223085794676
0.348000000000000198,-17.310303449531808440
0.349000000000000199,-17.136179617649371920
0.350000000000000200,-16.961477559361878065
0.351000000000000201,-16.786224219245088563
0.352000000000000202,-16.610449489454509830
0.353000000000000203,-16.434186044343654487
0.354000000000000203,-16.257469175241702430
0.355000000000000204,-16.080336625829747987
0.356000000000000205,-15.902828428525271676
0.357000000000000206,-15.724986742256186645
0.358000000000000207,-15.546855691977878422
0.359000000000000208,-15.368481210260203085
0.360000000000000209,-15.189910881244930607
0.361000000000000210,-15.011193787249208498
0.362000000000000210,-14.832380358266314957
0.363000000000000211,-14.653522224591458922
0.364000000000000212,-14.474672072778162146
0.365000000000000213,-14.295883505108950118
0.366000000000000214,-14.117210902743698497
0.367000000000000215,-13.938709292689107855
0.368000000000000216,-13.760434218714133081
0.369000000000000217,-13.582441616318202904
0.370000000000000218,-13.404787691842281916
0.371000000000000218,-13.227528805796435307
0.372000000000000219,-13.050721360462674170
0.373000000000000220,-12.874421691817238056
0.374000000000000221,-12.698685965803200304
0.375000000000000222,-12.523570078971207664
0.376000000000000223,-12.349129563494651407
0.377000000000000224,-12.175419496554152232
0.378000000000000225,-12.002494414075915330
0.379000000000000226,-11.830408228798892978
0.380000000000000226,-11.659214152636746320
0.381000000000000227,-11.488964623292053702
0.382000000000000228,-11.319711235073032896
0.383000000000000229,-11.151504673855662020
0.384000000000000230,-10.984394656127665968
0.385000000000000231,-10.818429872045426166
0.386000000000000232,-10.653657932429084099
0.387000000000000233,-10.490125319616620203
0.388000000000000234,-10.327877342093469082
0.389000000000000234,-10.166958092810478576
0.390000000000000235,-10.007410411099355585
0.391000000000000236,-9.849275848092625907
0.392000000000000237,-9.692594635551696314
0.393000000000000238,-9.537405658005500442
0.394000000000000239,-9.383746428099687620
0.395000000000000240,-9.231653065055528629
0.396000000000000241,-9.081160276136364118
0.397000000000000242,-8.932301341018741070
0.398000000000000242,-8.785108098965078938
0.399000000000000243,-8.639610938694357145
0.400000000000000244,-8.495838790847269451
0.401000000000000245,-8.353819122943153985
0.402000000000000246,-8.213577936725807049
0.403000000000000247,-8.075139767796331469
0.404000000000000248,-7.938527687432307189
0.405000000000000249,-7.803763306493152641
0.406000000000000250,-7.670866781313138816
0.407000000000000250,-7.539856821484714366
0.408000000000000251,-7.410750699436297495
0.409000000000000252,-7.283564261710449905
0.410000000000000253,-7.158311941849717641
0.411000000000000254,-7.035006774799734686
0.412000000000000255,-6.913660412740547656
0.413000000000000256,-6.794283142259518904
0.414000000000000257,-6.676883902780799573
0.415000000000000258,-6.561470306168845745
0.416000000000000258,-6.448048657425260899
0.417000000000000259,-6.336623976400519886
0.418000000000000260,-6.227200020444446871
0.419000000000000261,-6.119779307921240807
0.420000000000000262,-6.014363142517468397
0.421000000000000263,-5.910951638273378883
0.422000000000000264,-5.809543745270277171
0.423000000000000265,-5.710137275908905963
0.424000000000000266,-5.612728931716188363
0.425000000000000266,-5.517314330619663032
0.426000000000000267,-5.423888034631362487
0.427000000000000268,-5.332443577885070063
0.428000000000000269,-5.242973494973037774
0.429000000000000270,-5.155469349530415357
0.430000000000000271,-5.069921763017835481
0.431000000000000272,-4.986320443654626899
0.432000000000000273,-4.904654215457290967
0.433000000000000274,-4.824911047339862868
0.434000000000000274,-4.747078082234774676
0.435000000000000275,-4.671141666194874809
0.436000000000000276,-4.597087377439140532
0.437000000000000277,-4.524900055306444457
0.438000000000000278,-4.454563829083721949
0.439000000000000279,-4.386062146676610318
0.440000000000000280,-4.319377803092325330
0.441000000000000281,-4.254492968706368394
0.442000000000000282,-4.191389217286295654
0.443000000000000282,-4.130047553747294486
0.444000000000000283,-4.070448441616076884
0.445000000000000284,-4.012571830180994503
0.446000000000000285,-3.956397181307677702
0.447000000000000286,-3.901903495901301255
0.448000000000000287,-3.849069339997443162
0.449000000000000288,-3.797872870465352158
0.450000000000000289,-3.748291860308372581
0.451000000000000290,-3.700303723547747836
0.452000000000000290,-3.653885539677097061
0.453000000000000291,-3.609014077676130139
0.454000000000000292,-3.565665819573227147
0.455000000000000293,-3.523816983547555903
0.456000000000000294,-3.483443546562571491
0.457000000000000295,-3.444521266523499214
0.458000000000000296,-3.407025703952682338
0.459000000000000297,-3.370932243177228393
0.460000000000000298,-3.336216113024575769
0.461000000000000298,-3.302852407022176973
0.462000000000000299,-3.270816103098542094
0.463000000000000300,-3.240082082783406925
0.464000000000000301,-3.210625149905677489
0.465000000000000302,-3.182420048788431099
0.466000000000000303,-3.155441481940941539
0.467000000000000304,-3.129664127248179106
0.468000000000000305,-3.105062654659117349
0.469000000000000306,-3.081611742375392371
0.470000000000000306,-3.059286092542627067
0.471000000000000307,-3.038060446447122587
0.472000000000000308,-3.017909599221170414
0.473000000000000309,-2.998808414060519567
0.474000000000000310,-2.980731835958132514
0.475000000000000311,-2.963654904958652914
0.476000000000000312,-2.947552768938369816
0.477000000000000313,-2.932400695915789335
0.478000000000000314,-2.918174085898301851
0.479000000000000314,-2.904848482270686816
0.480000000000000315,-2.892399582731402852
0.481000000000000316,-2.880803249782983411
0.482000000000000317,-2.870035520782978633
0.483000000000000318,-2.860072617562162467
0.484000000000000319,-2.850890955616809386
0.485000000000000320,-2.842467152882223402
0.486000000000000321,-2.834778038094568409
0.487000000000000322,-2.827800658748444107
0.488000000000000322,-2.821512288657626932
0.489000000000000323,-2.815890435126529034
0.490000000000000324,-2.810912845740067834
0.491000000000000325,-2.806557514779669749
0.492000000000000326,-2.802802689273165448
0.493000000000000327,-2.799626874686492517
0.494000000000000328,-2.797008840265051699
0.495000000000000329,-2.794927624032659708
0.496000000000000330,-2.793362537456024253
0.497000000000000330,-2.792293169782671836
0.498000000000000331,-2.791699392060345897
0.499000000000000332,-2.791561360845678852
0.500000000000000333,-2.791859521610165817
0.501000000000000334,-2.792574611851296407
0.502000000000000335,-2.793687663916632147
0.503000000000000336,-2.795180007548724532
0.504000000000000337,-2.797033272158559569
0.505000000000000338,-2.799229388835267951
0.506000000000000338,-2.801750592099711668
0.507000000000000339,-2.804579421409533868
0.508000000000000340,-2.807698722423181970
0.509000000000000341,-2.811091648030244805
0.510000000000000342,-2.814741659155566289
0.511000000000000343,-2.818632525344248130
0.512000000000000344,-2.822748325134811775
0.513000000000000345,-2.827073446227490017
0.514000000000000346,-2.831592585454706157
0.515000000000000346,-2.836290748560517105
0.516000000000000347,-2.841153249795839386
0.517000000000000348,-2.846165711336122062
0.518000000000000349,-2.851314062527955606
0.519000000000000350,-2.856584538971108422
0.520000000000000351,-2.861963681442346363
0.521000000000000352,-2.867438334667153033
0.522000000000000353,-2.872995645945542798
0.523000000000000353,-2.878623063637935520
0.524000000000000354,-2.884308335516917232
0.525000000000000355,-2.890039506990712770
0.526000000000000356,-2.895804919203944561
0.527000000000000357,-2.901593207021229581
0.528000000000000358,-2.907393296899047463
0.529000000000000359,-2.913194404651046732
0.530000000000000360,-2.918986033112128453
0.531000000000000361,-2.924757969706194505
0.532000000000000361,-2.930500283922611970
0.533000000000000362,-2.936203324706107676
0.534000000000000363,-2.941857717764902347
0.535000000000000364,-2.947454362801546601
0.536000000000000365,-2.952984430671029781
0.537000000000000366,-2.958439360470446200
0.538000000000000367,-2.963810856564508267
0.539000000000000368,-2.969090885550984549
0.540000000000000369,-2.974271673170136854
0.541000000000000369,-2.979345701161994153
0.542000000000000370,-2.984305704075358889
0.543000000000000371,-2.989144666032110376
0.544000000000000372,-2.993855817450518320
0.545000000000000373,-2.998432631730936215
0.546000000000000374,-3.002868821907339836
0.547000000000000375,-3.007158337267900716
0.548000000000000376,-3.011295359947864902
0.549000000000000377,-3.015274301497701703
0.550000000000000377,-3.019089799429586218
0.551000000000000378,-3.022736713745053816
0.552000000000000379,-3.026210123446624767
0.553000000000000380,-3.029505323036072006
0.554000000000000381,-3.032617819001977466
0.555000000000000382,-3.035543326299038558
0.556000000000000383,-3.038277764821577520
0.557000000000000384,-3.040817255873583758
0.558000000000000385,-3.043158118637543375
0.559000000000000385,-3.045296866644236378
0.560000000000000386,-3.047230204245547469
0.561000000000000387,-3.048955023092358552
0.562000000000000388,-3.050468398619425869
0.563000000000000389,-3.051767586539072763
0.564000000000000390,-3.052850019345514365
0.565000000000000391,-3.053713302831510212
0.566000000000000392,-3.054355212618974580
0.567000000000000393,-3.054773690705102851
0.568000000000000393,-3.054966842025529150
0.569000000000000394,-3.054932931035933219
0.570000000000000395,-3.054670378313480761
0.571000000000000396,-3.054177757179354469
0.572000000000000397,-3.053453790343677365
0.573000000000000398,-3.052497346573971981
0.574000000000000399,-3.051307437388269594
0.575000000000000400,-3.049883213773976198
0.576000000000000401,-3.048223962933449993
0.577000000000000401,-3.046329105057293596
0.578000000000000402,-3.044198190126232273
0.579000000000000403,-3.041830894742450386
0.580000000000000404,-3.039227018991156548
0.581000000000000405,-3.036386483333188835
0.582000000000000406,-3.033309325529280898
0.583000000000000407,-3.029995697596737259
0.584000000000000408,-3.026445862799080455
0.585000000000000409,-3.022660192669239354
0.586000000000000409,-3.018639164066856839
0.587000000000000410,-3.014383356270161407
0.588000000000000411,-3.009893448102873403
0.589000000000000412,-3.005170215096563791
0.590000000000000413,-3.000214526688826489
0.591000000000000414,-2.995027343457638658
0.592000000000000415,-2.989609714392172712
0.593000000000000416,-2.983962774200366486
0.594000000000000417,-2.978087740653491799
0.595000000000000417,-2.971985911967915506
0.596000000000000418,-2.965658664224239072
0.597000000000000419,-2.959107448824005004
0.598000000000000420,-2.952333789984018519
0.599000000000000421,-2.945339282268475856
0.600000000000000422,-2.938125588158888579
0.601000000000000423,-2.930694435661905128
0.602000000000000424,-2.923047615955028711
0.603000000000000425,-2.915186981070243988
0.604000000000000425,-2.907114441615514355
0.605000000000000426,-2.898831964534125394
0.606000000000000427,-2.890341570901804324
0.607000000000000428,-2.881645333761521321
0.608000000000000429,-2.872745375995886086
