# Fe001_CS-12814-AC
# h[nm],U(h)[kJ/mol]
0.200000000000000011,137.369192849551154723
0.201000000000000012,131.567229446928564585
0.202000000000000013,127.338556870442474178
0.203000000000000014,123.920444480480142602
0.204000000000000015,120.862423851239100259
0.205000000000000016,117.917090866369818514
0.206000000000000016,114.964560817926184200
0.207000000000000017,111.961192494918662987
0.208000000000000018,108.905616391499577844
0.209000000000000019,105.816934629502242160
0.210000000000000020,102.721341705790749188
0.211000000000000021,99.644451178035424732
0.212000000000000022,96.607385617331530625
0.213000000000000023,93.625258774114428206
0.214000000000000024,90.707098656258835945
0.215000000000000024,87.856565573735352359
0.216000000000000025,85.073038877106085920
0.217000000000000026,82.352802032336072102
0.218000000000000027,79.690164503712281885
0.219000000000000028,77.078433278848848431
0.220000000000000029,74.510696265547494477
0.221000000000000030,71.980411329866370806
0.222000000000000031,69.481813712335721789
0.223000000000000032,67.010164850207289078
0.224000000000000032,64.561870091986094167
0.225000000000000033,62.134493468832701524
0.226000000000000034,59.726696046180698829
0.227000000000000035,57.338121438782856387
0.228000000000000036,54.969248530251277884
0.229000000000000037,52.621227754908566965
0.230000000000000038,50.295713766476474404
0.231000000000000039,47.994704105507558722
0.232000000000000040,45.720390672621434192
0.233000000000000040,43.475028448098505862
0.234000000000000041,41.260823963905970402
0.235000000000000042,39.079844502784609972
0.236000000000000043,36.933947828900627997
0.237000000000000044,34.824731398283724104
0.238000000000000045,32.753499406202678301
0.239000000000000046,30.721245656022951209
0.240000000000000047,28.728650036840740256
0.241000000000000048,26.776086336849271419
0.242000000000000048,24.863639162521216974
0.243000000000000049,22.991127851874306742
0.244000000000000050,21.158135439705368697
0.245000000000000051,19.364040934460046373
0.246000000000000052,17.608053385042794048
0.247000000000000053,15.889246439422047175
0.248000000000000054,14.206592316366021933
0.249000000000000055,12.558994320510004528
0.250000000000000056,10.945317224693530633
0.251000000000000056,9.364415019248719219
0.252000000000000057,7.815155684107338629
0.253000000000000058,6.296442775687556725
0.254000000000000059,4.807233736745214259
0.255000000000000060,3.346554934535239223
0.256000000000000061,1.913513511914972209
0.257000000000000062,0.507306198893037186
0.258000000000000063,-0.872774719811612698
0.259000000000000064,-2.227338050712769135
0.260000000000000064,-3.556892697059184538
0.261000000000000065,-4.861848756340616973
0.262000000000000066,-6.142520436941096840
0.263000000000000067,-7.399130522653118547
0.264000000000000068,-8.631816120906730561
0.265000000000000069,-9.840635442096896668
0.266000000000000070,-11.025575372259675433
0.267000000000000071,-12.186559618642602842
0.268000000000000071,-13.323457226635230910
0.269000000000000072,-14.436091286403595291
0.270000000000000073,-15.524247667835254560
0.271000000000000074,-16.587683642583069599
0.272000000000000075,-17.626136271719378357
0.273000000000000076,-18.639330456474787923
0.274000000000000077,-19.626986567514045134
0.275000000000000078,-20.588827585023846467
0.276000000000000079,-21.524585697440819843
0.277000000000000079,-22.434008320864410990
0.278000000000000080,-23.316863514039930294
0.279000000000000081,-24.172944775268472739
0.280000000000000082,-25.002075217717784739
0.281000000000000083,-25.804111128420629484
0.282000000000000084,-26.578944923809178391
0.283000000000000085,-27.326507521017514790
0.284000000000000086,-28.046770149467949551
0.285000000000000087,-28.739745631520253966
0.286000000000000087,-29.405489164297044624
0.287000000000000088,-30.044098637285905795
0.288000000000000089,-30.655714522047635029
0.289000000000000090,-31.240519371414773531
0.290000000000000091,-31.798736966022215000
0.291000000000000092,-32.330631145955791794
0.292000000000000093,-32.836504364800923383
0.293000000000000094,-33.316696002493664253
0.294000000000000095,-33.771580472181980781
0.295000000000000095,-34.201565154854272066
0.296000000000000096,-34.607088193835224388
0.297000000000000097,-34.988616179436348830
0.298000000000000098,-35.346641752119488444
0.299000000000000099,-35.681681150526415536
0.300000000000000100,-35.994271728676629607
0.301000000000000101,-36.284969464571453557
0.302000000000000102,-36.554346480384616314
0.303000000000000103,-36.802988592397390732
0.304000000000000103,-37.031492906857508274
0.305000000000000104,-37.240465476030529146
0.306000000000000105,-37.430519026874925714
0.307000000000000106,-37.602270773020329386
0.308000000000000107,-37.756340319069657596
0.309000000000000108,-37.893347664683844300
0.310000000000000109,-38.013911314448264989
0.311000000000000110,-38.118646498161261604
0.312000000000000111,-38.208163504933018828
0.313000000000000111,-38.283066133330976299
0.314000000000000112,-38.343950258759441851
0.315000000000000113,-38.391402518310648873
0.316000000000000114,-38.425999112470634600
0.317000000000000115,-38.448304722301216430
0.318000000000000116,-38.458871540046480675
0.319000000000000117,-38.458238410522767481
0.320000000000000118,-38.446930080141171970
0.321000000000000119,-38.425456549977070608
0.322000000000000119,-38.394312528935131468
0.323000000000000120,-38.353976982758283043
0.324000000000000121,-38.304912774389315189
0.325000000000000122,-38.247566391008518849
0.326000000000000123,-38.182367752936627880
0.327000000000000124,-38.109730099504439238
0.328000000000000125,-38.030049946944679107
0.329000000000000126,-37.943707113352353133
0.330000000000000127,-37.851064805785071599
0.331000000000000127,-37.752469764629942972
0.332000000000000128,-37.648252460443899281
0.333000000000000129,-37.538727338578695480
0.334000000000000130,-37.424193107024606775
0.335000000000000131,-37.304933063047954533
0.336000000000000132,-37.181215454350819982
0.337000000000000133,-37.053293870647607378
0.338000000000000134,-36.921407661727982941
0.339000000000000135,-36.785782378257444236
0.340000000000000135,-36.646630231754215856
0.341000000000000136,-36.504150570371699303
0.342000000000000137,-36.358530367307899667
0.343000000000000138,-36.209944718856498014
0.344000000000000139,-36.058557349305857542
0.345000000000000140,-35.904521120083174424
0.346000000000000141,-35.747978540727146424
0.347000000000000142,-35.589062279457159832
0.348000000000000143,-35.427895671285412504
0.349000000000000143,-35.264593221792736699
0.350000000000000144,-35.099261104857099269
0.351000000000000145,-34.931997652786307640
0.352000000000000146,-34.762893837462641500
0.353000000000000147,-34.592033741256059898
0.354000000000000148,-34.419495016606028059
0.355000000000000149,-34.245349333306855044
0.356000000000000150,-34.069662812660787665
0.357000000000000151,-33.892496447784211000
0.358000000000000151,-33.713906509467221895
0.359000000000000152,-33.533944937094005923
0.360000000000000153,-33.352659714232906651
0.361000000000000154,-33.170095228598128756
0.362000000000000155,-32.986292616173138015
0.363000000000000156,-32.801290089366588631
0.364000000000000157,-32.615123249145625550
0.365000000000000158,-32.427825381161355267
0.366000000000000159,-32.239427735943053221
0.367000000000000159,-32.049959793295180077
0.368000000000000160,-31.859449511083688833
0.369000000000000161,-31.667923558644183402
0.370000000000000162,-31.475407535086809219
0.371000000000000163,-31.281926172810322839
0.372000000000000164,-31.087503526569747692
0.373000000000000165,-30.892163148472072010
0.374000000000000166,-30.695928249298294332
0.375000000000000167,-30.498821846571786409
0.376000000000000167,-30.300866899810852573
0.377000000000000168,-30.102086433417508005
0.378000000000000169,-29.902503647666396347
0.379000000000000170,-29.702142018266805223
0.380000000000000171,-29.501025384976298227
0.381000000000000172,-29.299178029749079144
0.382000000000000173,-29.096624744903408555
0.383000000000000174,-28.893390891792581243
0.384000000000000175,-28.689502450461283445
0.385000000000000175,-28.484986060765741911
0.386000000000000176,-28.279869055431010594
0.387000000000000177,-28.074179485511386645
0.388000000000000178,-27.867946138713126203
0.389000000000000179,-27.661198551028796544
0.390000000000000180,-27.453967012123491997
0.391000000000000181,-27.246282564901957102
0.392000000000000182,-27.038176999674895740
0.393000000000000183,-26.829682843329955233
0.394000000000000183,-26.620833343901125545
0.395000000000000184,-26.411662450917230416
0.396000000000000185,-26.202204791896370750
0.397000000000000186,-25.992495645340699895
0.398000000000000187,-25.782570910571159573
0.399000000000000188,-25.572467074728898240
0.400000000000000189,-25.362221177255594995
0.401000000000000190,-25.151870772151259104
0.402000000000000191,-24.941453888294681462
0.403000000000000191,-24.731008988096967016
0.404000000000000192,-24.520574924746199486
0.405000000000000193,-24.310190898286897720
0.406000000000000194,-24.099896410765204280
0.407000000000000195,-23.889731220657868249
0.408000000000000196,-23.679735296789747423
0.409000000000000197,-23.469948771932831022
0.410000000000000198,-23.260411896267413567
0.411000000000000199,-23.051164990873878935
0.412000000000000199,-22.842248401412540204
0.413000000000000200,-22.633702452137889338
0.414000000000000201,-22.425567400382398375
0.415000000000000202,-22.217883391634778434
0.416000000000000203,-22.010690415328081571
0.417000000000000204,-21.804028261442446990
0.418000000000000205,-21.597936478018780804
0.419000000000000206,-21.392454329670442803
0.420000000000000207,-21.187620757171245600
0.421000000000000207,-20.983474338190653441
0.422000000000000208,-20.780053249238115143
0.423000000000000209,-20.577395228872291000
0.424000000000000210,-20.375537542223021603
0.425000000000000211,-20.174516946867328215
0.426000000000000212,-19.974369660094758672
0.427000000000000213,-19.775131327590738550
0.428000000000000214,-19.576836993561720135
0.429000000000000214,-19.379521072319558783
0.430000000000000215,-19.183217321338364769
0.431000000000000216,-18.987958815792115530
0.432000000000000217,-18.793777924576428262
0.433000000000000218,-18.600706287814308126
0.434000000000000219,-18.408774795841669203
0.435000000000000220,-18.218013569664648799
0.436000000000000221,-18.028451942877584457
0.437000000000000222,-17.840118445027286498
0.438000000000000222,-17.653040786406716478
0.439000000000000223,-17.467245844258144416
0.440000000000000224,-17.282759650363750836
0.441000000000000225,-17.099607379999337553
0.442000000000000226,-16.917813342225215933
0.443000000000000227,-16.737400971485620005
0.444000000000000228,-16.558392820487785713
0.445000000000000229,-16.380810554329077178
0.446000000000000230,-16.204674945840217504
0.447000000000000230,-16.030005872111122045
0.448000000000000231,-15.856822312165187228
0.449000000000000232,-15.685142345746688974
0.450000000000000233,-15.514983153185905707
0.451000000000000234,-15.346361016305314351
0.452000000000000235,-15.179291320330468906
0.453000000000000236,-15.013788556768323801
0.454000000000000237,-14.849866327216030726
0.455000000000000238,-14.687537348062708276
0.456000000000000238,-14.526813456047060313
0.457000000000000239,-14.367705614633432987
0.458000000000000240,-14.210223921169568229
0.459000000000000241,-14.054377614788700512
0.460000000000000242,-13.900175085020091359
0.461000000000000243,-13.747623881071252328
0.462000000000000244,-13.596730721746643766
0.463000000000000245,-13.447501505966982904
0.464000000000000246,-13.299941323854971742
0.465000000000000246,-13.154054468352919471
0.466000000000000247,-13.009844447338773321
0.467000000000000248,-12.867313996207514037
0.468000000000000249,-12.726465090885891840
0.469000000000000250,-12.587298961248620799
0.470000000000000251,-12.449816104905451652
0.471000000000000252,-12.314016301328717162
0.472000000000000253,-12.179898626292439801
0.473000000000000254,-12.047461466593976098
0.474000000000000254,-11.916702535030804455
0.475000000000000255,-11.787618885605272823
0.476000000000000256,-11.660206928931227566
0.477000000000000257,-11.534462447817281472
0.478000000000000258,-11.410380613002015338
0.479000000000000259,-11.287955999017603048
0.480000000000000260,-11.167182600158934491
0.481000000000000261,-11.048053846536085132
0.482000000000000262,-10.930562620189078871
0.483000000000000262,-10.814701271244452130
0.484000000000000263,-10.700461634093898056
0.485000000000000264,-10.587835043576326655
0.486000000000000265,-10.476812351145285973
0.487000000000000266,-10.367383941004376879
0.488000000000000267,-10.259539746194297649
0.489000000000000268,-10.153269264615822465
0.490000000000000269,-10.048561574973533084
0.491000000000000270,-9.945405352626359274
0.492000000000000270,-9.843788885331068883
0.493000000000000271,-9.743700088866164677
0.494000000000000272,-9.645126522523879586
0.495000000000000273,-9.548055404458779094
0.496000000000000274,-9.452473626882408553
0.497000000000000275,-9.358367771093432097
0.498000000000000276,-9.265724122334111357
0.499000000000000277,-9.174528684463933104
0.500000000000000222,-9.084767194442159521
0.501000000000000334,-8.996425136611474471
0.502000000000000224,-8.909487756775721579
0.503000000000000336,-8.823940076064689109
0.504000000000000226,-8.739766904580339002
0.505000000000000338,-8.656952854818273480
0.506000000000000227,-8.575482354859948586
0.507000000000000339,-8.495339661330365999
0.508000000000000229,-8.416508872117580253
0.509000000000000341,-8.338973938849836287
0.510000000000000231,-8.262718679127543098
0.511000000000000343,-8.187726788506562769
0.512000000000000233,-8.113981852230910619
0.513000000000000345,-8.041467356712209025
0.514000000000000234,-7.970166700754764300
0.515000000000000346,-7.900063206524111870
0.516000000000000236,-7.831140130258705589
0.517000000000000348,-7.763380672723431353
0.518000000000000238,-7.696767989404956545
0.519000000000000350,-7.631285200448367334
0.520000000000000240,-7.566915400335622266
0.521000000000000352,-7.503641667305958052
0.522000000000000242,-7.441447072519051353
0.523000000000000353,-7.380314688961794545
0.524000000000000243,-7.320227600099845411
0.525000000000000355,-7.261168908275243083
0.526000000000000245,-7.203121742851847031
0.527000000000000357,-7.146069268109998873
0.528000000000000247,-7.089994690892818419
0.529000000000000359,-7.034881268005759303
0.530000000000000249,-6.980712313372114508
0.531000000000000361,-6.927471204946579419
0.532000000000000250,-6.875141391389739454
0.533000000000000362,-6.823706398505879456
0.534000000000000252,-6.773149835447183520
0.535000000000000364,-6.723455400687160299
0.536000000000000254,-6.674606887766406871
0.537000000000000366,-6.626588190813672341
0.538000000000000256,-6.579383309845832528
0.539000000000000368,-6.532976355849603678
0.540000000000000258,-6.487351555648913859
0.541000000000000369,-6.442493256560882564
0.542000000000000259,-6.398385930844409764
0.543000000000000371,-6.355014179944523889
0.544000000000000261,-6.312362738536487328
0.545000000000000373,-6.270416478373017632
0.546000000000000263,-6.229160411938609698
0.547000000000000375,-6.188579695914339318
0.548000000000000265,-6.148659634457414924
0.549000000000000377,-6.109385682298669629
0.550000000000000266,-6.070743447662284353
0.551000000000000378,-6.032718695011230814
0.552000000000000268,-5.995297347622448036
0.553000000000000380,-5.958465489995377951
0.554000000000000270,-5.922209370097889725
0.555000000000000382,-5.886515401453147334
0.556000000000000272,-5.851370165071520191
0.557000000000000384,-5.816760411230931460
0.558000000000000274,-5.782673061109873558
0.559000000000000385,-5.749095208276361113
0.560000000000000275,-5.716014120036982504
0.561000000000000387,-5.683417238649413505
0.562000000000000277,-5.651292182402237074
0.563000000000000389,-5.619626746565702824
0.564000000000000279,-5.588408904216985995
0.565000000000000391,-5.557626806943559927
0.566000000000000281,-5.527268785428196551
0.567000000000000393,-5.497323349919089885
0.568000000000000282,-5.467779190588681004
0.569000000000000394,-5.438625177784365938
0.570000000000000284,-5.409850362174730698
0.571000000000000396,-5.381443974794447804
0.572000000000000286,-5.353395426991300887
0.573000000000000398,-5.325694310278322519
0.574000000000000288,-5.298330396094551809
0.575000000000000400,-5.271293635477323214
0.576000000000000290,-5.244574158649280449
0.577000000000000401,-5.218162274523135302
0.578000000000000291,-5.192048470127232918
0.579000000000000403,-5.166223409954717738
0.580000000000000293,-5.140677935239393648
0.581000000000000405,-5.115403063160925967
0.582000000000000295,-5.090389985982346488
0.583000000000000407,-5.065630070122445261
0.584000000000000297,-5.041114855165842457
0.585000000000000409,-5.016836052813316904
0.586000000000000298,-4.992785545774999001
0.587000000000000410,-4.968955386608897129
0.588000000000000300,-4.945337796507330630
0.589000000000000412,-4.921925164033543965
0.590000000000000302,-4.898710043810988068
0.591000000000000414,-4.875685155167575502
0.592000000000000304,-4.852843380737065893
0.593000000000000416,-4.830177765019874059
0.594000000000000306,-4.807681512905489285
0.595000000000000417,-4.785347988158501487
0.596000000000000307,-4.763170711870363228
0.597000000000000419,-4.741143360878869117
0.598000000000000309,-4.719259766157373193
0.599000000000000421,-4.697513911175439816
0.600000000000000311,-4.675899930233089030
0.601000000000000423,-4.654412106770140056
0.602000000000000313,-4.633044871652646002
0.603000000000000425,-4.611792801437916367
0.604000000000000314,-4.590650616620044033
0.605000000000000426,-4.569613179857232588
0.606000000000000316,-4.548675494182833567
0.607000000000000428,-4.527832701201282006
0.608000000000000318,-4.507080079270733286
0.609000000000000430,-4.486413041673550595
0.610000000000000320,-4.465827134776239937
0.611000000000000432,-4.445318036180042398
0.612000000000000322,-4.424881552863604739
0.613000000000000433,-4.404513619318879414
0.614000000000000323,-4.384210295681580938
0.615000000000000435,-4.363967765857320380
0.616000000000000325,-4.343782335644567283
0.617000000000000437,-4.323650430855573212
0.618000000000000327,-4.303568595436326305
0.619000000000000439,-4.283533489586494269
0.620000000000000329,-4.263541887880474057
0.621000000000000441,-4.243590677390402632
0.622000000000000330,-4.223676855812118269
0.623000000000000442,-4.203797529594901050
0.624000000000000332,-4.183949912075911826
0.625000000000000444,-4.164131321620130777
0.626000000000000334,-4.144339179766555858
0.627000000000000446,-4.124571009381460485
0.628000000000000336,-4.104824432819436097
0.629000000000000448,-4.085097170092872432
0.630000000000000338,-4.065387037050631314
0.631000000000000449,-4.045691943566446014
0.632000000000000339,-4.026009891737775348
0.633000000000000451,-4.006338974095573491
0.634000000000000341,-3.986677371825643412
0.635000000000000453,-3.967023353002065100
0.636000000000000343,-3.947375270833134664
0.637000000000000455,-3.927731561920465797
0.638000000000000345,-3.908090744531518279
0.639000000000000457,-3.888451416886091749
0.640000000000000346,-3.868812255457238614
0.641000000000000458,-3.849172013286839444
0.642000000000000348,-3.829529518316378223
0.643000000000000460,-3.809883671733086175
0.644000000000000350,-3.790233446331979117
0.645000000000000462,-3.770577884893890008
0.646000000000000352,-3.750916098579938129
0.647000000000000464,-3.731247265342584996
0.648000000000000353,-3.711570628353686008
0.649000000000000465,-3.691885494449496097
0.650000000000000355,-3.672191232593203125
0.651000000000000467,-3.652487272354810077
0.652000000000000357,-3.632773102408883403
0.653000000000000469,-3.613048269050023631
0.654000000000000359,-3.593312374726528535
0.655000000000000471,-3.573565076592029932
0.656000000000000361,-3.553806085075573939
0.657000000000000473,-3.534035162469944424
