# Fe001_CS-10955-AC
# h[nm],U(h)[kJ/mol]
0.149999999999999994,96.584403943655530611
0.150999999999999995,90.209952655214863171
0.151999999999999996,85.816181395601518034
0.152999999999999997,81.907398821173259762
0.153999999999999998,77.956687617527407497
0.154999999999999999,73.878439378570988083
0.156000000000000000,69.750357866280879193
0.157000000000000001,65.679521393118662331
0.158000000000000002,61.747795187961493468
0.159000000000000002,57.997960731062029538
0.160000000000000003,54.438343250502100545
0.161000000000000004,51.053823994702632660
0.162000000000000005,47.817168076515898179
0.163000000000000006,44.698073804591132330
0.164000000000000007,41.669234979656707196
0.165000000000000008,38.709637844290512021
0.166000000000000009,35.805692974174604615
0.167000000000000010,32.950880946547400185
0.168000000000000010,30.144521490484056159
0.169000000000000011,27.390147768389788041
0.170000000000000012,24.693829229872342523
0.171000000000000013,22.062662421398368195
0.172000000000000014,19.503549098349282076
0.173000000000000015,17.022306776911197090
0.174000000000000016,14.623106168947998640
0.175000000000000017,12.308198694125643158
0.176000000000000018,10.077880981751757616
0.177000000000000018,7.930637784354853004
0.178000000000000019,5.863406476557658564
0.179000000000000020,3.871912480607940132
0.180000000000000021,1.951033415656386882
0.181000000000000022,0.095158993793135596
0.182000000000000023,-1.701477333997753139
0.183000000000000024,-3.444510868390452174
0.184000000000000025,-5.139211265792243744
0.185000000000000026,-6.790304647353471168
0.186000000000000026,-8.401851324791188347
0.187000000000000027,-9.977175175804358531
0.188000000000000028,-11.518838668888950139
0.189000000000000029,-13.028656375622176711
0.190000000000000030,-14.507739341645645936
0.191000000000000031,-15.956562750141534579
0.192000000000000032,-17.375049756034677273
0.193000000000000033,-18.762665069319805156
0.194000000000000034,-20.118512717875130846
0.195000000000000034,-21.441433341345334185
0.196000000000000035,-22.730097295113857570
0.197000000000000036,-23.983090731098805293
0.198000000000000037,-25.198992638625661300
0.199000000000000038,-26.376441554354606467
0.200000000000000039,-27.514191275009672211
0.201000000000000040,-28.611155427572420251
0.202000000000000041,-29.666441171123700826
0.203000000000000042,-30.679372628873785800
0.204000000000000042,-31.649504886807505954
0.205000000000000043,-32.576629556887162664
0.206000000000000044,-33.460772998620747387
0.207000000000000045,-34.302188333718639512
0.208000000000000046,-35.101342384802777019
0.209000000000000047,-35.858898630227869830
0.210000000000000048,-36.575697201634582711
0.211000000000000049,-37.252732866464064898
0.212000000000000050,-37.891131840864133551
0.213000000000000050,-38.492128174703495347
0.214000000000000051,-39.057040344311637625
0.215000000000000052,-39.587248583691227566
0.216000000000000053,-40.084173384110826532
0.217000000000000054,-40.549255497264724113
0.218000000000000055,-40.983937690045877389
0.219000000000000056,-41.389648420352003200
0.220000000000000057,-41.767787533741774553
0.221000000000000058,-42.119714020309729108
0.222000000000000058,-42.446735819734065842
0.223000000000000059,-42.750101619703869460
0.224000000000000060,-43.030994558350059265
0.225000000000000061,-43.290527714261159531
0.226000000000000062,-43.529741247466077425
0.227000000000000063,-43.749601040685490716
0.228000000000000064,-43.950998681446051819
0.229000000000000065,-44.134752621594095956
0.230000000000000066,-44.301610350629417212
0.231000000000000066,-44.452251422448327389
0.232000000000000067,-44.587291180919933709
0.233000000000000068,-44.707285037659190152
0.234000000000000069,-44.812733164899114513
0.235000000000000070,-44.904085477051026487
0.236000000000000071,-44.981746785982146264
0.237000000000000072,-45.046082026895291506
0.238000000000000073,-45.097421463673768471
0.239000000000000073,-45.136065794416012409
0.240000000000000074,-45.162291089431086277
0.241000000000000075,-45.176353505039273273
0.242000000000000076,-45.178493726998532054
0.243000000000000077,-45.168941107168642191
0.244000000000000078,-45.147917466066516567
0.245000000000000079,-45.115640542217363418
0.246000000000000080,-45.072327076652449307
0.247000000000000081,-45.018195527539525358
0.248000000000000081,-44.953468415771240529
0.249000000000000082,-44.878374307403888110
0.250000000000000111,-44.793149443165738433
0.251000000000000112,-44.698039028881716206
0.252000000000000113,-44.593298203634724075
0.253000000000000114,-44.479192704848976803
0.254000000000000115,-44.355999251292921315
0.255000000000000115,-44.224005666303312978
0.256000000000000116,-44.083510764385081870
0.257000000000000117,-43.934824024789520536
0.258000000000000118,-43.778265075766043424
0.259000000000000119,-43.614163012967750888
0.260000000000000120,-43.442855575011307678
0.261000000000000121,-43.264688198486979331
0.262000000000000122,-43.080012973827663814
0.263000000000000123,-42.889187522406544417
0.264000000000000123,-42.692573814078379257
0.265000000000000124,-42.490536943134948444
0.266000000000000125,-42.283443879340637750
0.267000000000000126,-42.071662209369307561
0.268000000000000127,-41.855558882601933135
0.269000000000000128,-41.635498973882405949
0.270000000000000129,-41.411844474482585099
0.271000000000000130,-41.184953121209382232
0.272000000000000131,-40.955177272309100545
0.273000000000000131,-40.722862837594654195
0.274000000000000132,-40.488348269048081818
0.275000000000000133,-40.251963617039642429
0.276000000000000134,-40.014029656259523904
0.277000000000000135,-39.774857084481702429
0.278000000000000136,-39.534745796374288318
0.279000000000000137,-39.293984233736878764
0.280000000000000138,-39.052848812783132360
0.281000000000000139,-38.811603428395358151
0.282000000000000139,-38.570499034655753690
0.283000000000000140,-38.329773300404006875
0.284000000000000141,-38.089650338081298742
0.285000000000000142,-37.850340503692777361
0.286000000000000143,-37.612040265352234769
0.287000000000000144,-37.374932137559824241
0.288000000000000145,-37.139184678103980275
0.289000000000000146,-36.904952544267452197
0.290000000000000147,-36.672376604851770310
0.291000000000000147,-36.441584104411958833
0.292000000000000148,-36.212688876007874228
0.293000000000000149,-35.985791598729733209
0.294000000000000150,-35.760980096237716452
0.295000000000000151,-35.538329672567108730
0.296000000000000152,-35.317903481486972339
0.297000000000000153,-35.099752925760753897
0.298000000000000154,-34.883918082736165900
0.299000000000000155,-34.670428152789256160
0.300000000000000155,-34.459301927259041065
0.301000000000000156,-34.250548272633430713
0.302000000000000157,-34.044166627882020748
0.303000000000000158,-33.840147511974102201
0.304000000000000159,-33.638473038770278833
0.305000000000000160,-33.439117436629864244
0.306000000000000161,-33.242047570234298348
0.307000000000000162,-33.047223462286893891
0.308000000000000163,-32.854598812908378136
0.309000000000000163,-32.664121514708845950
0.310000000000000164,-32.475734161674289169
0.311000000000000165,-32.289374550161994648
0.312000000000000166,-32.104976170452495410
0.313000000000000167,-31.922468687454447434
0.314000000000000168,-31.741778409303776698
0.315000000000000169,-31.562828742738457066
0.316000000000000170,-31.385540634265119309
0.317000000000000171,-31.209832996262793614
0.318000000000000171,-31.035623117292296058
0.319000000000000172,-30.862827055997968273
0.320000000000000173,-30.691360018098684748
0.321000000000000174,-30.521136716071247008
0.322000000000000175,-30.352071711227399220
0.323000000000000176,-30.184079737978827040
0.324000000000000177,-30.017076010170985256
0.325000000000000178,-29.850976509446503826
0.326000000000000179,-29.685698255674498824
0.327000000000000179,-29.521159559549367657
0.328000000000000180,-29.357280257526461753
0.329000000000000181,-29.193981929319495094
0.330000000000000182,-29.031188098235681139
0.331000000000000183,-28.868824414672769052
0.332000000000000184,-28.706818823143045449
0.333000000000000185,-28.545101713227502671
0.334000000000000186,-28.383606054895654580
0.335000000000000187,-28.222267518655190344
0.336000000000000187,-28.061024581020365787
0.337000000000000188,-27.899818615808261058
0.338000000000000189,-27.738593971789718751
0.339000000000000190,-27.577298037234989181
0.340000000000000191,-27.415881291904831585
0.341000000000000192,-27.254297347046094302
0.342000000000000193,-27.092502973954317724
0.343000000000000194,-26.930458121670049820
0.344000000000000195,-26.768125924374050584
0.345000000000000195,-26.605472699045730423
0.346000000000000196,-26.442467933944271863
0.347000000000000197,-26.279084268466625929
0.348000000000000198,-26.115297464928961091
0.349000000000000199,-25.951086372809289315
0.350000000000000200,-25.786432885978911145
0.351000000000000201,-25.621321893438981476
0.352000000000000202,-25.455741224066137818
0.353000000000000203,-25.289681585858108548
0.354000000000000203,-25.123136500156014961
0.355000000000000204,-24.956102231305614225
0.356000000000000205,-24.788577712204599379
0.357000000000000206,-24.620564466167500939
0.358000000000000207,-24.452066525523473928
0.359000000000000208,-24.283090347346689697
0.360000000000000209,-24.113644726702027299
0.361000000000000210,-23.943740707772743548
0.362000000000000210,-23.773391493219932613
0.363000000000000211,-23.602612352107367855
0.364000000000000212,-23.431420526708855334
0.365000000000000213,-23.259835138498697660
0.366000000000000214,-23.087877093610241985
0.367000000000000215,-22.915568988031008502
0.368000000000000216,-22.742935012787977911
0.369000000000000217,-22.570000859360657586
0.370000000000000218,-22.396793625544990647
0.371000000000000218,-22.223341721976318297
0.372000000000000219,-22.049674779505338051
0.373000000000000220,-21.875823557607347425
0.374000000000000221,-21.701819853991260345
0.375000000000000222,-21.527696415562029841
0.376000000000000223,-21.353486850877509085
0.377000000000000224,-21.179225544228575728
0.378000000000000225,-21.004947571459489097
0.379000000000000226,-20.830688617634358195
0.380000000000000226,-20.656484896644798255
0.381000000000000227,-20.482373072843049755
0.382000000000000228,-20.308390184775671372
0.383000000000000229,-20.134573571082665211
0.384000000000000230,-19.960960798618270218
0.385000000000000231,-19.787589592841225539
0.386000000000000232,-19.614497770513594332
0.387000000000000233,-19.441723174740115354
0.388000000000000234,-19.269303612372247869
0.389000000000000234,-19.097276793794616623
0.390000000000000235,-18.925680275104536321
0.391000000000000236,-18.754551402689763506
0.392000000000000237,-18.583927260203328302
0.393000000000000238,-18.413844617929456149
0.394000000000000239,-18.244339884529061635
0.395000000000000240,-18.075449061149068797
0.396000000000000241,-17.907207697875289654
0.397000000000000242,-17.739650852504428968
0.398000000000000242,-17.572813051607560908
0.399000000000000243,-17.406728253853501087
0.400000000000000244,-17.241429815557570038
0.401000000000000245,-17.076950458418714618
0.402000000000000246,-16.913322239404987357
0.403000000000000247,-16.750576522745024732
0.404000000000000248,-16.588743953981641255
0.405000000000000249,-16.427854436041165798
0.406000000000000250,-16.267937107270942221
0.407000000000000250,-16.109020321395817632
0.408000000000000251,-15.951131629343157314
0.409000000000000252,-15.794297762885298297
0.410000000000000253,-15.638544620046790357
0.411000000000000254,-15.483897252223846053
0.412000000000000255,-15.330379852962312981
0.413000000000000256,-15.178015748340488500
0.414000000000000257,-15.026827388902471938
0.415000000000000258,-14.876836343088086778
0.416000000000000258,-14.728063292105009197
0.417000000000000259,-14.580528026189075064
0.418000000000000260,-14.434249442199012847
0.419000000000000261,-14.289245542491855190
0.420000000000000262,-14.145533435026200308
0.421000000000000263,-14.003129334640581405
0.422000000000000264,-13.862048565454875515
0.423000000000000265,-13.722305564343482587
0.424000000000000266,-13.583913885429629076
0.425000000000000266,-13.446886205550864446
0.426000000000000267,-13.311234330646659174
0.427000000000000268,-13.176969203020084009
0.428000000000000269,-13.044100909426173729
0.429000000000000270,-12.912638689940759917
0.430000000000000271,-12.782590947564477446
0.431000000000000272,-12.653965258517581915
0.432000000000000273,-12.526768383182478317
0.433000000000000274,-12.401006277651740461
0.434000000000000274,-12.276684105840470096
0.435000000000000275,-12.153806252123201759
0.436000000000000276,-12.032376334456362343
0.437000000000000277,-11.912397217948555550
0.438000000000000278,-11.793871028842152882
0.439000000000000279,-11.676799168870672929
0.440000000000000280,-11.561182329957535586
0.441000000000000281,-11.447020509223111873
0.442000000000000282,-11.334313024267865799
0.443000000000000282,-11.223058528700653014
0.444000000000000283,-11.113255027882363635
0.445000000000000284,-11.004899894856128739
0.446000000000000285,-10.897989886436274531
0.447000000000000286,-10.792521159429778521
0.448000000000000287,-10.688489286964300007
0.449000000000000288,-10.585889274898669044
0.450000000000000289,-10.484715578292107097
0.451000000000000290,-10.384962117909953605
0.452000000000000290,-10.286622296744384997
0.453000000000000291,-10.189689016529658971
0.454000000000000292,-10.094154694232503999
0.455000000000000293,-10.000011278498956102
0.456000000000000294,-9.907250266040168896
0.457000000000000295,-9.815862717940351700
0.458000000000000296,-9.725839275871077660
0.459000000000000297,-9.637170178196907244
0.460000000000000298,-9.549845275958192659
0.461000000000000298,-9.463854048717713852
0.462000000000000299,-9.379185620258619238
0.463000000000000300,-9.295828774121805083
0.464000000000000301,-9.213771968971808946
0.465000000000000302,-9.133003353780773992
0.466000000000000303,-9.053510782820989533
0.467000000000000304,-8.975281830456916410
0.468000000000000305,-8.898303805728620119
0.469000000000000306,-8.822563766718754863
0.470000000000000306,-8.748048534696250655
0.471000000000000307,-8.674744708030088347
0.472000000000000308,-8.602638675867515516
0.473000000000000309,-8.531716631571136134
0.474000000000000310,-8.461964585910290992
0.475000000000000311,-8.393368380002337759
0.476000000000000312,-8.325913698000158902
0.477000000000000313,-8.259586079522408752
0.478000000000000314,-8.194370931823787174
0.479000000000000314,-8.130253541702913367
0.480000000000000315,-8.067219087145613088
0.481000000000000316,-8.005252648702244400
0.482000000000000317,-7.944339220597640860
0.483000000000000318,-7.884463721572825712
0.484000000000000319,-7.825611005458026348
0.485000000000000320,-7.767765871476764339
0.486000000000000321,-7.710913074281052104
0.487000000000000322,-7.655037333718212267
0.488000000000000322,-7.600123344329898778
0.489000000000000323,-7.546155784584368753
0.490000000000000324,-7.493119325843148992
0.491000000000000325,-7.440998641063563568
0.492000000000000326,-7.389778413238756727
0.493000000000000327,-7.339443343577167767
0.494000000000000328,-7.289978159423445625
0.495000000000000329,-7.241367621923167519
0.496000000000000330,-7.193596533433717077
0.497000000000000330,-7.146649744683974070
0.498000000000000331,-7.100512161685593071
0.499000000000000332,-7.055168752398733645
0.500000000000000333,-7.010604553155298291
0.501000000000000334,-6.966804674842835610
0.502000000000000335,-6.923754308852356765
0.503000000000000336,-6.881438732793488278
0.504000000000000337,-6.839843315980351335
0.505000000000000338,-6.798953524691799366
0.506000000000000338,-6.758754927209581709
0.507000000000000339,-6.719233198638153048
0.508000000000000340,-6.680374125509925598
0.509000000000000341,-6.642163610179698807
0.510000000000000342,-6.604587675012240311
0.511000000000000343,-6.567632466366815081
0.512000000000000344,-6.531284258382667574
0.513000000000000345,-6.495529456569426152
0.514000000000000346,-6.460354601206385716
0.515000000000000346,-6.425746370554733744
0.516000000000000347,-6.391691583886662364
0.517000000000000348,-6.358177204335523136
0.518000000000000349,-6.325190341570893438
0.519000000000000350,-6.292718254302743119
0.520000000000000351,-6.260748352618636048
0.521000000000000352,-6.229268200158012192
0.522000000000000353,-6.198265516127547059
0.523000000000000353,-6.167728177161555081
0.524000000000000354,-6.137644219031480830
0.525000000000000355,-6.108001838208277690
0.526000000000000356,-6.078789393281747166
0.527000000000000357,-6.049995406240590512
0.528000000000000358,-6.021608563617125931
0.529000000000000359,-5.993617717500389297
0.530000000000000360,-5.966011886421496158
0.531000000000000361,-5.938780256114943867
0.532000000000000361,-5.911912180159568209
0.533000000000000362,-5.885397180502795145
0.534000000000000363,-5.859224947871867428
0.535000000000000364,-5.833385342075475322
0.536000000000000365,-5.807868392199472041
0.537000000000000366,-5.782664296700017914
0.538000000000000367,-5.757763423397601166
0.539000000000000368,-5.733156309375349480
0.540000000000000369,-5.708833660784884856
0.541000000000000369,-5.684786352562987588
0.542000000000000370,-5.661005428062351186
0.543000000000000371,-5.637482098599442715
0.544000000000000372,-5.614207742922705080
0.545000000000000373,-5.591173906604050892
0.546000000000000374,-5.568372301356655285
0.547000000000000375,-5.545794804281976909
0.548000000000000376,-5.523433457048906980
0.549000000000000377,-5.501280465007813980
0.550000000000000377,-5.479328196242230220
0.551000000000000378,-5.457569180560957633
0.552000000000000379,-5.435996108433164054
0.553000000000000380,-5.414601829869062577
0.554000000000000381,-5.393379353248738184
0.555000000000000382,-5.372321844101580979
0.556000000000000383,-5.351422623838691273
0.557000000000000384,-5.330675168440703438
0.558000000000000385,-5.310073107103259638
0.559000000000000385,-5.289610220842440036
0.560000000000000386,-5.269280441062244691
0.561000000000000387,-5.249077848086416864
0.562000000000000388,-5.228996669656558183
0.563000000000000389,-5.209031279398612213
0.564000000000000390,-5.189176195259724622
0.565000000000000391,-5.169426077917355755
0.566000000000000392,-5.149775729162564097
0.567000000000000393,-5.130220090259235199
0.568000000000000393,-5.110754240281075944
0.569000000000000394,-5.091373394428044818
0.570000000000000395,-5.072072902323961685
0.571000000000000396,-5.052848246296811396
0.572000000000000397,-5.033695039643452773
0.573000000000000398,-5.014609024880131827
0.574000000000000399,-4.995586071980371301
0.575000000000000400,-4.976622176601623870
0.576000000000000401,-4.957713458302093201
0.577000000000000401,-4.938856158749088898
0.578000000000000402,-4.920046639920172993
0.579000000000000403,-4.901281382298400935
0.580000000000000404,-4.882556983062849909
0.581000000000000405,-4.863870154275639734
0.582000000000000406,-4.845217721066516603
0.583000000000000407,-4.826596619816190703
0.584000000000000408,-4.808003896339402061
0.585000000000000409,-4.789436704068782191
0.586000000000000409,-4.770892302240457461
0.587000000000000410,-4.752368054082394266
0.588000000000000411,-4.733861425006322676
0.589000000000000412,-4.715369980804173800
0.590000000000000413,-4.696891385849829348
0.591000000000000414,-4.678423401307023610
0.592000000000000415,-4.659963883344142133
0.593000000000000416,-4.641510781356663173
0.594000000000000417,-4.623062136197978234
0.595000000000000417,-4.604616078419232927
0.596000000000000418,-4.586170826518852550
0.597000000000000419,-4.567724685202403379
0.598000000000000420,-4.549276043653298629
0.599000000000000421,-4.530823373815029420
0.600000000000000422,-4.512365228685339069
0.601000000000000423,-4.493900240622943798
0.602000000000000424,-4.475427119667221731
0.603000000000000425,-4.456944651871372898
0.604000000000000425,-4.438451697649449912
0.605000000000000426,-4.419947190137699877
0.606000000000000427,-4.401430133570604752
0.607000000000000428,-4.382899601671932821
