# Fe001_CS-29107-AC
# h[nm],U(h)[kJ/mol]
0.200000000000000011,102.761595277441600160
0.201000000000000012,97.574005687669881581
0.202000000000000013,94.040091628074691243
0.203000000000000014,91.284248932848910840
0.204000000000000015,88.806380199054160585
0.205000000000000016,86.347485672509677102
0.206000000000000016,83.797116821969126477
0.207000000000000017,81.130978648240798634
0.208000000000000018,78.369984972809419332
0.209000000000000019,75.554359245592664251
0.210000000000000020,72.728099976534224425
0.211000000000000021,69.930425549604365187
0.212000000000000022,67.191779458692892035
0.213000000000000023,64.532692533370536125
0.214000000000000024,61.964324211095572537
0.215000000000000024,59.489887105662909050
0.216000000000000025,57.106433890824590094
0.217000000000000026,54.806680288969843673
0.218000000000000027,52.580673609625691256
0.219000000000000028,50.417208646803835848
0.220000000000000029,48.304953747548836418
0.221000000000000030,46.233288444735102019
0.222000000000000031,44.192876855191613572
0.223000000000000032,42.176012986455987175
0.224000000000000032,40.176778757269204334
0.225000000000000033,38.191055507392256629
0.226000000000000034,36.216426894065762099
0.227000000000000035,34.252006632898556404
0.228000000000000036,32.298219418268260483
0.229000000000000037,30.356558131865380545
0.230000000000000038,28.429335481992389134
0.231000000000000039,26.519443722147229892
0.232000000000000040,24.630132180667779096
0.233000000000000040,22.764809027370763062
0.234000000000000041,20.926870995005032228
0.235000000000000042,19.119562621032926586
0.236000000000000043,17.345864920851301605
0.237000000000000044,15.608412182036465410
0.238000000000000045,13.909434714321065485
0.239000000000000046,12.250724838243836956
0.240000000000000047,10.633623088169048998
0.241000000000000048,9.059021490321892855
0.242000000000000048,7.527380808000674328
0.243000000000000049,6.038758785315140543
0.244000000000000050,4.592846635180173109
0.245000000000000051,3.189011280241188739
0.246000000000000052,1.826341145604793770
0.247000000000000053,0.503693602951095110
0.248000000000000054,-0.780257535939100078
0.249000000000000055,-2.026975791419364015
0.250000000000000056,-3.238018100670172483
0.251000000000000056,-4.414994015741773303
0.252000000000000057,-5.559528595275850194
0.253000000000000058,-6.673229376032762339
0.254000000000000059,-7.757657642550865873
0.255000000000000060,-8.814304071075451219
0.256000000000000061,-9.844568705952934096
0.257000000000000062,-10.849745131221370187
0.258000000000000063,-11.831008625131367751
0.259000000000000064,-12.789408028664221106
0.260000000000000064,-13.725861018607082187
0.261000000000000065,-14.641152449263426405
0.262000000000000066,-15.535935412381610021
0.263000000000000067,-16.410734660447779731
0.264000000000000068,-17.265952042344917317
0.265000000000000069,-18.101873610913987278
0.266000000000000070,-18.918678077718247721
0.267000000000000071,-19.716446310035827594
0.268000000000000071,-20.495171587664589907
0.269000000000000072,-21.254770361563171122
0.270000000000000073,-21.995093281849094069
0.271000000000000074,-22.715936288548057576
0.272000000000000075,-23.417051584175034407
0.273000000000000076,-24.098158332270187998
0.274000000000000077,-24.758952950057185660
0.275000000000000078,-25.399118886162909803
0.276000000000000079,-26.018335795637103303
0.277000000000000079,-26.616288044205742125
0.278000000000000080,-27.192672491695940806
0.279000000000000081,-27.747205520852581628
0.280000000000000082,-28.279629292323456013
0.281000000000000083,-28.789717219454434627
0.282000000000000084,-29.277278667762061559
0.283000000000000085,-29.742162893611997276
0.284000000000000086,-30.184262244816171261
0.285000000000000087,-30.603514652662802575
0.286000000000000087,-30.999905450418651753
0.287000000000000088,-31.373468557695968428
0.288000000000000089,-31.724287073364713763
0.289000000000000090,-32.052493322023373423
0.290000000000000091,-32.358268400517168573
0.291000000000000092,-32.641841271718668338
0.292000000000000093,-32.903487452850306738
0.293000000000000094,-33.143527345126713612
0.294000000000000095,-33.362324250508898160
0.295000000000000095,-33.560282119970899828
0.296000000000000096,-33.737843075954131677
0.297000000000000097,-33.895484749690488968
0.298000000000000098,-34.033717471873558225
0.299000000000000099,-34.153081352797826753
0.300000000000000100,-34.254143285619846893
0.301000000000000101,-34.337493903862579714
0.302000000000000102,-34.403744521721336014
0.303000000000000103,-34.453524083170727010
0.304000000000000103,-34.487476143341339707
0.305000000000000104,-34.506255903157999398
0.306000000000000105,-34.510527315826948325
0.307000000000000106,-34.500960281441550137
0.308000000000000107,-34.478227943761083907
0.309000000000000108,-34.443004101110901161
0.310000000000000109,-34.395960741364874025
0.311000000000000110,-34.337765709105951828
0.312000000000000111,-34.269080511322322025
0.313000000000000111,-34.190558266384599051
0.314000000000000112,-34.102841799565659642
0.315000000000000113,-34.006561887006178324
0.316000000000000114,-33.902335648794107215
0.317000000000000115,-33.790765090711296637
0.318000000000000116,-33.672435793201501042
0.319000000000000117,-33.547915745226603690
0.320000000000000118,-33.417754319896332049
0.321000000000000119,-33.282481388076384121
0.322000000000000119,-33.142606565593759171
0.323000000000000120,-32.998618589162511228
0.324000000000000121,-32.850984815739522560
0.325000000000000122,-32.700150839684738457
0.326000000000000123,-32.546540221835869033
0.327000000000000124,-32.390554324409364995
0.328000000000000125,-32.232572245501742714
0.329000000000000126,-32.072950846881582265
0.330000000000000127,-31.912024868728302351
0.331000000000000127,-31.750107124985316176
0.332000000000000128,-31.587488773044441359
0.333000000000000129,-31.424439651564416209
0.334000000000000130,-31.261208680342036814
0.335000000000000131,-31.098024316298324976
0.336000000000000132,-30.935095059807405704
0.337000000000000133,-30.772610005781935172
0.338000000000000134,-30.610739434131176040
0.339000000000000135,-30.449635434422607005
0.340000000000000135,-30.289432559804698286
0.341000000000000136,-30.130248505481745269
0.342000000000000137,-29.972184807272260088
0.343000000000000138,-29.815327556025199129
0.344000000000000139,-29.659748123914102536
0.345000000000000140,-29.505503898874707147
0.346000000000000141,-29.352639023695275000
0.347000000000000142,-29.201185136510662943
0.348000000000000143,-29.051162109688789315
0.349000000000000143,-28.902578784330479778
0.350000000000000144,-28.755433697831144002
0.351000000000000145,-28.609715802172775767
0.352000000000000146,-28.465405170828695702
0.353000000000000147,-28.322473692368827614
0.354000000000000148,-28.180885749051491018
0.355000000000000149,-28.040598878876789257
0.356000000000000150,-27.901564419758095426
0.357000000000000151,-27.763728134639706013
0.358000000000000151,-27.627030816552757386
0.359000000000000152,-27.491408872755368265
0.360000000000000153,-27.356794887249293424
0.361000000000000154,-27.223118161101847789
0.362000000000000155,-27.090305230130326208
0.363000000000000156,-26.958280359626161982
0.364000000000000157,-26.826966015906965168
0.365000000000000158,-26.696283314588896474
0.366000000000000159,-26.566152445566501683
0.367000000000000159,-26.436493074775512468
0.368000000000000160,-26.307224722894630986
0.369000000000000161,-26.178267121215800017
0.370000000000000162,-26.049540544978992074
0.371000000000000163,-25.920966124528256103
0.372000000000000164,-25.792466134699072455
0.373000000000000165,-25.663964262896012514
0.374000000000000166,-25.535385856361710211
0.375000000000000167,-25.406658149175544992
0.376000000000000167,-25.277710469552985728
0.377000000000000168,-25.148474428043726903
0.378000000000000169,-25.018884087250199855
0.379000000000000170,-24.888876113707148363
0.380000000000000171,-24.758389912577744241
0.381000000000000172,-24.627367745833986135
0.382000000000000173,-24.495754834596500160
0.383000000000000174,-24.363499446315135089
0.384000000000000175,-24.230552967473034442
0.385000000000000175,-24.096869962497219575
0.386000000000000176,-23.962408219556145639
0.387000000000000177,-23.827128783919054200
0.388000000000000178,-23.690995979546201511
0.389000000000000179,-23.553977419569608998
0.390000000000000180,-23.416044006313892822
0.391000000000000181,-23.277169921495477922
0.392000000000000182,-23.137332607224990966
0.393000000000000183,-22.996512738423938060
0.394000000000000183,-22.854694187251485715
0.395000000000000184,-22.711863980121517415
0.396000000000000185,-22.568012247873255660
0.397000000000000186,-22.423132169641618816
0.398000000000000187,-22.277219910955977866
0.399000000000000188,-22.130274556577454348
0.400000000000000189,-21.982298038566991494
0.401000000000000190,-21.833295060057345438
0.402000000000000191,-21.683273015184017396
0.403000000000000191,-21.532241905610653987
0.404000000000000192,-21.380214254066448376
0.405000000000000193,-21.227205015293613144
0.406000000000000194,-21.073231484785214462
0.407000000000000195,-20.918313205674767374
0.408000000000000196,-20.762471874121011695
0.409000000000000197,-20.605731243513485396
0.410000000000000198,-20.448117027807111157
0.411000000000000199,-20.289656804276319235
0.412000000000000199,-20.130379915962954840
0.413000000000000200,-19.970317374075474248
0.414000000000000201,-19.809501760581053276
0.415000000000000202,-19.647967131216308445
0.416000000000000203,-19.485748919127875212
0.417000000000000204,-19.322883839338569345
0.418000000000000205,-19.159409794221360812
0.419000000000000206,-18.995365780149327861
0.420000000000000207,-18.830791795476311989
0.421000000000000207,-18.665728749990996960
0.422000000000000208,-18.500218375973737750
0.423000000000000209,-18.334303140974860469
0.424000000000000210,-18.168026162420972014
0.425000000000000211,-18.001431124145405249
0.426000000000000212,-17.834562194928626155
0.427000000000000213,-17.667463949124293521
0.428000000000000214,-17.500181289437598764
0.429000000000000214,-17.332759371913290636
0.430000000000000215,-17.165243533182326985
0.431000000000000216,-16.997679220008418355
0.432000000000000217,-16.830111921167464573
0.433000000000000218,-16.662587101686160196
0.434000000000000219,-16.495150139459141769
0.435000000000000220,-16.327846264257566133
0.436000000000000221,-16.160720499136044026
0.437000000000000222,-15.993817604239078278
0.438000000000000222,-15.827182023003274480
0.439000000000000223,-15.660857830746184760
0.440000000000000224,-15.494888685628248837
0.441000000000000225,-15.329317781970084766
0.442000000000000226,-15.164187805903543094
0.443000000000000227,-14.999540893330754798
0.444000000000000228,-14.835418590162854358
0.445000000000000229,-14.671861814806188562
0.446000000000000230,-14.508910822861491141
0.447000000000000230,-14.346605173998918659
0.448000000000000231,-14.184983700969160836
0.449000000000000232,-14.024084480709191780
0.450000000000000233,-13.863944807499146705
0.451000000000000234,-13.704601168125041255
0.452000000000000235,-13.546089219000981174
0.453000000000000236,-13.388443765202646674
0.454000000000000237,-13.231698741363505434
0.455000000000000238,-13.075887194383472689
0.456000000000000238,-12.921041267899747496
0.457000000000000239,-12.767192188468269975
0.458000000000000240,-12.614370253404448619
0.459000000000000241,-12.462604820230710700
0.460000000000000242,-12.311924297679126994
0.461000000000000243,-12.162356138196338762
0.462000000000000244,-12.013926831898984915
0.463000000000000245,-11.866661901926892853
0.464000000000000246,-11.720585901142696272
0.465000000000000246,-11.575722410125859341
0.466000000000000247,-11.432094036410077820
0.467000000000000248,-11.289722414913157422
0.468000000000000249,-11.148628209509377385
0.469000000000000250,-11.008831115694551528
0.470000000000000251,-10.870349864294947650
0.471000000000000252,-10.733202226171774996
0.472000000000000253,-10.597405017873914090
0.473000000000000254,-10.462974108192138800
0.474000000000000254,-10.329924425569126711
0.475000000000000255,-10.198269966320292923
0.476000000000000256,-10.068023803621493073
0.477000000000000257,-9.939198097220662831
0.478000000000000258,-9.811804103831113011
0.479000000000000259,-9.685852188165606336
0.480000000000000260,-9.561351834571095054
0.481000000000000261,-9.438311659224911665
0.482000000000000262,-9.316739422854672270
0.483000000000000262,-9.196642043944656564
0.484000000000000263,-9.078025612392877974
0.485000000000000264,-8.960895403583878149
0.486000000000000265,-8.845255892843468359
0.487000000000000266,-8.731110770242574759
0.488000000000000267,-8.618462955718415586
0.489000000000000268,-8.507314614482464066
0.490000000000000269,-8.397667172685276071
0.491000000000000270,-8.289521333309817663
0.492000000000000270,-8.182877092265380625
0.493000000000000271,-8.077733754655771037
0.494000000000000272,-7.974089951195890258
0.495000000000000273,-7.871943654752177721
0.496000000000000274,-7.771292196983365486
0.497000000000000275,-7.672132285058530954
0.498000000000000276,-7.574460018430994701
0.499000000000000277,-7.478270905647041111
0.500000000000000222,-7.383559881169479588
0.501000000000000334,-7.290321322197115705
0.502000000000000224,-7.198549065461944174
0.503000000000000336,-7.108236423986471486
0.504000000000000226,-7.019376203785159696
0.505000000000000338,-6.931960720493677286
0.506000000000000227,-6.845981815911793333
0.507000000000000339,-6.761430874445027328
0.508000000000000229,-6.678298839432416756
0.509000000000000341,-6.596576229347154374
0.510000000000000231,-6.516253153858836633
0.511000000000000343,-6.437319329745396779
0.512000000000000233,-6.359764096644905607
0.513000000000000345,-6.283576432636707843
0.514000000000000234,-6.208744969643371192
0.515000000000000346,-6.135258008644030703
0.516000000000000236,-6.063103534691881791
0.517000000000000348,-5.992269231727805234
0.518000000000000238,-5.922742497183635102
0.519000000000000350,-5.854510456368433147
0.520000000000000240,-5.787559976632254077
0.521000000000000352,-5.721877681301822172
0.522000000000000242,-5.657449963383556657
0.523000000000000353,-5.594262999029323780
0.524000000000000243,-5.532302760761306004
0.525000000000000355,-5.471555030452234902
0.526000000000000245,-5.412005412058269016
0.527000000000000357,-5.353639344101440933
0.528000000000000247,-5.296442111899955840
0.529000000000000359,-5.240398859543855536
0.530000000000000249,-5.185494601615042498
0.531000000000000361,-5.131714234650043061
0.532000000000000250,-5.079042548344967933
0.533000000000000362,-5.027464236501778316
0.534000000000000252,-4.976963907715865609
0.535000000000000364,-4.927526095804745765
0.536000000000000254,-4.879135269978283063
0.537000000000000366,-4.831775844750757720
0.538000000000000256,-4.785432189595907104
0.539000000000000368,-4.740088638345406835
0.540000000000000258,-4.695729498332619656
0.541000000000000369,-4.652339059282400768
0.542000000000000259,-4.609901601949109029
0.543000000000000371,-4.568401406504182027
0.544000000000000261,-4.527822760675588754
0.545000000000000373,-4.488149967640962856
0.546000000000000263,-4.449367353677005532
0.547000000000000375,-4.411459275567216842
0.548000000000000265,-4.374410127770929080
0.549000000000000377,-4.338204349355865297
0.550000000000000266,-4.302826430697377802
0.551000000000000378,-4.268260919947014287
0.552000000000000268,-4.234492429273569059
0.553000000000000380,-4.201505640879531711
0.554000000000000270,-4.169285312796310983
0.555000000000000382,-4.137816284461200311
0.556000000000000272,-4.107083482079729286
0.557000000000000384,-4.077071923776362183
0.558000000000000274,-4.047766724537430250
0.559000000000000385,-4.019153100949322877
0.560000000000000275,-3.991216375735827881
0.561000000000000387,-3.963941982097925809
0.562000000000000277,-3.937315467859742846
0.563000000000000389,-3.911322499424268351
0.564000000000000279,-3.885948865542444342
0.565000000000000391,-3.861180480899334189
0.566000000000000281,-3.837003389520956098
0.567000000000000393,-3.813403768005540151
0.568000000000000282,-3.790367928582917934
0.569000000000000394,-3.767882322005554840
0.570000000000000284,-3.745933540275147244
0.571000000000000396,-3.724508319208255980
0.572000000000000286,-3.703593540844831722
0.573000000000000398,-3.683176235703041979
0.574000000000000288,-3.663243584884280146
0.575000000000000400,-3.643782922031862714
0.576000000000000290,-3.624781735146982875
0.577000000000000401,-3.606227668265559849
0.578000000000000291,-3.588108522999542860
0.579000000000000403,-3.570412259946063038
0.580000000000000293,-3.553126999968124089
0.581000000000000405,-3.536241025350106870
0.582000000000000295,-3.519742780831626394
0.583000000000000407,-3.503620874523066142
0.584000000000000297,-3.487864078706176318
0.585000000000000409,-3.472461330523036960
0.586000000000000298,-3.457401732556656615
0.587000000000000410,-3.442674553306429797
0.588000000000000300,-3.428269227561680399
0.589000000000000412,-3.414175356676357076
0.590000000000000302,-3.400382708748064253
0.591000000000000414,-3.386881218704469010
0.592000000000000304,-3.373660988300029029
0.593000000000000416,-3.360712286026074302
0.594000000000000306,-3.348025546937148711
0.595000000000000417,-3.335591372396453202
0.596000000000000307,-3.323400529743202103
0.597000000000000419,-3.311443951884709413
0.598000000000000309,-3.299712736815934022
0.599000000000000421,-3.288198147069031130
0.600000000000000311,-3.276891609095728963
0.601000000000000423,-3.265784712584939964
0.602000000000000313,-3.254869209718239453
0.603000000000000425,-3.244137014365573002
0.604000000000000314,-3.233580201223793971
0.605000000000000426,-3.223191004900181955
0.606000000000000316,-3.212961818943509407
0.607000000000000428,-3.202885194824673043
0.608000000000000318,-3.192953840869395599
0.609000000000000430,-3.183160621144951463
0.610000000000000320,-3.173498554303157970
0.611000000000000432,-3.163960812381699572
0.612000000000000322,-3.154540719565802398
0.613000000000000433,-3.145231750912251378
0.614000000000000323,-3.136027531037715477
0.615000000000000435,-3.126921832773231991
0.616000000000000325,-3.117908575786717762
0.617000000000000437,-3.108981825175326286
0.618000000000000327,-3.100135790029376004
0.619000000000000439,-3.091364821969556864
0.620000000000000329,-3.082663413659132878
0.621000000000000441,-3.074026197292687890
0.622000000000000330,-3.065447943063072334
0.623000000000000442,-3.056923557608013375
0.624000000000000332,-3.048448082437919648
0.625000000000000444,-3.040016692346363847
0.626000000000000334,-3.031624693804571447
0.627000000000000446,-3.023267523341374829
0.628000000000000336,-3.014940745909900244
0.629000000000000448,-3.006640053242314092
0.630000000000000338,-2.998361262193868004
0.631000000000000449,-2.990100313077455496
0.632000000000000339,-2.981853267989883260
0.633000000000000451,-2.973616309130949098
0.634000000000000341,-2.965385737116468245
0.635000000000000453,-2.957157969286357435
0.636000000000000343,-2.948929538008663975
0.637000000000000455,-2.940697088980759766
0.638000000000000345,-2.932457379528458752
0.639000000000000457,-2.924207276904117414
0.640000000000000346,-2.915943756584589597
0.641000000000000458,-2.907663900569891435
0.642000000000000348,-2.899364895683427257
0.643000000000000460,-2.891044031874584253
0.644000000000000350,-2.882698700524483293
0.645000000000000462,-2.874326392755621296
0.646000000000000352,-2.865924697746137895
0.647000000000000464,-2.857491301049381427
0.648000000000000353,-2.849023982919498543
0.649000000000000465,-2.840520616643584351
0.650000000000000355,-2.831979166881136933
0.651000000000000467,-2.823397688011270112
0.652000000000000357,-2.814774322488378999
0.653000000000000469,-2.806107299206664241
0.654000000000000359,-2.797394931874189528
0.655000000000000471,-2.788635617396778787
0.656000000000000361,-2.779827834272399656
0.657000000000000473,-2.770970140996357856
0.658000000000000362,-2.762061174477800307
