# Fe001_CS-61465-AC
# h[nm],U(h)[kJ/mol]
0.200000000000000011,81.839762558116731839
0.201000000000000012,74.953771772652032723
0.202000000000000013,71.308310220730334095
0.203000000000000014,69.119436816288327918
0.204000000000000015,67.387954426781405459
0.205000000000000016,65.611367582051542513
0.206000000000000016,63.587853917368690304
0.207000000000000017,61.285841381256048521
0.208000000000000018,58.759760204158304475
0.209000000000000019,56.097786432950364599
0.210000000000000020,53.391320476706695786
0.211000000000000021,50.718864851619407830
0.212000000000000022,48.139123193375937149
0.213000000000000023,45.689724476444290246
0.214000000000000024,43.389125475693639089
0.215000000000000024,41.240070264994940885
0.216000000000000025,39.233571281340019254
0.217000000000000026,37.352785354289721909
0.218000000000000027,35.576437775509688777
0.219000000000000028,33.881633745814859537
0.220000000000000029,32.246016091033467887
0.221000000000000030,30.649300773346897842
0.222000000000000031,29.074261990752880536
0.223000000000000032,27.507257148839983074
0.224000000000000032,25.938386333915531168
0.225000000000000033,24.361376529992121220
0.226000000000000034,22.773271481795205773
0.227000000000000035,21.173996387517728834
0.228000000000000036,19.565854211200644386
0.229000000000000037,17.952998411772835397
0.230000000000000038,16.340915927994384305
0.231000000000000039,14.735944663566053592
0.232000000000000040,13.144841605683254215
0.233000000000000040,11.574411070264595480
0.234000000000000041,10.031197302406768657
0.235000000000000042,8.521241629642844373
0.236000000000000043,7.049901405588035352
0.237000000000000044,5.621725925520340006
0.238000000000000045,4.240383182734563938
0.239000000000000046,2.908630617326282586
0.240000000000000047,1.628322755802008359
0.241000000000000048,0.400448736514264936
0.242000000000000048,-0.774806934204414266
0.243000000000000049,-1.897986527213246344
0.244000000000000050,-2.970269637562171550
0.245000000000000051,-3.993376945454308213
0.246000000000000052,-4.969471297770024165
0.247000000000000053,-5.901059523895741954
0.248000000000000054,-6.790897740933867333
0.249000000000000055,-7.641902293586619876
0.250000000000000056,-8.457067922307119900
0.251000000000000056,-9.239394264552885261
0.252000000000000057,-9.991821369675307096
0.253000000000000058,-10.717174547126747441
0.254000000000000059,-11.418118567445867839
0.255000000000000060,-12.097120991806759704
0.256000000000000061,-12.756424213912264776
0.257000000000000062,-13.398025652352567150
0.258000000000000063,-14.023665426753717966
0.259000000000000064,-14.634820781669318990
0.260000000000000064,-15.232706482985340912
0.261000000000000065,-15.818280397683604832
0.262000000000000066,-16.392253474595989360
0.263000000000000067,-16.955103367145309079
0.264000000000000068,-17.507090975321130344
0.265000000000000069,-18.048279230026167852
0.266000000000000070,-18.578553495624539948
0.267000000000000071,-19.097643023611841073
0.268000000000000071,-19.605142949765514970
0.269000000000000072,-20.100536387234878788
0.270000000000000073,-20.583216227414865784
0.271000000000000074,-21.052506318022587095
0.272000000000000075,-21.507681742716339812
0.273000000000000076,-21.947987978230028006
0.274000000000000077,-22.372658752903014090
0.275000000000000078,-22.780932474377213026
0.276000000000000079,-23.172067133960503327
0.277000000000000079,-23.545353630675780465
0.278000000000000080,-23.900127489372067657
0.279000000000000081,-24.235778974589798906
0.280000000000000082,-24.551761625314512116
0.281000000000000083,-24.847599255537467400
0.282000000000000084,-25.122891481908126821
0.283000000000000085,-25.377317852973924062
0.284000000000000086,-25.610640664827979407
0.285000000000000087,-25.822706555699419084
0.286000000000000087,-26.013446977398160698
0.287000000000000088,-26.182877644830604424
0.288000000000000089,-26.331097066291413000
0.289000000000000090,-26.458284257153859897
0.290000000000000091,-26.564695738152842353
0.291000000000000092,-26.650661916897838921
0.292000000000000093,-26.716582947759764721
0.293000000000000094,-26.762924161028230685
0.294000000000000095,-26.790211147395535107
0.295000000000000095,-26.799024578537160579
0.296000000000000096,-26.789994838954790168
0.297000000000000097,-26.763796538443124007
0.298000000000000098,-26.721142968634261194
0.299000000000000099,-26.662780561151372183
0.300000000000000100,-26.589483399039778533
0.301000000000000101,-26.502047827400907920
0.302000000000000102,-26.401287203584661967
0.303000000000000103,-26.288026821940452038
0.304000000000000103,-26.163099043019467871
0.305000000000000104,-26.027338652286765353
0.306000000000000105,-25.881578468859583353
0.307000000000000106,-25.726645220550032889
0.308000000000000107,-25.563355697564322355
0.309000000000000108,-25.392513193598205135
0.310000000000000109,-25.214904239768763716
0.311000000000000110,-25.031295633831142311
0.312000000000000111,-24.842431764437826303
0.313000000000000111,-24.649032227798006289
0.314000000000000112,-24.451789731973555320
0.315000000000000113,-24.251368282193773496
0.316000000000000114,-24.048401638968790905
0.317000000000000115,-23.843492039416510409
0.318000000000000116,-23.637209171075717506
0.319000000000000117,-23.430089386541958163
0.320000000000000118,-23.222635146517966120
0.321000000000000119,-23.015314678301500351
0.322000000000000119,-22.808561836325047523
0.323000000000000120,-22.602776151098925794
0.324000000000000121,-22.398323052778302156
0.325000000000000122,-22.195534255561401693
0.326000000000000123,-21.994708289217502539
0.327000000000000124,-21.796111164226854129
0.328000000000000125,-21.599977157279816709
0.329000000000000126,-21.406509704215977763
0.330000000000000127,-21.215882387877769588
0.331000000000000127,-21.028240008797130400
0.332000000000000128,-20.843699727117851239
0.333000000000000129,-20.662352264674314739
0.334000000000000130,-20.484263156690676766
0.335000000000000131,-20.309474043127018206
0.336000000000000132,-20.138003990273922739
0.337000000000000133,-19.969850833779801746
0.338000000000000134,-19.804992534879779953
0.339000000000000135,-19.643388542178762179
0.340000000000000135,-19.484981151917786235
0.341000000000000136,-19.329696860221659449
0.342000000000000137,-19.177447701381709066
0.343000000000000138,-19.028132566769240697
0.344000000000000139,-18.881638499500450479
0.345000000000000140,-18.737841960480306369
0.346000000000000141,-18.596610061939664149
0.347000000000000142,-18.457801765046085052
0.348000000000000143,-18.321269038613230862
0.349000000000000143,-18.186857976355248923
0.350000000000000144,-18.054409870532179383
0.351000000000000145,-17.923762240208230168
0.352000000000000146,-17.794749812698249514
0.353000000000000147,-17.667205457107908018
0.354000000000000148,-17.540961069181072673
0.355000000000000149,-17.415848406953166716
0.356000000000000150,-17.291699876973535055
0.357000000000000151,-17.168349271102236742
0.358000000000000151,-17.045632454109121312
0.359000000000000152,-16.923388002505340921
0.360000000000000153,-16.801457795220823499
0.361000000000000154,-16.679687556906454660
0.362000000000000155,-16.557927354787182139
0.363000000000000156,-16.436032050123404957
0.364000000000000157,-16.313861705453042816
0.365000000000000158,-16.191281948887429110
0.366000000000000159,-16.068164296819908543
0.367000000000000159,-15.944386436479273783
0.368000000000000160,-15.819832469820966026
0.369000000000000161,-15.694393120297551292
0.370000000000000162,-15.567965904088577389
0.371000000000000163,-15.440455267398188965
0.372000000000000164,-15.311772691447490757
0.373000000000000165,-15.181836766799680305
0.374000000000000166,-15.050573238658211395
0.375000000000000167,-14.917915024773975574
0.376000000000000167,-14.783802207586694166
0.377000000000000168,-14.648182002208553598
0.378000000000000169,-14.511008701836349388
0.379000000000000170,-14.372243602151616670
0.380000000000000171,-14.231854906236852898
0.381000000000000172,-14.089817611501842975
0.382000000000000173,-13.946113380075541244
0.383000000000000174,-13.800730394078930985
0.384000000000000175,-13.653663197150654796
0.385000000000000175,-13.504912523552556891
0.386000000000000176,-13.354485116135430545
0.387000000000000177,-13.202393534397256047
0.388000000000000178,-13.048655953817515751
0.389000000000000179,-12.893295957601200286
0.390000000000000180,-12.736342321916257703
0.391000000000000181,-12.577828795657804761
0.392000000000000182,-12.417793875722349384
0.393000000000000183,-12.256280578724844332
0.394000000000000183,-12.093336210042110679
0.395000000000000184,-11.929012131016843767
0.396000000000000185,-11.763363525107916274
0.397000000000000186,-11.596449163725440101
0.398000000000000187,-11.428331172441977159
0.399000000000000188,-11.259074798225924496
0.400000000000000189,-11.088748178298724056
0.401000000000000190,-10.917422111173804566
0.402000000000000191,-10.745169830393853871
0.403000000000000191,-10.572066781441538552
0.404000000000000192,-10.398190402260116372
0.405000000000000193,-10.223619907781952065
0.406000000000000194,-10.048436078826641804
0.407000000000000195,-9.872721055695457437
0.408000000000000196,-9.696558136754763524
0.409000000000000197,-9.520031582269231407
0.410000000000000198,-9.343226423714824591
0.411000000000000199,-9.166228278772019067
0.412000000000000199,-8.989123172171877840
0.413000000000000200,-8.811997362541456269
0.414000000000000201,-8.634937175369273632
0.415000000000000202,-8.458028842188308971
0.416000000000000203,-8.281358346051579389
0.417000000000000204,-8.105011273353806445
0.418000000000000205,-7.929072672033463220
0.419000000000000206,-7.753626916170597738
0.420000000000000207,-7.578757576978181199
0.421000000000000207,-7.404547300169411983
0.422000000000000208,-7.231077689667165131
0.423000000000000209,-7.058429197608980132
0.424000000000000210,-6.886681020587213098
0.425000000000000211,-6.715911002052540546
0.426000000000000212,-6.546195540798042778
0.427000000000000213,-6.377609505430947401
0.428000000000000214,-6.210226154730412063
0.429000000000000214,-6.044117063781103916
0.430000000000000215,-5.879352055765255436
0.431000000000000216,-5.715999139289341002
0.432000000000000217,-5.554124451115298733
0.433000000000000218,-5.393792204161560910
0.434000000000000219,-5.235064640634364608
0.435000000000000220,-5.078001990146207234
0.436000000000000221,-4.922662432674911770
0.437000000000000222,-4.769102066214261804
0.438000000000000222,-4.617374878965036622
0.439000000000000223,-4.467532725913627267
0.440000000000000224,-4.319625309644261613
0.441000000000000225,-4.173700165230181724
0.442000000000000226,-4.029802649049064378
0.443000000000000227,-3.887975931367591009
0.444000000000000228,-3.748260992541047720
0.445000000000000229,-3.610696622674308465
0.446000000000000230,-3.475319424591810868
0.447000000000000230,-3.342163819965417559
0.448000000000000231,-3.211262058450815804
0.449000000000000232,-3.082644229684843307
0.450000000000000233,-2.956338277998385777
0.451000000000000234,-2.832370019701683894
0.452000000000000235,-2.710763162801383963
0.453000000000000236,-2.591539329011261383
0.454000000000000237,-2.474718077921507664
0.455000000000000238,-2.360316933194015920
0.456000000000000238,-2.248351410654579219
0.457000000000000239,-2.138835048155469210
0.458000000000000240,-2.031779437085725615
0.459000000000000241,-1.927194255408969381
0.460000000000000242,-1.825087302112655907
0.461000000000000243,-1.725464532955371499
0.462000000000000244,-1.628330097402701737
0.463000000000000245,-1.533686376645172711
0.464000000000000246,-1.441534022595589937
0.465000000000000246,-1.351871997766334932
0.466000000000000247,-1.264697615930606700
0.467000000000000248,-1.180006583475087467
0.468000000000000249,-1.097793041355032750
0.469000000000000250,-1.018049607565914672
0.470000000000000251,-0.940767420049418823
0.471000000000000252,-0.865936179954614360
0.472000000000000253,-0.793544195178756184
0.473000000000000254,-0.723578424115096763
0.474000000000000254,-0.656024519538500606
0.475000000000000255,-0.590866872562744949
0.476000000000000256,-0.528088656606407914
0.477000000000000257,-0.467671871307482001
0.478000000000000258,-0.409597386329558943
0.479000000000000259,-0.353844985005572543
0.480000000000000260,-0.300393407767861498
0.481000000000000261,-0.249220395315972315
0.482000000000000262,-0.200302731476654505
0.483000000000000262,-0.153616285712728118
0.484000000000000263,-0.109136055240478494
0.485000000000000264,-0.066836206717402730
0.486000000000000265,-0.026690117464879259
0.487000000000000266,0.011329583807557331
0.488000000000000267,0.047250976807315402
0.489000000000000268,0.081102810021725702
0.490000000000000269,0.112914461665743732
0.491000000000000270,0.142715901238594012
0.492000000000000270,0.170537651712057536
0.493000000000000271,0.196410752370763275
0.494000000000000272,0.220366722323341924
0.495000000000000273,0.242437524701172358
0.496000000000000274,0.262655531559956579
0.497000000000000275,0.281053489497667008
0.498000000000000276,0.297664486000621620
0.499000000000000277,0.312521916528247790
0.500000000000000222,0.325659452345267941
0.501000000000000334,0.337111009108977011
0.502000000000000224,0.346910716217609161
0.503000000000000336,0.355092886924872064
0.504000000000000226,0.361691989224126154
0.505000000000000338,0.366742617504880075
0.506000000000000227,0.370279464982827544
0.507000000000000339,0.372337296903963999
0.508000000000000229,0.372950924521969818
0.509000000000000341,0.372155179847324824
0.510000000000000231,0.369984891165652585
0.511000000000000343,0.366474859321962332
0.512000000000000233,0.361659834766650590
0.513000000000000345,0.355574495358341902
0.514000000000000234,0.348253424917978338
0.515000000000000346,0.339731092527927658
0.516000000000000236,0.330041832569213267
0.517000000000000348,0.319219825489338749
0.518000000000000238,0.307299079292851385
0.519000000000000350,0.294313411745940168
0.520000000000000240,0.280296433286287172
0.521000000000000352,0.265281530628616147
0.522000000000000242,0.249301851056276419
0.523000000000000353,0.232390287388514638
0.524000000000000243,0.214579463613167432
0.525000000000000355,0.195901721173761312
0.526000000000000245,0.176389105900109339
0.527000000000000357,0.156073355570963940
0.528000000000000247,0.134985888097277490
0.529000000000000359,0.113157790314308435
0.530000000000000249,0.090619807370669853
0.531000000000000361,0.067402332702277773
0.532000000000000250,0.043535398579067963
0.533000000000000362,0.019048667212124459
0.534000000000000252,-0.006028577590932449
0.535000000000000364,-0.031667438235050673
0.536000000000000254,-0.057839410623355070
0.537000000000000366,-0.084516390932177776
0.538000000000000256,-0.111670681887658607
0.539000000000000368,-0.139274998556632390
0.540000000000000258,-0.167302473664093260
0.541000000000000369,-0.195726662449868583
0.542000000000000259,-0.224521547076609179
0.543000000000000371,-0.253661540601709534
0.544000000000000261,-0.283121490525211517
0.545000000000000373,-0.312876681925941424
0.546000000000000263,-0.342902840197874981
0.547000000000000375,-0.373176133398914256
0.548000000000000265,-0.403673174223577291
0.549000000000000377,-0.434371021611776542
0.550000000000000266,-0.465247182004858317
0.551000000000000378,-0.496279610260783710
0.552000000000000268,-0.527446710239478866
0.553000000000000380,-0.558727335069745146
0.554000000000000270,-0.590100787108623792
0.555000000000000382,-0.621546817604240909
0.556000000000000272,-0.653045626072693008
0.557000000000000384,-0.684577859399631228
0.558000000000000274,-0.716124610676892148
0.559000000000000385,-0.747667417784366961
0.560000000000000275,-0.779188261727121745
0.561000000000000387,-0.810669564737700021
0.562000000000000277,-0.842094188153096446
0.563000000000000389,-0.873445430076119300
0.564000000000000279,-0.904707022830199215
0.565000000000000391,-0.935863130216967098
0.566000000000000281,-0.966898344585295222
0.567000000000000393,-0.997797683720774486
0.568000000000000282,-1.028546587563944348
0.569000000000000394,-1.059130914765841647
0.570000000000000284,-1.089536939088760814
0.571000000000000396,-1.119751345660549680
0.572000000000000286,-1.149761227089880045
0.573000000000000398,-1.179554079450343851
0.574000000000000288,-1.209117798140588951
0.575000000000000400,-1.238440673627951183
0.576000000000000290,-1.267511387082308705
0.577000000000000401,-1.296319005907355937
0.578000000000000291,-1.324852979175687118
0.579000000000000403,-1.353103132974342149
0.580000000000000293,-1.381059665667028202
0.581000000000000405,-1.408713143079310726
0.582000000000000295,-1.436054493612454186
0.583000000000000407,-1.463075003292050535
0.584000000000000297,-1.489766310756688972
0.585000000000000409,-1.516120402192455474
0.586000000000000298,-1.542129606218210158
0.587000000000000410,-1.567786588727081654
0.588000000000000300,-1.593084347688808577
0.589000000000000412,-1.618016207918034244
0.590000000000000302,-1.642575815812890472
0.591000000000000414,-1.666757134068630464
0.592000000000000304,-1.690554436370395930
0.593000000000000416,-1.713962302069479859
0.594000000000000306,-1.736975610846991147
0.595000000000000417,-1.759589537368944079
0.596000000000000307,-1.781799545936322060
0.597000000000000419,-1.803601385133944746
0.598000000000000309,-1.824991082481489002
0.599000000000000421,-1.845964939089967727
0.600000000000000311,-1.866519524326990531
0.601000000000000423,-1.886651670493843413
0.602000000000000313,-1.906358467517242916
0.603000000000000425,-1.925637257658810331
0.604000000000000314,-1.944485630244743302
0.605000000000000426,-1.962901416418504352
0.606000000000000316,-1.980882683918829157
0.607000000000000428,-1.998427731885537684
0.608000000000000318,-2.015535085695388862
0.609000000000000430,-2.032203491830142816
0.610000000000000320,-2.048431912778816422
0.611000000000000432,-2.064219521976240923
0.612000000000000322,-2.079565698779579641
0.613000000000000433,-2.094470023484753973
0.614000000000000323,-2.108932272384323348
0.615000000000000435,-2.122952412868467142
0.616000000000000325,-2.136530598570463901
0.617000000000000437,-2.149667164558236809
0.618000000000000327,-2.162362622573088977
0.619000000000000439,-2.174617656317028747
0.620000000000000329,-2.186433116789760156
0.621000000000000441,-2.197810017676436356
0.622000000000000330,-2.208749530787227577
0.623000000000000442,-2.219252981549601156
0.624000000000000332,-2.229321844554159604
0.625000000000000444,-2.238957739154951110
0.626000000000000334,-2.248162425124836439
0.627000000000000446,-2.256937798366716930
0.628000000000000336,-2.265285886681164040
0.629000000000000448,-2.273208845591039751
0.630000000000000338,-2.280708954223543028
0.631000000000000449,-2.287788611250241910
0.632000000000000339,-2.294450330885358547
0.633000000000000451,-2.300696738942705544
0.634000000000000341,-2.306530568951532079
0.635000000000000453,-2.311954658331598189
0.636000000000000343,-2.316971944627502999
0.637000000000000455,-2.321585461802651018
0.638000000000000345,-2.325798336592695748
0.639000000000000457,-2.329613784918774577
0.640000000000000346,-2.333035108360368426
0.641000000000000458,-2.336065690687920693
0.642000000000000348,-2.338708994455024115
0.643000000000000460,-2.340968557650229265
0.644000000000000350,-2.342847990408261083
0.645000000000000462,-2.344350971780531978
0.646000000000000352,-2.345481246564749434
0.647000000000000464,-2.346242622193460470
0.648000000000000353,-2.346638965681215439
0.649000000000000465,-2.346674200630148199
0.650000000000000355,-2.346352304293664481
0.651000000000000467,-2.345677304697894705
0.652000000000000357,-2.344653277820650139
0.653000000000000469,-2.343284344827387677
0.654000000000000359,-2.341574669363973626
0.655000000000000471,-2.339528454905692278
0.656000000000000361,-2.337149942162160876
0.657000000000000473,-2.334443406537700660
0.658000000000000362,-2.331413155646689273
0.659000000000000474,-2.328063526883439316
0.660000000000000364,-2.324398885046115915
