# Fe001_CS-13254-AC
# h[nm],U(h)[kJ/mol]
0.149999999999999994,61.908500428747842648
0.150999999999999995,56.221276650187746782
0.151999999999999996,52.367128549227537349
0.152999999999999997,48.923704278792641276
0.153999999999999998,45.401866313159658262
0.154999999999999999,41.734572910435893789
0.156000000000000000,38.008126085828543239
0.157000000000000001,34.333282872708707600
0.158000000000000002,30.793307159797073780
0.159000000000000002,27.431403698296975335
0.160000000000000003,24.255944694169212283
0.161000000000000004,21.251731498947698640
0.162000000000000005,18.391414360196357336
0.163000000000000006,15.644573224530228472
0.164000000000000007,12.983795179445877466
0.165000000000000008,10.387986537742122550
0.166000000000000009,7.843522908690263584
0.167000000000000010,5.343913882085452371
0.168000000000000010,2.888588636473927718
0.169000000000000011,0.481281372764703064
0.170000000000000012,-1.871641489413406800
0.171000000000000013,-4.162693245073004533
0.172000000000000014,-6.384497945806954178
0.173000000000000015,-8.530694133198355900
0.174000000000000016,-10.596515252580093858
0.175000000000000017,-12.579081945512484708
0.176000000000000018,-14.477457834270206050
0.177000000000000018,-16.292526138391089319
0.178000000000000019,-18.026742995537560432
0.179000000000000020,-19.683817481306597585
0.180000000000000021,-21.268360136221073020
0.181000000000000022,-22.785532814565261361
0.182000000000000023,-24.240723877473723036
0.183000000000000024,-25.639264784361891714
0.184000000000000025,-26.986197326398020380
0.185000000000000026,-28.286095221187043336
0.186000000000000026,-29.542939537729257182
0.187000000000000027,-30.760044345979359548
0.188000000000000028,-31.940026937956151443
0.189000000000000029,-33.084815778091410721
0.190000000000000030,-34.195688837855684028
0.191000000000000031,-35.273334992112928887
0.192000000000000032,-36.317931557697285427
0.193000000000000033,-37.329231714532092212
0.194000000000000034,-38.306656363914420638
0.195000000000000034,-39.249385865875318302
0.196000000000000035,-40.156447995334289658
0.197000000000000036,-41.026799319376188180
0.198000000000000037,-41.859397993865762544
0.199000000000000038,-42.653266686935879193
0.200000000000000039,-43.407544949112747190
0.201000000000000040,-44.121530861629288722
0.202000000000000041,-44.794712207812985127
0.203000000000000042,-45.426787733068273667
0.204000000000000042,-46.017679295139778617
0.205000000000000043,-46.567535867720302178
0.206000000000000044,-47.076730457392137907
0.207000000000000045,-47.545851036733445483
0.208000000000000046,-47.975686595174245497
0.209000000000000047,-48.367209373141221818
0.210000000000000048,-48.721554282610185282
0.211000000000000049,-49.039996435821159082
0.212000000000000050,-49.323927610035568136
0.213000000000000050,-49.574832375238727877
0.214000000000000051,-49.794264508089632670
0.215000000000000052,-49.983824212773178886
0.216000000000000053,-50.145136570508157092
0.217000000000000054,-50.279831546389587515
0.218000000000000055,-50.389525796471914987
0.219000000000000056,-50.475806440480532444
0.220000000000000057,-50.540216896801879898
0.221000000000000058,-50.584244816609654549
0.222000000000000058,-50.609312103036771191
0.223000000000000059,-50.616766958866833193
0.224000000000000060,-50.607877871814608284
0.225000000000000061,-50.583829419495977220
0.226000000000000062,-50.545719755980748289
0.227000000000000063,-50.494559627671790736
0.228000000000000064,-50.431272757436858001
0.229000000000000065,-50.356697431724413150
0.230000000000000066,-50.271589125132251752
0.231000000000000066,-50.176623999916969865
0.232000000000000067,-50.072403123628092203
0.233000000000000068,-49.959457255866823289
0.234000000000000069,-49.838252064605306657
0.235000000000000070,-49.709193643111390770
0.236000000000000071,-49.572634209913481129
0.237000000000000072,-49.428877886072115189
0.238000000000000073,-49.278186456008519656
0.239000000000000073,-49.120785030033417229
0.240000000000000074,-48.956867538323358247
0.241000000000000075,-48.786601997245597317
0.242000000000000076,-48.610135499510839452
0.243000000000000077,-48.427598889545549810
0.244000000000000078,-48.239111094651747180
0.245000000000000079,-48.044783090924447322
0.246000000000000080,-47.844721490501406436
0.247000000000000081,-47.639031743522380680
0.248000000000000081,-47.427820954187318137
0.249000000000000082,-47.211200315543528916
0.250000000000000111,-46.989287172135483672
0.251000000000000112,-46.762206723451164692
0.252000000000000113,-46.530093384243471633
0.253000000000000114,-46.293091820335980913
0.254000000000000115,-46.051357680493723024
0.255000000000000115,-45.805058046396382565
0.256000000000000116,-45.554371623747655917
0.257000000000000117,-45.299488698138020482
0.258000000000000118,-45.040610879496128405
0.259000000000000119,-44.777950658864554612
0.260000000000000120,-44.511730800861116109
0.261000000000000121,-44.242183594578548878
0.262000000000000122,-43.969549984871754589
0.263000000000000123,-43.694078605019235795
0.264000000000000123,-43.416024730654626751
0.265000000000000124,-43.135649173675972179
0.266000000000000125,-42.853217133582184317
0.267000000000000126,-42.568997022378667339
0.268000000000000127,-42.283259277862498493
0.269000000000000128,-41.996275178756263813
0.270000000000000129,-41.708315673828600723
0.271000000000000130,-41.419650235828058271
0.272000000000000131,-41.130545749781525444
0.273000000000000131,-40.841265443974130278
0.274000000000000132,-40.552067870745410971
0.275000000000000133,-40.263205943111714191
0.276000000000000134,-39.974926032160922773
0.277000000000000135,-39.687467129168751967
0.278000000000000136,-39.401060075455021092
0.279000000000000137,-39.115926862138067577
0.280000000000000138,-38.832280001153328897
0.281000000000000139,-38.550321968179510179
0.282000000000000139,-38.270244717461054051
0.283000000000000140,-37.992229267926873604
0.284000000000000141,-37.716445359480900379
0.285000000000000142,-37.443051177877194391
0.286000000000000143,-37.172193146188689639
0.287000000000000144,-36.904005780530624747
0.288000000000000145,-36.638611607404733661
0.289000000000000146,-36.376121139784757474
0.290000000000000147,-36.116632908864552576
0.291000000000000147,-35.860233548233523493
0.292000000000000148,-35.606997927127395087
0.293000000000000149,-35.356989329321649507
0.294000000000000150,-35.110259674187055623
0.295000000000000151,-34.866849776409736705
0.296000000000000152,-34.626789640886336485
0.297000000000000153,-34.390098789339269558
0.298000000000000154,-34.156786615250453565
0.299000000000000155,-33.926852763785632305
0.300000000000000155,-33.700287533470472567
0.301000000000000156,-33.477072296482603520
0.302000000000000157,-33.257179934538925181
0.303000000000000158,-33.040575287481473765
0.304000000000000159,-32.827215611798216344
0.305000000000000160,-32.617051046452708363
0.306000000000000161,-32.410025083540290325
0.307000000000000162,-32.206075041434210959
0.308000000000000163,-32.005132538233063144
0.309000000000000163,-31.807123963469685179
0.310000000000000164,-31.611970946189632770
0.311000000000000165,-31.419590817654512449
0.312000000000000166,-31.229897067070147898
0.313000000000000167,-31.042799788881318079
0.314000000000000168,-30.858206120313734999
0.315000000000000169,-30.676020667977887513
0.316000000000000170,-30.496145922479882984
0.317000000000000171,-30.318482660109378202
0.318000000000000171,-30.142930330795053351
0.319000000000000172,-29.969387431632650731
0.320000000000000173,-29.797751865400158522
0.321000000000000174,-29.627921283578086076
0.322000000000000175,-29.459793413490849900
0.323000000000000176,-29.293266369277631611
0.324000000000000177,-29.128238946487108763
0.325000000000000178,-28.964610900171475549
0.326000000000000179,-28.802283206430484341
0.327000000000000179,-28.641158307425222063
0.328000000000000180,-28.481140339946183104
0.329000000000000181,-28.322135347678759842
0.330000000000000182,-28.164051477363081233
0.331000000000000183,-28.006799159094168061
0.332000000000000184,-27.850291271052405762
0.333000000000000185,-27.694443288993859653
0.334000000000000186,-27.539173420865267872
0.335000000000000187,-27.384402726939391925
0.336000000000000187,-27.230055225893703863
0.337000000000000188,-27.076057987278495887
0.338000000000000189,-26.922341210840425418
0.339000000000000190,-26.768838293183925714
0.340000000000000191,-26.615485882266000317
0.341000000000000192,-26.462223920230751872
0.342000000000000193,-26.308995675097143874
0.343000000000000194,-26.155747761818986419
0.344000000000000195,-26.002430153238414334
0.345000000000000195,-25.848996181455326848
0.346000000000000196,-25.695402530133286234
0.347000000000000197,-25.541609218259175407
0.348000000000000198,-25.387579575869423820
0.349000000000000199,-25.233280212248537566
0.350000000000000200,-25.078680977098350979
0.351000000000000201,-24.923754915167194213
0.352000000000000202,-24.768478214817918115
0.353000000000000203,-24.612830151003077361
0.354000000000000203,-24.456793023103067242
0.355000000000000204,-24.300352088070788170
0.356000000000000205,-24.143495489313107072
0.357000000000000206,-23.986214181725351580
0.358000000000000207,-23.828501853281014888
0.359000000000000208,-23.670354843564400227
0.360000000000000209,-23.511772059618870401
0.361000000000000210,-23.352754889468570809
0.362000000000000210,-23.193307113656182139
0.363000000000000211,-23.033434815124245176
0.364000000000000212,-22.873146287752472716
0.365000000000000213,-22.712451943848009250
0.366000000000000214,-22.551364220871079169
0.367000000000000215,-22.389897487663191100
0.368000000000000216,-22.228067950430791200
0.369000000000000217,-22.065893558722386558
0.370000000000000218,-21.903393911623474821
0.371000000000000218,-21.740590164379316462
0.372000000000000219,-21.577504935642213724
0.373000000000000220,-21.414162215526829414
0.374000000000000221,-21.250587274643841340
0.375000000000000222,-21.086806574270166692
0.376000000000000223,-20.922847677801417632
0.377000000000000224,-20.758739163620830936
0.378000000000000225,-20.594510539507428604
0.379000000000000226,-20.430192158695099636
0.380000000000000226,-20.265815137684256797
0.381000000000000227,-20.101411275896765574
0.382000000000000228,-19.937012977256070911
0.383000000000000229,-19.772653173764553003
0.384000000000000230,-19.608365251141275820
0.385000000000000231,-19.444182976575298483
0.386000000000000232,-19.280140428641079353
0.387000000000000233,-19.116271929415201924
0.388000000000000234,-18.952611978826165995
0.389000000000000234,-18.789195191262432871
0.390000000000000235,-18.626056234456761729
0.391000000000000236,-18.463229770659545181
0.392000000000000237,-18.300750400107347104
0.393000000000000238,-18.138652606787893262
0.394000000000000239,-17.976970706497375829
0.395000000000000240,-17.815738797181367659
0.396000000000000241,-17.654990711546126647
0.397000000000000242,-17.494759971922821506
0.398000000000000242,-17.335079747363707270
0.399000000000000243,-17.175982812945392197
0.400000000000000244,-17.017501511251122537
0.401000000000000245,-16.859667716001364823
0.402000000000000246,-16.702512797798874544
0.403000000000000247,-16.546067591951835851
0.404000000000000248,-16.390362368337008547
0.405000000000000249,-16.235426803262125617
0.406000000000000250,-16.081289953285359928
0.407000000000000250,-15.927980230947976992
0.408000000000000251,-15.775525382374786076
0.409000000000000252,-15.623952466696056973
0.410000000000000253,-15.473287837243066889
0.411000000000000254,-15.323557124469051161
0.412000000000000255,-15.174785220546240794
0.413000000000000256,-15.026996265589369628
0.414000000000000257,-14.880213635455245225
0.415000000000000258,-14.734459931068148109
0.416000000000000258,-14.589756969220237792
0.417000000000000259,-14.446125774796248820
0.418000000000000260,-14.303586574371896845
0.419000000000000261,-14.162158791135251334
0.420000000000000262,-14.021861041081089994
0.421000000000000263,-13.882711130427940915
0.422000000000000264,-13.744726054208564747
0.423000000000000265,-13.607921995984487040
0.424000000000000266,-13.472314328636432634
0.425000000000000266,-13.337917616182483727
0.426000000000000267,-13.204745616576811784
0.427000000000000268,-13.072811285442606177
0.428000000000000269,-12.942126780693309129
0.429000000000000270,-12.812703467997431872
0.430000000000000271,-12.684551927042750918
0.431000000000000272,-12.557681958556814905
0.432000000000000273,-12.432102592041562872
0.433000000000000274,-12.307822094180687955
0.434000000000000274,-12.184847977879453396
0.435000000000000275,-12.063187011897657186
0.436000000000000276,-11.942845231037463094
0.437000000000000277,-11.823827946848584958
0.438000000000000278,-11.706139758814831708
0.439000000000000279,-11.589784565986551712
0.440000000000000280,-11.474765579024813533
0.441000000000000281,-11.361085332624197619
0.442000000000000282,-11.248745698282004213
0.443000000000000282,-11.137747897382853424
0.444000000000000283,-11.028092514568527349
0.445000000000000284,-10.919779511364126279
0.446000000000000285,-10.812808240032399709
0.447000000000000286,-10.707177457629466488
0.448000000000000287,-10.602885340235621570
0.449000000000000288,-10.499929497336557560
0.450000000000000289,-10.398306986330725366
0.451000000000000290,-10.298014327139918933
0.452000000000000290,-10.199047516900886734
0.453000000000000291,-10.101402044716859763
0.454000000000000292,-10.005072906448722492
0.455000000000000293,-9.910054619526391662
0.456000000000000294,-9.816341237762106431
0.457000000000000295,-9.723926366147800593
0.458000000000000296,-9.632803175620006542
0.459000000000000297,-9.542964417776222064
0.460000000000000298,-9.454402439527651580
0.461000000000000298,-9.367109197674007959
0.462000000000000299,-9.281076273386819508
0.463000000000000300,-9.196294886588358253
0.464000000000000301,-9.112755910214163535
0.465000000000000302,-9.030449884347829581
0.466000000000000303,-8.949367030217219465
0.467000000000000304,-8.869497264042184526
0.468000000000000305,-8.790830210724479343
0.469000000000000306,-8.713355217370963857
0.470000000000000306,-8.637061366642134530
0.471000000000000307,-8.561937489918243216
0.472000000000000308,-8.487972180276276646
0.473000000000000309,-8.415153805271097909
0.474000000000000310,-8.343470519515083339
0.475000000000000311,-8.272910277050677053
0.476000000000000312,-8.203460843511205525
0.477000000000000313,-8.135109808065253745
0.478000000000000314,-8.067844595140858388
0.479000000000000314,-8.001652475925951080
0.480000000000000315,-7.936520579641857864
0.481000000000000316,-7.872435904587300470
0.482000000000000317,-7.809385328950471106
0.483000000000000318,-7.747355621387332469
0.484000000000000319,-7.686333451364482983
0.485000000000000320,-7.626305399265449481
0.486000000000000321,-7.567257966259381519
0.487000000000000322,-7.509177583931605504
0.488000000000000322,-7.452050623675697594
0.489000000000000323,-7.395863405847066474
0.490000000000000324,-7.340602208678252971
0.491000000000000325,-7.286253276956477620
0.492000000000000326,-7.232802830464066801
0.493000000000000327,-7.180237072182846347
0.494000000000000328,-7.128542196263525810
0.495000000000000329,-7.077704395761598377
0.496000000000000330,-7.027709870141201520
0.497000000000000330,-6.978544832548669419
0.498000000000000331,-6.930195516857837745
0.499000000000000332,-6.882648184488999732
0.500000000000000333,-6.835889131003824559
0.501000000000000334,-6.789904692478590853
0.502000000000000335,-6.744681251658161791
0.503000000000000336,-6.700205243893423201
0.504000000000000337,-6.656463162864755034
0.505000000000000338,-6.613441566094484969
0.506000000000000338,-6.571127080251173425
0.507000000000000339,-6.529506406248707151
0.508000000000000340,-6.488566324143377528
0.509000000000000341,-6.448293697831966931
0.510000000000000342,-6.408675479554188925
0.511000000000000343,-6.369698714202627343
0.512000000000000344,-6.331350543443600820
0.513000000000000345,-6.293618209652279027
0.514000000000000346,-6.256489059665437225
0.515000000000000346,-6.219950548355372533
0.516000000000000347,-6.183990242028311712
0.517000000000000348,-6.148595821651017701
0.518000000000000349,-6.113755085908835873
0.519000000000000350,-6.079455954098959225
0.520000000000000351,-6.045686468862315976
0.521000000000000352,-6.012434798757604781
0.522000000000000353,-5.979689240681113738
0.523000000000000353,-5.947438222135746244
0.524000000000000354,-5.915670303352911219
0.525000000000000355,-5.884374179270673189
0.526000000000000356,-5.853538681371758479
0.527000000000000357,-5.823152779384898281
0.528000000000000358,-5.793205582852919200
0.529000000000000359,-5.763686342571114452
0.530000000000000360,-5.734584451899293001
0.531000000000000361,-5.705889447950865723
0.532000000000000361,-5.677591012662407621
0.533000000000000362,-5.649678973746987687
0.534000000000000363,-5.622143305534615720
0.535000000000000364,-5.594974129703008892
0.536000000000000365,-5.568161715902000708
0.537000000000000366,-5.541696482274732105
0.538000000000000367,-5.515568995878800784
0.539000000000000368,-5.489769973010480086
0.540000000000000369,-5.464290279435109809
0.541000000000000369,-5.439120930526627262
0.542000000000000370,-5.414253091319335631
0.543000000000000371,-5.389678076474717194
0.544000000000000372,-5.365387350166312963
0.545000000000000373,-5.341372525885440758
0.546000000000000374,-5.317625366170588563
0.547000000000000375,-5.294137782263212522
0.548000000000000376,-5.270901833692716920
0.549000000000000377,-5.247909727793174106
0.550000000000000377,-5.225153819154463086
0.551000000000000378,-5.202626609010383874
0.552000000000000379,-5.180320744566236257
0.553000000000000380,-5.158229018268325028
0.554000000000000381,-5.136344367017834145
0.555000000000000382,-5.114659871331420860
0.556000000000000383,-5.093168754450791980
0.557000000000000384,-5.071864381403623057
0.558000000000000385,-5.050740258017947681
0.559000000000000385,-5.029790029892249770
0.560000000000000386,-5.009007481323285660
0.561000000000000387,-4.988386534193824495
0.562000000000000388,-4.967921246822241343
0.563000000000000389,-4.947605812775922374
0.564000000000000390,-4.927434559650477830
0.565000000000000391,-4.907401947816584453
0.566000000000000392,-4.887502569136296771
0.567000000000000393,-4.867731145650619595
0.568000000000000393,-4.848082528240068356
0.569000000000000394,-4.828551695259902132
0.570000000000000395,-4.809133751151707159
0.571000000000000396,-4.789823925032878016
0.572000000000000397,-4.770617569265610314
0.573000000000000398,-4.751510158006881035
0.574000000000000399,-4.732497285740884685
0.575000000000000400,-4.713574665795404073
0.576000000000000401,-4.694738128843417790
0.577000000000000401,-4.675983621391379685
0.578000000000000402,-4.657307204255404898
0.579000000000000403,-4.638705051026672521
0.580000000000000404,-4.620173446527244820
0.581000000000000405,-4.601708785257525136
0.582000000000000406,-4.583307569836422957
0.583000000000000407,-4.564966409435477601
0.584000000000000408,-4.546682018207864218
0.585000000000000409,-4.528451213713433177
0.586000000000000409,-4.510270915340729658
0.587000000000000410,-4.492138142726991745
0.588000000000000411,-4.474050014177053392
0.589000000000000412,-4.456003745082048439
0.590000000000000413,-4.437996646338797646
0.591000000000000414,-4.420026122770725152
0.592000000000000415,-4.402089671551085104
0.593000000000000416,-4.384184880629286241
0.594000000000000417,-4.366309427161102263
0.595000000000000417,-4.348461075943406584
0.596000000000000418,-4.330637677854182854
0.597000000000000419,-4.312837168298475632
0.598000000000000420,-4.295057565660845178
0.599000000000000421,-4.277296969765023604
0.600000000000000422,-4.259553560341297285
0.601000000000000423,-4.241825595502178636
0.602000000000000424,-4.224111410226917052
0.603000000000000425,-4.206409414855334816
0.604000000000000425,-4.188718093591477398
0.605000000000000426,-4.171036003017553284
0.606000000000000427,-4.153361770618579918
