# Fe001_CS-28994-AC
# h[nm],U(h)[kJ/mol]
0.149999999999999994,76.509959919968068220
0.150999999999999995,73.846349842544995568
0.151999999999999996,70.598435168978426191
0.152999999999999997,67.225214625312275984
0.153999999999999998,63.947126634636518361
0.154999999999999999,60.843774134382286434
0.156000000000000000,57.919460361418188654
0.157000000000000001,55.144791406551973978
0.158000000000000002,52.481257404044107773
0.159000000000000002,49.894253323566189806
0.160000000000000003,47.358656903332452259
0.161000000000000004,44.859938731696701097
0.162000000000000005,42.392862512460716573
0.163000000000000006,39.959130461103789855
0.164000000000000007,37.564811125969953309
0.165000000000000008,35.218020821356716965
0.166000000000000009,32.927082139658608639
0.167000000000000010,30.699224258397656229
0.168000000000000010,28.539795440220451894
0.169000000000000011,26.451908687425127908
0.170000000000000012,24.436421949797356490
0.171000000000000013,22.492153464863733348
0.172000000000000014,20.616242757489935400
0.173000000000000015,18.804583039037314762
0.174000000000000016,17.052267600406768366
0.175000000000000017,15.354009044869570744
0.176000000000000018,13.704504596172029096
0.177000000000000018,12.098732661225605867
0.178000000000000019,10.532175184227885012
0.179000000000000020,9.000967232728999790
0.180000000000000021,7.501979990296414158
0.181000000000000022,6.032846248145693480
0.182000000000000023,4.591938956695708285
0.183000000000000024,3.178313765218509612
0.184000000000000025,1.791626052901907684
0.185000000000000026,0.432031999955004076
0.186000000000000026,-0.899918023889315188
0.187000000000000027,-2.203386897389977950
0.188000000000000028,-3.477353602847576663
0.189000000000000029,-4.720707472022853679
0.190000000000000030,-5.932331058056543149
0.191000000000000031,-7.111169972970602160
0.192000000000000032,-8.256288961586053077
0.193000000000000033,-9.366914238162568296
0.194000000000000034,-10.442462698905627505
0.195000000000000034,-11.482559055353064537
0.196000000000000035,-12.487042228077395833
0.197000000000000036,-13.455962516564397902
0.198000000000000037,-14.389571139394925936
0.199000000000000038,-15.288303738161379997
0.200000000000000039,-16.152759376724940665
0.201000000000000040,-16.983676460496447191
0.202000000000000041,-17.781906862405332248
0.203000000000000042,-18.548389385010125352
0.204000000000000042,-19.284123521654993993
0.205000000000000043,-19.990144311601074634
0.206000000000000044,-20.667498920821380182
0.207000000000000045,-21.317225426227629725
0.208000000000000046,-21.940334139738617125
0.209000000000000047,-22.537791681886673700
0.210000000000000048,-23.110507903734308854
0.211000000000000049,-23.659325661107793337
0.212000000000000050,-24.185013366326820972
0.213000000000000050,-24.688260179033868269
0.214000000000000051,-25.169673648399147226
0.215000000000000052,-25.629779582663907433
0.216000000000000053,-26.069023897321226713
0.217000000000000054,-26.487776178793847492
0.218000000000000055,-26.886334694818572189
0.219000000000000056,-27.264932584491607059
0.220000000000000057,-27.623744968746535733
0.221000000000000058,-27.962896734689685729
0.222000000000000058,-28.282470763589827811
0.223000000000000059,-28.582516391395376587
0.224000000000000060,-28.863057911550178858
0.225000000000000061,-29.124102951825516783
0.226000000000000062,-29.365650579226855399
0.227000000000000063,-29.587699009222525603
0.228000000000000064,-29.790252817130408403
0.229000000000000065,-29.973329570134609412
0.230000000000000066,-30.136965817813472057
0.231000000000000066,-30.281222397045304717
0.232000000000000067,-30.406189023583323205
0.233000000000000068,-30.511988157376670472
0.234000000000000069,-30.598778141826546317
0.235000000000000070,-30.666755628610779638
0.236000000000000071,-30.716157309523133279
0.237000000000000072,-30.747260985018431967
0.238000000000000073,-30.760386005911328766
0.239000000000000073,-30.755893130041801697
0.240000000000000074,-30.734183839800369498
0.241000000000000075,-30.695699169311929211
0.242000000000000076,-30.640918091923577293
0.243000000000000077,-30.570355519546428269
0.244000000000000078,-30.484559965474225862
0.245000000000000079,-30.384110921656237281
0.246000000000000080,-30.269616000140292300
0.247000000000000081,-30.141707886626363688
0.248000000000000081,-30.001041151870715851
0.249000000000000082,-29.848288964144749968
0.250000000000000111,-29.684139743156027436
0.251000000000000112,-29.509293792854712990
0.252000000000000113,-29.324459947438828777
0.253000000000000114,-29.130352261692326721
0.254000000000000115,-28.927686773591922531
0.255000000000000115,-28.717178363941833652
0.256000000000000116,-28.499537734678519030
0.257000000000000117,-28.275468524460514175
0.258000000000000118,-28.045664577244714621
0.259000000000000119,-27.810807376773702515
0.260000000000000120,-27.571563657271461523
0.261000000000000121,-27.328583198180844249
0.262000000000000122,-27.082496808483291773
0.263000000000000123,-26.833914504024228620
0.264000000000000123,-26.583423879329330930
0.265000000000000124,-26.331588673636229458
0.266000000000000125,-26.078947529283158957
0.267000000000000126,-25.826012939183804917
0.268000000000000127,-25.573270378873626640
0.269000000000000128,-25.321177617529532000
0.270000000000000129,-25.070164201433776441
0.271000000000000130,-24.820631102568455617
0.272000000000000131,-24.572950524378061488
0.273000000000000131,-24.327465856216825557
0.274000000000000132,-24.084491767594990108
0.275000000000000133,-23.844314433045347812
0.276000000000000134,-23.607191878238047877
0.277000000000000135,-23.373354437869746647
0.278000000000000136,-23.143005315833555358
0.279000000000000137,-22.916321238229599544
0.280000000000000138,-22.693453189896040101
0.281000000000000139,-22.474527225316162315
0.282000000000000139,-22.259645344985038662
0.283000000000000140,-22.048886428588495789
0.284000000000000141,-21.842307216653917834
0.285000000000000142,-21.639943332669080434
0.286000000000000143,-21.441810338026510152
0.287000000000000144,-21.247904812531650975
0.288000000000000145,-21.058205453608433544
0.289000000000000146,-20.872674187741328211
0.290000000000000147,-20.691257288104374368
0.291000000000000147,-20.513886492742170020
0.292000000000000148,-20.340480118081313066
0.293000000000000149,-20.170944162960942947
0.294000000000000150,-20.005173398775344396
0.295000000000000151,-19.843052441717674128
0.296000000000000152,-19.684456803499976729
0.297000000000000153,-19.529253917299438825
0.298000000000000154,-19.377304136041992422
0.299000000000000155,-19.228461700482515795
0.300000000000000155,-19.082575674873247351
0.301000000000000156,-18.939490848329111117
0.302000000000000157,-18.799048600299986589
0.303000000000000158,-18.661087728844108824
0.304000000000000159,-18.525445240665362689
0.305000000000000160,-18.391957102127953760
0.306000000000000161,-18.260458950697234570
0.307000000000000162,-18.130786766473526939
0.308000000000000163,-18.002777503688012217
0.309000000000000163,-17.876269682216072709
0.310000000000000164,-17.751103939334484494
0.311000000000000165,-17.627123542104616405
0.312000000000000166,-17.504174860905447275
0.313000000000000167,-17.382107804767592540
0.314000000000000168,-17.260776219273811449
0.315000000000000169,-17.140038247892853462
0.316000000000000170,-17.019756657702746594
0.317000000000000171,-16.899799130537576985
0.318000000000000171,-16.780038520658287382
0.319000000000000172,-16.660353080105014811
0.320000000000000173,-16.540626652935252139
0.321000000000000174,-16.420748839589901280
0.322000000000000175,-16.300615132659050488
0.323000000000000176,-16.180127025340848235
0.324000000000000177,-16.059192093901238252
0.325000000000000178,-15.937724055450042115
0.326000000000000179,-15.815642802350780016
0.327000000000000179,-15.692874414577151043
0.328000000000000180,-15.569351151320237392
0.329000000000000181,-15.445011423137074758
0.330000000000000182,-15.319799745912382249
0.331000000000000183,-15.193666677884825944
0.332000000000000184,-15.066568740963125705
0.333000000000000185,-14.938468327530262769
0.334000000000000186,-14.809333593903016180
0.335000000000000187,-14.679138341581866811
0.336000000000000187,-14.547861887391439595
0.337000000000000188,-14.415488923575816571
0.338000000000000189,-14.282009368875524302
0.339000000000000190,-14.147418211574660063
0.340000000000000191,-14.011715345467280258
0.341000000000000192,-13.874905399652892157
0.342000000000000193,-13.736997563029964553
0.343000000000000194,-13.598005404317078160
0.344000000000000195,-13.457946688390336476
0.345000000000000195,-13.316843189686059290
0.346000000000000196,-13.174720503377830738
0.347000000000000197,-13.031607854997641738
0.348000000000000198,-12.887537909132486647
0.349000000000000199,-12.742546577789001461
0.350000000000000200,-12.596672828982317327
0.351000000000000201,-12.449958496068010305
0.352000000000000202,-12.302448088300934614
0.353000000000000203,-12.154188603069993491
0.354000000000000203,-12.005229340224213175
0.355000000000000204,-11.855621718873010195
0.356000000000000205,-11.705419097012143226
0.357000000000000206,-11.554676594296413583
0.358000000000000207,-11.403450918250845447
0.359000000000000208,-11.251800194184397697
0.360000000000000209,-11.099783799042914012
0.361000000000000210,-10.947462199412552053
0.362000000000000210,-10.794896793860221607
0.363000000000000211,-10.642149759774124362
0.364000000000000212,-10.489283904845333240
0.365000000000000213,-10.336362523309848171
0.366000000000000214,-10.183449257050900982
0.367000000000000215,-10.030607961641957004
0.368000000000000216,-9.877902577393212979
0.369000000000000217,-9.725397005447366183
0.370000000000000218,-9.573154988954708955
0.371000000000000218,-9.421239999342628124
0.372000000000000219,-9.269715127680878908
0.373000000000000220,-9.118642981130877345
0.374000000000000221,-8.968085584455398163
0.375000000000000222,-8.818104286553820614
0.376000000000000223,-8.668759671977628756
0.377000000000000224,-8.520111477371662190
0.378000000000000225,-8.372218512777628519
0.379000000000000226,-8.225138587728507034
0.380000000000000226,-8.078928442055342884
0.381000000000000227,-7.933643681321068009
0.382000000000000228,-7.789338716790416228
0.383000000000000229,-7.646066709839542064
0.384000000000000230,-7.503879520704136219
0.385000000000000231,-7.362827661461048834
0.386000000000000232,-7.222960253134504072
0.387000000000000233,-7.084324986815050629
0.388000000000000234,-6.946968088676806374
0.389000000000000234,-6.810934288776410384
0.390000000000000235,-6.676266793515166498
0.391000000000000236,-6.543007261644961048
0.392000000000000237,-6.411195783696998163
0.393000000000000238,-6.280870864712410295
0.394000000000000239,-6.152069410153037765
0.395000000000000240,-6.024826714870924249
0.396000000000000241,-5.899176455015431308
0.397000000000000242,-5.775150682757279164
0.398000000000000242,-5.652779823709805918
0.399000000000000243,-5.532092676928726860
0.400000000000000244,-5.413116417372707545
0.401000000000000245,-5.295876600709055637
0.402000000000000246,-5.180397170349825942
0.403000000000000247,-5.066700466605646547
0.404000000000000248,-4.954807237846719836
0.405000000000000249,-4.844736653562039308
0.406000000000000250,-4.736506319210362470
0.407000000000000250,-4.630132292758521118
0.408000000000000251,-4.525629102805057258
0.409000000000000252,-4.423009768189659852
0.410000000000000253,-4.322285818991099760
0.411000000000000254,-4.223467318819247751
0.412000000000000255,-4.126562888308984434
0.413000000000000256,-4.031579729726695760
0.414000000000000257,-3.938523652602458291
0.415000000000000258,-3.847399100303878328
0.416000000000000258,-3.758209177470096307
0.417000000000000259,-3.670955678227131980
0.418000000000000260,-3.585639115108558705
0.419000000000000261,-3.502258748607939509
0.420000000000000262,-3.420812617292388946
0.421000000000000263,-3.341297568409006935
0.422000000000000264,-3.263709288918726692
0.423000000000000265,-3.188042336894570283
0.424000000000000266,-3.114290173224074643
0.425000000000000266,-3.042445193557904659
0.426000000000000267,-2.972498760449371336
0.427000000000000268,-2.904441235631962659
0.428000000000000269,-2.838262012384383581
0.429000000000000270,-2.773949547934962290
0.430000000000000271,-2.711491395859664699
0.431000000000000272,-2.650874238430130703
0.432000000000000273,-2.592083918870435877
0.433000000000000274,-2.535105473483465044
0.434000000000000274,-2.479923163609798475
0.435000000000000275,-2.426520507384199554
0.436000000000000276,-2.374880311256740928
0.437000000000000277,-2.324984701247509555
0.438000000000000278,-2.276815153905845435
0.439000000000000279,-2.230352526946843383
0.440000000000000280,-2.185577089539603168
0.441000000000000281,-2.142468552223506073
0.442000000000000282,-2.101006096430487080
0.443000000000000282,-2.061168403592790188
0.444000000000000283,-2.022933683817389916
0.445000000000000284,-1.986279704109713107
0.446000000000000285,-1.951183816130653170
0.447000000000000286,-1.917622983472569986
0.448000000000000287,-1.885573808440918597
0.449000000000000288,-1.855012558329809824
0.450000000000000289,-1.825915191180838448
0.451000000000000290,-1.798257381015799794
0.452000000000000290,-1.772014542535019999
0.453000000000000291,-1.747161855274203646
0.454000000000000292,-1.723674287213661671
0.455000000000000293,-1.701526617834840049
0.456000000000000294,-1.680693460620070301
0.457000000000000295,-1.661149284992230246
0.458000000000000296,-1.642868437692128980
0.459000000000000297,-1.625825163591960942
0.460000000000000298,-1.609993625944262430
0.461000000000000298,-1.595347926066245980
0.462000000000000299,-1.581862122460436115
0.463000000000000300,-1.569510249372882971
0.464000000000000301,-1.558266334791086338
0.465000000000000302,-1.548104417884259343
0.466000000000000303,-1.538998565889188042
0.467000000000000304,-1.530922890445340245
0.468000000000000305,-1.523851563383626262
0.469000000000000306,-1.517758831973401223
0.470000000000000306,-1.512619033632911059
0.471000000000000307,-1.508406610108754320
0.472000000000000308,-1.505096121130314657
0.473000000000000309,-1.502662257545393620
0.474000000000000310,-1.501079853943716902
0.475000000000000311,-1.500323900775262898
0.476000000000000312,-1.500369555970517244
0.477000000000000313,-1.501192156070175088
0.478000000000000314,-1.502767226871943418
0.479000000000000314,-1.505070493602352233
0.480000000000000315,-1.508077890621591921
0.481000000000000316,-1.511765570669697301
0.482000000000000317,-1.516109913662406550
0.483000000000000318,-1.521087535045250849
0.484000000000000319,-1.526675293714476966
0.485000000000000320,-1.532850299513604408
0.486000000000000321,-1.539589920314339055
0.487000000000000322,-1.546871788690791005
0.488000000000000322,-1.554673808195919493
0.489000000000000323,-1.562974159249126860
0.490000000000000324,-1.571751304644073199
0.491000000000000325,-1.580983994685679406
0.492000000000000326,-1.590651271965312086
0.493000000000000327,-1.600732475783200215
0.494000000000000328,-1.611207246227031264
0.495000000000000329,-1.622055527915702511
0.496000000000000330,-1.633257573417132846
0.497000000000000330,-1.644793946348986236
0.498000000000000331,-1.656645524171200368
0.499000000000000332,-1.668793500678921404
0.500000000000000333,-1.681219388204695964
0.501000000000000334,-1.693905019538412660
0.502000000000000335,-1.706832549573555680
0.503000000000000336,-1.719984456688195662
0.504000000000000337,-1.733343543869067860
0.505000000000000338,-1.746892939586967675
0.506000000000000338,-1.760616098431600829
0.507000000000000339,-1.774496801513940181
0.508000000000000340,-1.788519156643997521
0.509000000000000341,-1.802667598291778361
0.510000000000000342,-1.816926887339179952
0.511000000000000343,-1.831282110630339188
0.512000000000000344,-1.845718680327908867
0.513000000000000345,-1.860222333082533153
0.514000000000000346,-1.874779129022795532
0.515000000000000346,-1.889375450572606141
0.516000000000000347,-1.903998001103022641
0.517000000000000348,-1.918633803425283002
0.518000000000000349,-1.933270198131709749
0.519000000000000350,-1.947894841791010467
0.520000000000000351,-1.962495705004428048
0.521000000000000352,-1.977061070328905767
0.522000000000000353,-1.991579530073472881
0.523000000000000353,-2.006039983974823748
0.524000000000000354,-2.020431636757920035
0.525000000000000355,-2.034743995587383392
0.526000000000000356,-2.048966867415210835
0.527000000000000357,-2.063090356230316225
0.528000000000000358,-2.077104860215217563
0.529000000000000359,-2.091001068814976271
0.530000000000000360,-2.104769959723577166
0.531000000000000361,-2.118402795792547533
0.532000000000000361,-2.131891121866710925
0.533000000000000362,-2.145226761551656036
0.534000000000000363,-2.158401813917540935
0.535000000000000364,-2.171408650143578534
0.536000000000000365,-2.184239910107536708
0.537000000000000366,-2.196888498924403521
0.538000000000000367,-2.209347583438258766
0.539000000000000368,-2.221610588671281583
0.540000000000000369,-2.233671194233712409
0.541000000000000369,-2.245523330698415698
0.542000000000000370,-2.257161175943696030
0.543000000000000371,-2.268579151467734256
0.544000000000000372,-2.279771918678083154
0.545000000000000373,-2.290734375159388492
0.546000000000000374,-2.301461650922535185
0.547000000000000375,-2.311949104638178820
0.548000000000000376,-2.322192319857662834
0.549000000000000377,-2.332187101224059145
0.550000000000000377,-2.341929470676119340
0.551000000000000378,-2.351415663647731247
0.552000000000000379,-2.360642125265404179
0.553000000000000380,-2.369605506546228035
0.554000000000000381,-2.378302660598638596
0.555000000000000382,-2.386730638828244544
0.556000000000000383,-2.394886687150862947
0.557000000000000384,-2.402768242214854855
0.558000000000000385,-2.410372927634743423
0.559000000000000385,-2.417698550238027266
0.560000000000000386,-2.424743096326981373
0.561000000000000387,-2.431504727957256584
0.562000000000000388,-2.437981779234895008
0.563000000000000389,-2.444172752633365864
0.564000000000000390,-2.450076315332155197
0.565000000000000391,-2.455691295578360300
0.566000000000000392,-2.461016679072652202
0.567000000000000393,-2.466051605380939371
0.568000000000000393,-2.470795364372944114
0.569000000000000394,-2.475247392688932457
0.570000000000000395,-2.479407270235649996
0.571000000000000396,-2.483274716712563279
0.572000000000000397,-2.486849588169397496
0.573000000000000398,-2.490131873595904377
0.574000000000000399,-2.493121691544747165
0.575000000000000400,-2.495819286788339753
0.576000000000000401,-2.498225027010410493
0.577000000000000401,-2.500339399533014983
0.578000000000000402,-2.502163008079699047
0.579000000000000403,-2.503696569575397213
0.580000000000000404,-2.504940910983683544
0.581000000000000405,-2.505896966181918373
0.582000000000000406,-2.506565772874731923
0.583000000000000407,-2.506948469546366631
0.584000000000000408,-2.507046292452234759
0.585000000000000409,-2.506860572650075003
0.586000000000000409,-2.506392733071056700
0.587000000000000410,-2.505644285631113188
0.588000000000000411,-2.504616828382751681
0.589000000000000412,-2.503312042707595886
0.590000000000000413,-2.501731690549815035
0.591000000000000414,-2.499877611690630275
0.592000000000000415,-2.497751721064016106
0.593000000000000416,-2.495356006113676806
0.594000000000000417,-2.492692524191407966
0.595000000000000417,-2.489763399996847149
0.596000000000000418,-2.486570823058638524
0.597000000000000419,-2.483117045257036359
0.598000000000000420,-2.479404378387850105
0.599000000000000421,-2.475435191767736409
0.600000000000000422,-2.471211909880716817
0.601000000000000423,-2.466737010065833680
0.602000000000000424,-2.462013020245823469
0.603000000000000425,-2.457042516696676948
0.604000000000000425,-2.451828121857883680
0.605000000000000426,-2.446372502183243203
0.606000000000000427,-2.440678366031995061
0.607000000000000428,-2.434748461600079406
0.608000000000000429,-2.428585574891297227
0.609000000000000430,-2.422192527728123768
