# Fe001_CS-66243-AC
# h[nm],U(h)[kJ/mol]
0.200000000000000011,124.233102761504454747
0.201000000000000012,116.444172788429000320
0.202000000000000013,112.251791730480903198
0.203000000000000014,109.683907962586459917
0.204000000000000015,107.630823547311862853
0.205000000000000016,105.530728938649573934
0.206000000000000016,103.155002268682068234
0.207000000000000017,100.464838743464696336
0.208000000000000018,97.518237467889221648
0.209000000000000019,94.411997348347796333
0.210000000000000020,91.247591522300439237
0.211000000000000021,88.112934586464191966
0.212000000000000022,85.074386309315897847
0.213000000000000023,82.175047900139844614
0.214000000000000024,79.436654623230282368
0.215000000000000024,76.863268231324283875
0.216000000000000025,74.445613325729922849
0.217000000000000026,72.165350941159687181
0.218000000000000027,69.998891543850135122
0.219000000000000028,67.920556713984140629
0.220000000000000029,65.905032861209377870
0.221000000000000030,63.929142806158736789
0.222000000000000031,61.973007744597012447
0.223000000000000032,60.020694538072163482
0.224000000000000032,58.060449792238969735
0.225000000000000033,56.084618746427608471
0.226000000000000034,54.089337784482019345
0.227000000000000035,52.074077257965562637
0.228000000000000036,50.041098204625015455
0.229000000000000037,47.994873675525568046
0.230000000000000038,45.941513492611825598
0.231000000000000039,43.888220742697377830
0.232000000000000040,41.842799339984793505
0.233000000000000040,39.813224570310943307
0.234000000000000041,37.807282583807577225
0.235000000000000042,35.832280190689353105
0.236000000000000043,33.894822872328163044
0.237000000000000044,32.000656473306420935
0.238000000000000045,30.154566420514395730
0.239000000000000046,28.360327365013695555
0.240000000000000047,26.620695719646835897
0.241000000000000048,24.937437546332070326
0.242000000000000048,23.311384525797116396
0.243000000000000049,21.742511230696241142
0.244000000000000050,20.230027548197774934
0.245000000000000051,18.772480802163322267
0.246000000000000052,17.367862862554282799
0.247000000000000053,16.013718266071176544
0.248000000000000054,14.707250081781143791
0.249000000000000055,13.445420920686203203
0.250000000000000056,12.225047097037782251
0.251000000000000056,11.042884494833028697
0.252000000000000057,9.895705172282182716
0.253000000000000058,8.780364149995756762
0.254000000000000059,7.693856177239408289
0.255000000000000060,6.633362558428911093
0.256000000000000061,5.596288353688274597
0.257000000000000062,4.580290448003661474
0.258000000000000063,3.583297118804105175
0.259000000000000064,2.603519827280190047
0.260000000000000064,1.639458019880763784
0.261000000000000065,0.689897758421754270
0.262000000000000066,-0.246094995035212122
0.263000000000000067,-1.169185624449642136
0.264000000000000068,-2.079785850968922212
0.265000000000000069,-2.978071722760985640
0.266000000000000070,-3.864003906306355596
0.267000000000000071,-4.737349637260729551
0.268000000000000071,-5.597705748269107495
0.269000000000000072,-6.444522252378898308
0.270000000000000073,-7.277126022336451783
0.271000000000000074,-8.094744166743677027
0.272000000000000075,-8.896526762755922135
0.273000000000000076,-9.681568660911368696
0.274000000000000077,-10.448930130203995859
0.275000000000000078,-11.197656160226582500
0.276000000000000079,-11.926794281854750324
0.277000000000000079,-12.635410808382387060
0.278000000000000080,-13.322605435216591019
0.279000000000000081,-13.987524168257587931
0.280000000000000082,-14.629370579040516631
0.281000000000000083,-15.247415408781254342
0.282000000000000084,-15.841004563856634135
0.283000000000000085,-16.409565562203972888
0.284000000000000086,-16.952612503904042285
0.285000000000000087,-17.469749650082952996
0.286000000000000087,-17.960673702506177563
0.287000000000000088,-18.425174882110976426
0.288000000000000089,-18.863136908494531951
0.289000000000000090,-19.274535984300815272
0.290000000000000091,-19.659438888766249676
0.291000000000000092,-20.018000283626140146
0.292000000000000093,-20.350459332355406161
0.293000000000000094,-20.657135730520568728
0.294000000000000095,-20.938425241028731705
0.295000000000000095,-21.194794823441338139
0.296000000000000096,-21.426777441417510062
0.297000000000000097,-21.634966626898567199
0.298000000000000098,-21.820010873954885255
0.299000000000000099,-21.982607929392479207
0.300000000000000100,-22.123499041345432659
0.301000000000000101,-22.243463221240087790
0.302000000000000102,-22.343311568768843500
0.303000000000000103,-22.423881703913163932
0.304000000000000103,-22.486032344646314840
0.305000000000000104,-22.530638063766748047
0.306000000000000105,-22.558584253387341079
0.307000000000000106,-22.570762320955175539
0.308000000000000107,-22.568065136317436270
0.309000000000000108,-22.551382745288428566
0.310000000000000109,-22.521598361416785394
0.311000000000000110,-22.479584644199814392
0.312000000000000111,-22.426200268842812591
0.313000000000000111,-22.362286789806365306
0.314000000000000112,-22.288665797819106729
0.315000000000000113,-22.206136367744257143
0.316000000000000114,-22.115472792666306390
0.317000000000000115,-22.017422597794389816
0.318000000000000116,-21.912704826249147061
0.319000000000000117,-21.802008587495443237
0.320000000000000118,-21.685991858088581097
0.321000000000000119,-21.565280523503609800
0.322000000000000119,-21.440467649099499425
0.323000000000000120,-21.312112967718611856
0.324000000000000121,-21.180742571022303622
0.325000000000000122,-21.046848791402783974
0.326000000000000123,-20.910890261173701532
0.327000000000000124,-20.773292135717465356
0.328000000000000125,-20.634446467341895470
0.329000000000000126,-20.494712716760581372
0.330000000000000127,-20.354418389350712459
0.331000000000000127,-20.213859783648082669
0.332000000000000128,-20.073302839901298711
0.333000000000000129,-19.932984076918330629
0.334000000000000130,-19.793111605888601190
0.335000000000000131,-19.653866210347342047
0.336000000000000132,-19.515402481956233061
0.337000000000000133,-19.377850002301673982
0.338000000000000134,-19.241314561452163900
0.339000000000000135,-19.105879404564483082
0.340000000000000135,-18.971606498379653516
0.341000000000000136,-18.838537810000868689
0.342000000000000137,-18.706696590891773724
0.343000000000000138,-18.576088659572299377
0.344000000000000139,-18.446703677017808332
0.345000000000000140,-18.318516409283265745
0.346000000000000141,-18.191487972374567050
0.347000000000000142,-18.065567054874083652
0.348000000000000143,-17.940691114293862540
0.349000000000000143,-17.816787543577490283
0.350000000000000144,-17.693774804599364359
0.351000000000000145,-17.571563525917333948
0.352000000000000146,-17.450057562420898449
0.353000000000000147,-17.329155014882232422
0.354000000000000148,-17.208749207761339761
0.355000000000000149,-17.088729623938764490
0.356000000000000150,-16.968982795351667647
0.357000000000000151,-16.849393148789239660
0.358000000000000151,-16.729843806364712577
0.359000000000000152,-16.610217340421471022
0.360000000000000153,-16.490396482852890614
0.361000000000000154,-16.370264789018008855
0.362000000000000155,-16.249707256620368412
0.363000000000000156,-16.128610900084872526
0.364000000000000157,-16.006865281118489719
0.365000000000000158,-15.884362996276461644
0.366000000000000159,-15.761000122475161689
0.367000000000000159,-15.636676621499214335
0.368000000000000160,-15.511296704643111610
0.369000000000000161,-15.384769158706671277
0.370000000000000162,-15.257007634632088866
0.371000000000000163,-15.127930900126722591
0.372000000000000164,-14.997463057661457597
0.373000000000000165,-14.865533729271618313
0.374000000000000166,-14.732078209613751696
0.375000000000000167,-14.597037588751268444
0.376000000000000167,-14.460358846152605139
0.377000000000000168,-14.321994917390005853
0.378000000000000169,-14.181904735024158271
0.379000000000000170,-14.040053245152364525
0.380000000000000171,-13.896411401083321735
0.381000000000000172,-13.750956135584075923
0.382000000000000173,-13.603670313121043023
0.383000000000000174,-13.454542663491119825
0.384000000000000175,-13.303567698208251358
0.385000000000000175,-13.150745610978196609
0.386000000000000176,-12.996082163558412503
0.387000000000000177,-12.839588558262182261
0.388000000000000178,-12.681281298326629425
0.389000000000000179,-12.521182037322594383
0.390000000000000180,-12.359317418742390871
0.391000000000000181,-12.195718906857488051
0.392000000000000182,-12.030422609894547037
0.393000000000000183,-11.863469096533014735
0.394000000000000183,-11.694903206683077812
0.395000000000000184,-11.524773857457578430
0.396000000000000185,-11.353133845206562214
0.397000000000000186,-11.180039644438920732
0.398000000000000187,-11.005551204411045063
0.399000000000000188,-10.829731744119044379
0.400000000000000189,-10.652647546388369193
0.401000000000000190,-10.474367751711948671
0.402000000000000191,-10.294964152447782624
0.403000000000000191,-10.114510987945354969
0.404000000000000192,-9.933084741132191198
0.405000000000000193,-9.750763937052877139
0.406000000000000194,-9.567628943816263387
0.407000000000000195,-9.383761776370764807
0.408000000000000196,-9.199245903492641929
0.409000000000000197,-9.014166058339148080
0.410000000000000198,-8.828608052886320223
0.411000000000000199,-8.642658596539844140
0.412000000000000199,-8.456405119178269203
0.413000000000000200,-8.269935598859536441
0.414000000000000201,-8.083338394394386839
0.415000000000000202,-7.896702082964594638
0.416000000000000203,-7.710115302939757775
0.417000000000000204,-7.523666602022314187
0.418000000000000205,-7.337444290829198579
0.419000000000000206,-7.151536301997164280
0.420000000000000207,-6.966030054878947553
0.421000000000000207,-6.781012325879567371
0.422000000000000208,-6.596569124463565359
0.423000000000000209,-6.412785574848674841
0.424000000000000210,-6.229745803385267955
0.425000000000000211,-6.047532831607012938
0.426000000000000212,-5.866228474924914948
0.427000000000000213,-5.685913246924260811
0.428000000000000214,-5.506666269213019049
0.429000000000000214,-5.328565186759218975
0.430000000000000215,-5.151686088645474726
0.431000000000000216,-4.976103434160132011
0.432000000000000217,-4.801889984135798706
0.433000000000000218,-4.629116737439489704
0.434000000000000219,-4.457852872511521625
0.435000000000000220,-4.288165693844592674
0.436000000000000221,-4.120120583289180516
0.437000000000000222,-3.953780956066720531
0.438000000000000222,-3.789208221368205010
0.439000000000000223,-3.626461747412098813
0.440000000000000224,-3.465598830832697708
0.441000000000000225,-3.306674670267450544
0.442000000000000226,-3.149742344010216577
0.443000000000000227,-2.994852791595186581
0.444000000000000228,-2.842054799175820712
0.445000000000000229,-2.691394988561929047
0.446000000000000230,-2.542917809777923921
0.447000000000000230,-2.396665537005151503
0.448000000000000231,-2.252678267771573317
0.449000000000000232,-2.110993925252560022
0.450000000000000233,-1.971648263547625124
0.451000000000000234,-1.834674875798810945
0.452000000000000235,-1.700105205018032084
0.453000000000000236,-1.567968557491954629
0.454000000000000237,-1.438292118635190686
0.455000000000000238,-1.311100971163951856
0.456000000000000238,-1.186418115465045275
0.457000000000000239,-1.064264492036651744
0.458000000000000240,-0.944659005880489011
0.459000000000000241,-0.827618552726543166
0.460000000000000242,-0.713158046975097770
0.461000000000000243,-0.601290451242596502
0.462000000000000244,-0.492026807401390376
0.463000000000000245,-0.385376269005512806
0.464000000000000246,-0.281346134998219366
0.465000000000000246,-0.179941884599433916
0.466000000000000247,-0.081167213274395647
0.467000000000000248,0.014975930312257723
0.468000000000000249,0.108487306449592216
0.469000000000000250,0.199368345730542490
0.470000000000000251,0.287622109685725769
0.471000000000000252,0.373253250784763013
0.472000000000000253,0.456267971885603529
0.473000000000000254,0.536673985209761617
0.474000000000000254,0.614480470918132626
0.475000000000000255,0.689698035359184836
0.476000000000000256,0.762338669058564400
0.477000000000000257,0.832415704515962473
0.478000000000000258,0.899943773872656116
0.479000000000000259,0.964938766510023194
0.480000000000000260,1.027417786636710684
0.481000000000000261,1.087399110919562206
0.482000000000000262,1.144902146210413640
0.483000000000000262,1.199947387418732303
0.484000000000000263,1.252556375577120962
0.485000000000000264,1.302751656144544912
0.486000000000000265,1.350556737589426515
0.487000000000000266,1.395996050292637625
0.488000000000000267,1.439094905808023572
0.489000000000000268,1.479879456515656999
0.490000000000000269,1.518376655701267008
0.491000000000000270,1.554614218092628786
0.492000000000000270,1.588620580882147859
0.493000000000000271,1.620424865262428682
0.494000000000000272,1.650056838500075340
0.495000000000000273,1.677546876570751522
0.496000000000000274,1.702925927376917503
0.497000000000000275,1.726225474567952389
0.498000000000000276,1.747477501980369663
0.499000000000000277,1.766714458714654601
0.500000000000000222,1.783969224863234171
0.501000000000000334,1.799275077902941389
0.502000000000000224,1.812665659763545323
0.503000000000000336,1.824174944582909630
0.504000000000000226,1.833837207157548832
0.505000000000000338,1.841686992096509101
0.506000000000000227,1.847759083684842762
0.507000000000000339,1.852088476462212530
0.508000000000000229,1.854710346520620279
0.509000000000000341,1.855660023524426494
0.510000000000000231,1.854972963454722734
0.511000000000000343,1.852684722079177559
0.512000000000000233,1.848830929147530666
0.513000000000000345,1.843447263311948747
0.514000000000000234,1.836569427770729845
0.515000000000000346,1.828233126633064476
0.516000000000000236,1.818474042001674729
0.517000000000000348,1.807327811769501080
0.518000000000000238,1.794830008126123699
0.519000000000000350,1.781016116768554536
0.520000000000000240,1.765921516810970093
0.521000000000000352,1.749581461386888748
0.522000000000000242,1.732031058937259616
0.523000000000000353,1.713305255176920117
0.524000000000000243,1.693438815732022817
0.525000000000000355,1.672466309440033161
0.526000000000000245,1.650422092303977850
0.527000000000000357,1.627340292091912888
0.528000000000000247,1.603254793572519876
0.529000000000000359,1.578199224377270227
0.530000000000000249,1.552206941479366442
0.531000000000000361,1.525311018279434938
0.532000000000000250,1.497544232287741472
0.533000000000000362,1.468939053392368521
0.534000000000000252,1.439527632702929605
0.535000000000000364,1.409341791958645729
0.536000000000000254,1.378413013490331407
0.537000000000000366,1.346772430724761271
0.538000000000000256,1.314450819220648548
0.539000000000000368,1.281478588224715498
0.540000000000000258,1.247885772736800458
0.541000000000000369,1.213702026072394968
0.542000000000000259,1.178956612911564950
0.543000000000000371,1.143678402822526419
0.544000000000000261,1.107895864248717333
0.545000000000000373,1.071637058947879861
0.546000000000000263,1.034929636871889214
0.547000000000000375,0.997800831475766259
0.548000000000000265,0.960277455444996209
0.549000000000000377,0.922385896829456930
0.550000000000000266,0.884152115573282438
0.551000000000000378,0.845601640429131662
0.552000000000000268,0.806759566246251558
0.553000000000000380,0.767650551621144817
0.554000000000000270,0.728298816900274759
0.555000000000000382,0.688728142523890474
0.556000000000000272,0.648961867700609929
0.557000000000000384,0.609022889402157763
0.558000000000000274,0.568933661667984092
0.559000000000000385,0.528716195209551820
0.560000000000000275,0.488392057304271099
0.561000000000000387,0.447982371969047832
0.562000000000000277,0.407507820403887167
0.563000000000000389,0.366988641695627393
0.564000000000000279,0.326444633772635884
0.565000000000000391,0.285895154600853185
0.566000000000000281,0.245359123612346380
0.567000000000000393,0.204855023357012944
0.568000000000000282,0.164400901368917995
0.569000000000000394,0.124014372238295922
0.570000000000000284,0.083712619881058797
0.571000000000000396,0.043512399996997277
0.572000000000000286,0.003430042708957837
0.573000000000000398,-0.036518544625349682
0.574000000000000288,-0.076317874436527516
0.575000000000000400,-0.115952875809586506
0.576000000000000290,-0.155408891200111254
0.577000000000000401,-0.194671673008250196
0.578000000000000291,-0.233727380017344194
0.579000000000000403,-0.272562573704427547
0.580000000000000293,-0.311164214429275332
0.581000000000000405,-0.349519657508924997
0.582000000000000295,-0.387616649183760320
0.583000000000000407,-0.425443322482019881
0.584000000000000297,-0.462988192988393166
0.585000000000000409,-0.500240154523212133
0.586000000000000298,-0.537188474737614774
0.587000000000000410,-0.573822790630879931
0.588000000000000300,-0.610133103994983883
0.589000000000000412,-0.646109776792230028
0.590000000000000302,-0.681743526470769856
0.591000000000000414,-0.717025421223495107
0.592000000000000304,-0.751946875194861253
0.593000000000000416,-0.786499643640749646
0.594000000000000306,-0.820675818045778271
0.595000000000000417,-0.854467821202762878
0.596000000000000307,-0.887868402258427780
0.597000000000000419,-0.920870631729886702
0.598000000000000309,-0.953467896495776457
0.599000000000000421,-0.985653894765994409
0.600000000000000311,-1.017422631033967129
0.601000000000000423,-1.048768411015100099
0.602000000000000313,-1.079685836574820090
0.603000000000000425,-1.110169800649936533
0.604000000000000314,-1.140215482166294647
0.605000000000000426,-1.169818340956233049
0.606000000000000316,-1.198974112678637294
0.607000000000000428,-1.227678803744744140
0.608000000000000318,-1.255928686252439030
0.609000000000000430,-1.283720292931860296
0.610000000000000320,-1.311050412104759033
0.611000000000000432,-1.337916082660428385
0.612000000000000322,-1.364314589050257043
0.613000000000000433,-1.390243456303537961
0.614000000000000323,-1.415700445066543578
0.615000000000000435,-1.440683546667092418
0.616000000000000325,-1.465190978206491357
0.617000000000000437,-1.489221177681013142
0.618000000000000327,-1.512772799134473267
0.619000000000000439,-1.535844707843882384
0.620000000000000329,-1.558435975539703255
0.621000000000000441,-1.580545875662350941
0.622000000000000330,-1.602173878656417028
0.623000000000000442,-1.623319647304091173
0.624000000000000332,-1.643983032098963459
0.625000000000000444,-1.664164066661750541
0.626000000000000334,-1.683862963198827334
0.627000000000000446,-1.703080108004964455
0.628000000000000336,-1.721816057011126944
0.629000000000000448,-1.740071531378470482
0.630000000000000338,-1.757847413139306259
0.631000000000000449,-1.775144740886099415
0.632000000000000339,-1.791964705509085487
0.633000000000000451,-1.808308645983409235
0.634000000000000341,-1.824178045206339416
0.635000000000000453,-1.839574525885389278
0.636000000000000343,-1.854499846477586145
0.637000000000000455,-1.868955897180831327
0.638000000000000345,-1.882944695977398553
0.639000000000000457,-1.896468384730351620
0.640000000000000346,-1.909529225332991631
0.641000000000000458,-1.922129595911867828
0.642000000000000348,-1.934271987083448163
0.643000000000000460,-1.945958998264883943
0.644000000000000350,-1.957193334038899168
0.645000000000000462,-1.967977800573108338
0.646000000000000352,-1.978315302093755168
0.647000000000000464,-1.988208837414118024
0.648000000000000353,-1.997661496517459057
0.649000000000000465,-2.006676457194695562
0.650000000000000355,-2.015256981736659014
0.651000000000000467,-2.023406413680967297
0.652000000000000357,-2.031128174613434645
0.653000000000000469,-2.038425761023832994
0.654000000000000359,-2.045302741216016074
0.655000000000000471,-2.051762752272106027
0.656000000000000361,-2.057809497070627991
0.657000000000000473,-2.063446741358405667
0.658000000000000362,-2.068678310875923909
0.659000000000000474,-2.073508088535950034
0.660000000000000364,-2.077940011655118102
0.661000000000000476,-2.081978069238212381
0.662000000000000366,-2.085626299314774279
