# Fe001_CS-8373112-AC
# h[nm],U(h)[kJ/mol]
0.149999999999999994,88.468483668768087114
0.150999999999999995,86.332029784415055929
0.151999999999999996,82.671508987124525447
0.152999999999999997,78.701882375444654372
0.153999999999999998,74.931454970721887321
0.154999999999999999,71.499074207253912050
0.156000000000000000,68.373455004119620071
0.157000000000000001,65.464447716709202041
0.158000000000000002,62.679786899229682717
0.159000000000000002,59.949474870429753537
0.160000000000000003,57.232093627357144783
0.161000000000000004,54.511991313354656086
0.162000000000000005,51.792716079830839249
0.163000000000000006,49.089734354985935738
0.164000000000000007,46.423986275708003291
0.165000000000000008,43.816923279370300293
0.166000000000000009,41.287147653453835972
0.167000000000000010,38.848496153556510535
0.168000000000000010,36.509286943970906236
0.169000000000000011,34.272418597476487889
0.170000000000000012,32.136030492944563264
0.171000000000000013,30.094479250175197649
0.172000000000000014,28.139439559082184417
0.173000000000000015,26.260990429857873352
0.174000000000000016,24.448594522857572287
0.175000000000000017,22.691916669748668056
0.176000000000000018,20.981457561369332154
0.177000000000000018,19.309000426779629578
0.178000000000000019,17.667883429598315814
0.179000000000000020,16.053119712432071253
0.180000000000000021,14.461391774611474403
0.181000000000000022,12.890948310928516563
0.182000000000000023,11.341430749728926841
0.183000000000000024,9.813654313500872917
0.184000000000000025,8.309365120504796920
0.185000000000000026,6.830991135014462756
0.186000000000000026,5.381401007190151020
0.187000000000000027,3.963681262831937779
0.188000000000000028,2.580939062059588451
0.189000000000000029,1.236134930417088551
0.190000000000000030,-0.068052488492616803
0.191000000000000031,-1.329329503711145666
0.192000000000000032,-2.545859574772287193
0.193000000000000033,-3.716307005281689335
0.194000000000000034,-4.839855220831191573
0.195000000000000034,-5.916203147831401665
0.196000000000000035,-6.945543398156283743
0.197000000000000036,-7.928525962653495185
0.198000000000000037,-8.866210969668577135
0.199000000000000038,-9.760013812553157919
0.200000000000000039,-10.611645626834787848
0.201000000000000040,-11.423051731864861225
0.202000000000000041,-12.196350266551149844
0.203000000000000042,-12.933772862551199623
0.204000000000000042,-13.637608825030508086
0.205000000000000043,-14.310153940956842789
0.206000000000000044,-14.953664714885425369
0.207000000000000045,-15.570318546582901931
0.208000000000000046,-16.162180115778614464
0.209000000000000047,-16.731174027240456326
0.210000000000000048,-17.279063593363851226
0.211000000000000049,-17.807435489680493390
0.212000000000000050,-18.317689908615648164
0.213000000000000050,-18.811035755483398901
0.214000000000000051,-19.288490374916751335
0.215000000000000052,-19.750883262400872553
0.216000000000000053,-20.198863201073329776
0.217000000000000054,-20.632908265361901812
0.218000000000000055,-21.053338147424341287
0.219000000000000056,-21.460328287047833129
0.220000000000000057,-21.853925318231606667
0.221000000000000058,-22.234063383952417325
0.222000000000000058,-22.600580912721945026
0.223000000000000059,-22.953237494860708523
0.224000000000000060,-23.291730541574651170
0.225000000000000061,-23.615711454794883650
0.226000000000000062,-23.924801079413906990
0.227000000000000063,-24.218604251304487462
0.228000000000000064,-24.496723293793511544
0.229000000000000065,-24.758770351690252198
0.230000000000000066,-25.004378485271576693
0.231000000000000066,-25.233211476658919281
0.232000000000000067,-25.444972327722716443
0.233000000000000068,-25.639410452043591704
0.234000000000000069,-25.816327583625430009
0.235000000000000070,-25.975582442126846416
0.236000000000000071,-26.117094208521866250
0.237000000000000072,-26.240844876513172323
0.238000000000000073,-26.346880553915667633
0.239000000000000073,-26.435311794825842924
0.240000000000000074,-26.506313047925011972
0.241000000000000075,-26.560121308955096708
0.242000000000000076,-26.597034066479636749
0.243000000000000077,-26.617406629711904742
0.244000000000000078,-26.621648925662839247
0.245000000000000079,-26.610221850321416071
0.246000000000000080,-26.583633255210827429
0.247000000000000081,-26.542433646625976706
0.248000000000000081,-26.487211670301508804
0.249000000000000082,-26.418589449317799733
0.250000000000000111,-26.337217837846754520
0.251000000000000112,-26.243771647972589989
0.252000000000000113,-26.138944901390555486
0.253000000000000114,-26.023446152365057316
0.254000000000000115,-25.897993922989581250
0.255000000000000115,-25.763312286586909750
0.256000000000000116,-25.620126630069830043
0.257000000000000117,-25.469159621285363926
0.258000000000000118,-25.311127402819330712
0.259000000000000119,-25.146736029465440510
0.260000000000000120,-24.976678162579055709
0.261000000000000121,-24.801630030849409536
0.262000000000000122,-24.622248663641425281
0.263000000000000123,-24.439169399978055708
0.264000000000000123,-24.253003673454593070
0.265000000000000124,-24.064337070889010306
0.266000000000000125,-23.873727660311217846
0.267000000000000126,-23.681704581964339695
0.268000000000000127,-23.488766894323447332
0.269000000000000128,-23.295382665715564485
0.270000000000000129,-23.101988300935239806
0.271000000000000130,-22.908988091277148413
0.272000000000000131,-22.716753975634933482
0.273000000000000131,-22.525625499728811008
0.274000000000000132,-22.335909960106633321
0.275000000000000133,-22.147882719299747833
0.276000000000000134,-21.961787678390216172
0.277000000000000135,-21.777837893245870049
0.278000000000000136,-21.596216320790130538
0.279000000000000137,-21.417076681880750755
0.280000000000000138,-21.240544427664410421
0.281000000000000139,-21.066717796638943838
0.282000000000000139,-20.895668950082114890
0.283000000000000140,-20.727445173984548887
0.284000000000000141,-20.562070136144932064
0.285000000000000142,-20.399545187639880339
0.286000000000000143,-20.239850698460138290
0.287000000000000144,-20.082947417702161630
0.288000000000000145,-19.928777849313664916
0.289000000000000146,-19.777267635006047897
0.290000000000000147,-19.628326936561993676
0.291000000000000147,-19.481851810377552425
0.292000000000000148,-19.337725567680834615
0.293000000000000149,-19.195820114460339312
0.294000000000000150,-19.055997265711905442
0.295000000000000151,-18.918110029172563458
0.296000000000000152,-18.782003854248038976
0.297000000000000153,-18.647517842359242479
0.298000000000000154,-18.514485915427957963
0.299000000000000155,-18.382737939693456042
0.300000000000000155,-18.252100802498883780
0.301000000000000156,-18.122399440108033275
0.302000000000000157,-17.993457815009683998
0.303000000000000158,-17.865099841538128800
0.304000000000000159,-17.737150258984375029
0.305000000000000160,-17.609435451693304486
0.306000000000000161,-17.481784215938937166
0.307000000000000162,-17.354028473642266306
0.308000000000000163,-17.226003933245031874
0.309000000000000163,-17.097550698279722070
0.310000000000000164,-16.968513824380764277
0.311000000000000165,-16.838743825665236642
0.312000000000000166,-16.708097131575961214
0.313000000000000167,-16.576436495423955364
0.314000000000000168,-16.443631355994018151
0.315000000000000169,-16.309558153686776194
0.316000000000000170,-16.174100602763584078
0.317000000000000171,-16.037149921339036496
0.318000000000000171,-15.898605020829450041
0.319000000000000172,-15.758372656616623786
0.320000000000000173,-15.616367541724233803
0.321000000000000174,-15.472512425331277797
0.322000000000000175,-15.326738137963355157
0.323000000000000176,-15.178983605209328545
0.324000000000000177,-15.029195831808731754
0.325000000000000178,-14.877329857945269964
0.326000000000000179,-14.723348689564371483
0.327000000000000179,-14.567223204508778167
0.328000000000000180,-14.408932036236189234
0.329000000000000181,-14.248461436848634420
0.330000000000000182,-14.085805121122666250
0.331000000000000183,-13.920964093186963595
0.332000000000000184,-13.753946457446147633
0.333000000000000185,-13.584767215300132648
0.334000000000000186,-13.413448049155700659
0.335000000000000187,-13.240017095172689210
0.336000000000000187,-13.064508706131178428
0.337000000000000188,-12.886963205748752870
0.338000000000000189,-12.707426635719009766
0.339000000000000190,-12.525950496683673663
0.340000000000000191,-12.342591484291888904
0.341000000000000192,-12.157411221441693172
0.342000000000000193,-11.970475987739451540
0.343000000000000194,-11.781856447155860224
0.344000000000000195,-11.591627374798896710
0.345000000000000195,-11.399867383668242482
0.346000000000000196,-11.206658652199854131
0.347000000000000197,-11.012086653355042998
0.348000000000000198,-10.816239885955745592
0.349000000000000199,-10.619209608915449294
0.350000000000000200,-10.421089578965693434
0.351000000000000201,-10.221975792428812824
0.352000000000000202,-10.021966231541160397
0.353000000000000203,-9.821160615785291981
0.354000000000000203,-9.619660158646068382
0.355000000000000204,-9.417567330163748807
0.356000000000000205,-9.214985625616943565
0.357000000000000206,-9.012019340629787933
0.358000000000000207,-8.808773352960987069
0.359000000000000208,-8.605352911197693189
0.360000000000000209,-8.401863430543574651
0.361000000000000210,-8.198410295859329011
0.362000000000000210,-7.995098672083756242
0.363000000000000211,-7.792033322135601736
0.364000000000000212,-7.589318432369864809
0.365000000000000213,-7.387057445637090325
0.366000000000000214,-7.185352901971228334
0.367000000000000215,-6.984306286909389705
0.368000000000000216,-6.784017887426803561
0.369000000000000217,-6.584586655451100334
0.370000000000000218,-6.386110078902665244
0.371000000000000218,-6.188684060191436132
0.372000000000000219,-5.992402802085740277
0.373000000000000220,-5.797358700854887914
0.374000000000000221,-5.603642246574983332
0.375000000000000222,-5.411341930475767725
0.376000000000000223,-5.220544159196175649
0.377000000000000224,-5.031333175807064961
0.378000000000000225,-4.843790987451275676
0.379000000000000226,-4.657997299443823458
0.380000000000000226,-4.474029455668802946
0.381000000000000227,-4.291962385103703426
0.382000000000000228,-4.111868554297454459
0.383000000000000229,-3.933817925624266021
0.384000000000000230,-3.757877921132025456
0.385000000000000231,-3.584113391801682091
0.386000000000000232,-3.412586592031785049
0.387000000000000233,-3.243357159161052383
0.388000000000000234,-3.076482097841095609
0.389000000000000234,-2.912015769071124360
0.390000000000000235,-2.750009883706357350
0.391000000000000236,-2.590513500253037726
0.392000000000000237,-2.433573026763277802
0.393000000000000238,-2.279232226645073744
0.394000000000000239,-2.127532228204067177
0.395000000000000240,-1.978511537736010739
0.396000000000000241,-1.832206055991218108
0.397000000000000242,-1.688649097834834523
0.398000000000000242,-1.547871414929842038
0.399000000000000243,-1.409901221272708671
0.400000000000000244,-1.274764221414697030
0.401000000000000245,-1.142483641205939815
0.402000000000000246,-1.013080260902329499
0.403000000000000247,-0.886572450479332863
0.404000000000000248,-0.762976207000925610
0.405000000000000249,-0.642305193895432613
0.406000000000000250,-0.524570781994386448
0.407000000000000250,-0.409782092194565961
0.408000000000000251,-0.297946039607446700
0.409000000000000252,-0.189067379064812330
0.410000000000000253,-0.083148751853043157
0.411000000000000254,0.019809266446625607
0.412000000000000255,0.119808117130752304
0.413000000000000256,0.216851208673599499
0.414000000000000257,0.310943866264616120
0.415000000000000258,0.402093280689414079
0.416000000000000258,0.490308456656164737
0.417000000000000259,0.575600160665068250
0.418000000000000260,0.657980868514512540
0.419000000000000261,0.737464712533604017
0.420000000000000262,0.814067428626511047
0.421000000000000263,0.887806303210480818
0.422000000000000264,0.958700120125256183
0.423000000000000265,1.026769107588113794
0.424000000000000266,1.092034885264712818
0.425000000000000266,1.154520411522687029
0.426000000000000267,1.214249930931126542
0.427000000000000268,1.271248922065700615
0.428000000000000269,1.325544045675854488
0.429000000000000270,1.377163093267170568
0.430000000000000271,1.426134936148791166
0.431000000000000272,1.472489474992757286
0.432000000000000273,1.516257589948988960
0.433000000000000274,1.557471091356817494
0.434000000000000274,1.596162671091061247
0.435000000000000275,1.632365854577936704
0.436000000000000276,1.666114953513400554
0.437000000000000277,1.697445019314018477
0.438000000000000278,1.726391797327875066
0.439000000000000279,1.752991681830742277
0.440000000000000280,1.777281671830375887
0.441000000000000281,1.799299327699635409
0.442000000000000282,1.819082728656882697
0.443000000000000282,1.836670431110265067
0.444000000000000283,1.852101427880294748
0.445000000000000284,1.865415108313429826
0.446000000000000285,1.876651219297542195
0.447000000000000286,1.885849827188286643
0.448000000000000287,1.893051280653953672
0.449000000000000288,1.898296174444672690
0.450000000000000289,1.901625314090353402
0.451000000000000290,1.903079681530408962
0.452000000000000290,1.902700401676877151
0.453000000000000291,1.900528709911262215
0.454000000000000292,1.896605920514268462
0.455000000000000293,1.890973396026390363
0.456000000000000294,1.883672517536222113
0.457000000000000295,1.874744655892435663
0.458000000000000296,1.864231143834147897
0.459000000000000297,1.852173249033877145
0.460000000000000298,1.838612148045955408
0.461000000000000298,1.823588901152985553
0.462000000000000299,1.807144428101642220
0.463000000000000300,1.789319484718891573
0.464000000000000301,1.770154640398707624
0.465000000000000302,1.749690256448998227
0.466000000000000303,1.727966465287645637
0.467000000000000304,1.705023150476408178
0.468000000000000305,1.680899927580491449
0.469000000000000306,1.655636125841594808
0.470000000000000306,1.629270770651622069
0.471000000000000307,1.601842566813841628
0.472000000000000308,1.573389882578133836
0.473000000000000309,1.543950734436546179
0.474000000000000310,1.513562772665183243
0.475000000000000311,1.482263267598085577
0.476000000000000312,1.450089096618893736
0.477000000000000313,1.417076731855479554
0.478000000000000314,1.383262228562964324
0.479000000000000314,1.348681214180208476
0.480000000000000315,1.313368878044868460
0.481000000000000316,1.277359961751993955
0.482000000000000317,1.240688750141136110
0.483000000000000318,1.203389062896883077
0.484000000000000319,1.165494246747766471
0.485000000000000320,1.127037168248434584
0.486000000000000321,1.088050207130120794
0.487000000000000322,1.048565250204386956
0.488000000000000322,1.008613685805208382
0.489000000000000323,0.968226398754658879
0.490000000000000324,0.927433765837329505
0.491000000000000325,0.886265651768930574
0.492000000000000326,0.844751405644516673
0.493000000000000327,0.802919857852003815
0.494000000000000328,0.760799317436638090
0.495000000000000329,0.718417569902427888
0.496000000000000330,0.675801875436506938
0.497000000000000330,0.632978967542748849
0.498000000000000331,0.589975052070909500
0.499000000000000332,0.546815806628099699
0.500000000000000333,0.503526380359132331
0.501000000000000334,0.460131394082849199
0.502000000000000335,0.416654940771598703
0.503000000000000336,0.373120586361210593
0.504000000000000337,0.329551370879058336
0.505000000000000338,0.285969809878029557
0.506000000000000338,0.242397896164423449
0.507000000000000339,0.198857101807980496
0.508000000000000340,0.155368380422530317
0.509000000000000341,0.111952169705985718
0.510000000000000342,0.068628394228484574
0.511000000000000343,0.025416468457927908
0.512000000000000344,-0.017664699987806266
0.513000000000000345,-0.060596706872300531
0.514000000000000346,-0.103361647665950490
0.515000000000000346,-0.145942113675101265
0.516000000000000347,-0.188321187984739374
0.517000000000000348,-0.230482441224202195
0.518000000000000349,-0.272409927165209953
0.519000000000000350,-0.314088178161157583
0.520000000000000351,-0.355502200436653759
0.521000000000000352,-0.396637469235686713
0.522000000000000353,-0.437479923836930240
0.523000000000000353,-0.478015962444309106
0.524000000000000354,-0.518232436960658793
0.525000000000000355,-0.558116647652339259
0.526000000000000356,-0.597656337712145103
0.527000000000000357,-0.636839687727880355
0.528000000000000358,-0.675655310063714598
0.529000000000000359,-0.714092243160998952
0.530000000000000360,-0.752139945765443629
0.531000000000000361,-0.789788291086917393
0.532000000000000361,-0.827027560898263459
0.533000000000000362,-0.863848439579087413
0.534000000000000363,-0.900242008110482161
0.535000000000000364,-0.936199738026300410
0.536000000000000365,-0.971713485326507032
0.537000000000000366,-1.006775484357890216
0.538000000000000367,-1.041378341667313467
0.539000000000000368,-1.075515029832370351
0.540000000000000369,-1.109178881274337503
0.541000000000000369,-1.142363582057903448
0.542000000000000370,-1.175063165682230792
0.543000000000000371,-1.207272006867536440
0.544000000000000372,-1.238984815341368506
0.545000000000000373,-1.270196629628472129
0.546000000000000374,-1.300902810848127755
0.547000000000000375,-1.331099036522528145
0.548000000000000376,-1.360781294399766583
0.549000000000000377,-1.389945876294739646
0.550000000000000377,-1.418589371951236355
0.551000000000000378,-1.446708662928256839
0.552000000000000379,-1.474300916513505699
0.553000000000000380,-1.501363579666910475
0.554000000000000381,-1.527894372996814853
0.555000000000000382,-1.553891284771423242
0.556000000000000383,-1.579352564967947625
0.557000000000000384,-1.604276719361747094
0.558000000000000385,-1.628662503657710925
0.559000000000000385,-1.652508917665951760
0.560000000000000386,-1.675815199523766452
0.561000000000000387,-1.698580819965819444
0.562000000000000388,-1.720805476644243326
0.563000000000000389,-1.742489088500386973
0.564000000000000390,-1.763631790189737814
0.565000000000000391,-1.784233926561554995
0.566000000000000392,-1.804296047194567931
0.567000000000000393,-1.823818900990028080
0.568000000000000393,-1.842803430823361399
0.569000000000000394,-1.861250768255541033
0.570000000000000395,-1.879162228305208071
0.571000000000000396,-1.896539304282520932
0.572000000000000397,-1.913383662685635311
0.573000000000000398,-1.929697138160636927
0.574000000000000399,-1.945481728525616294
0.575000000000000400,-1.960739589859667786
0.576000000000000401,-1.975473031657315470
0.577000000000000401,-1.989684512048979226
0.578000000000000402,-2.003376633087953884
0.579000000000000403,-2.016552136104297954
0.580000000000000404,-2.029213897126026733
0.581000000000000405,-2.041364922367908896
0.582000000000000406,-2.053008343788112366
0.583000000000000407,-2.064147414712921069
0.584000000000000408,-2.074785505529671781
0.585000000000000409,-2.084926099447982129
0.586000000000000409,-2.094572788329399415
0.587000000000000410,-2.103729268585419199
0.588000000000000411,-2.112399337143869182
0.589000000000000412,-2.120586887483609573
0.590000000000000413,-2.128295905737401572
0.591000000000000414,-2.135530466862838317
0.592000000000000415,-2.142294730881133091
0.593000000000000416,-2.148592939183542772
0.594000000000000417,-2.154429410905220887
0.595000000000000417,-2.159808539366149027
0.596000000000000418,-2.164734788578911662
0.597000000000000419,-2.169212689822916484
0.598000000000000420,-2.173246838284739191
0.599000000000000421,-2.176841889764154825
0.600000000000000422,-2.180002557445495537
0.601000000000000423,-2.182733608733829378
0.602000000000000424,-2.185039862155556012
0.603000000000000425,-2.186926184322922406
0.604000000000000425,-2.188397486961912275
0.605000000000000426,-2.189458724003051859
0.606000000000000427,-2.190114888734557397
0.607000000000000428,-2.190371011017261615
0.608000000000000429,-2.190232154560784128
0.609000000000000430,-2.189703414260310232
0.610000000000000431,-2.188789913593439440
0.611000000000000432,-2.187496802076417168
0.612000000000000433,-2.185829252779199372
