# Fe001_PYRROLE-AC
# h[nm],U(h)[kJ/mol]
0.200000000000000011,90.968295756331627899
0.201000000000000012,84.056764464535405068
0.202000000000000013,80.304553164412595834
0.203000000000000014,77.977878075909188738
0.204000000000000015,76.105506360537717114
0.205000000000000016,74.198635741446565817
0.206000000000000016,72.060357615952440824
0.207000000000000017,69.658962917194159559
0.208000000000000018,67.046158283286089841
0.209000000000000019,64.306379315920580098
0.210000000000000020,61.527216750899050624
0.211000000000000021,58.783818391478362742
0.212000000000000022,56.132232175161824728
0.213000000000000023,53.608196306489084293
0.214000000000000024,51.229000889550455611
0.215000000000000024,48.996848790974681265
0.216000000000000025,46.902712876879576243
0.217000000000000026,44.930083927171907021
0.218000000000000027,43.058274930905753308
0.219000000000000028,41.265127996311996128
0.220000000000000029,39.529085792583437353
0.221000000000000030,37.830659554547438006
0.222000000000000031,36.153364389894576902
0.223000000000000032,34.484210239411318355
0.224000000000000032,32.813840769200638192
0.225000000000000033,31.136407980142291052
0.226000000000000034,29.449261069131647872
0.227000000000000035,27.752516564673925359
0.228000000000000036,26.048564632997358359
0.229000000000000037,24.341554748324753632
0.230000000000000038,22.636893251324387677
0.231000000000000039,20.940775995176711177
0.232000000000000040,19.259771411406145347
0.233000000000000040,17.600462900315875459
0.234000000000000041,15.969154366865845773
0.235000000000000042,14.371638841451101598
0.236000000000000043,12.813027285783068265
0.237000000000000044,11.297632722864980437
0.238000000000000045,9.828903589502726135
0.239000000000000046,8.409399545393748454
0.240000000000000047,7.040802756143589747
0.241000000000000048,5.723957787433772815
0.242000000000000048,4.458933610045088258
0.243000000000000049,3.245101742807152245
0.244000000000000050,2.081225189904656769
0.245000000000000051,0.965553510543984972
0.246000000000000052,-0.104079945577404451
0.247000000000000053,-1.130161922946265829
0.248000000000000054,-2.115406905806477500
0.249000000000000055,-3.062670569578167523
0.250000000000000056,-3.974870545305132730
0.251000000000000056,-4.854915529029389276
0.252000000000000057,-5.705643356412692491
0.253000000000000058,-6.529768313844286354
0.254000000000000059,-7.329837667751934127
0.255000000000000060,-8.108197159724008785
0.256000000000000061,-8.866965031464507874
0.257000000000000062,-9.608014005238842969
0.258000000000000063,-10.332960546891571951
0.259000000000000064,-11.043160674356446549
0.260000000000000064,-11.739711539676358498
0.261000000000000065,-12.423458002060947081
0.262000000000000066,-13.095003418974366483
0.263000000000000067,-13.754723907617650625
0.264000000000000068,-14.402785366846922344
0.265000000000000069,-15.039162596377455117
0.266000000000000070,-15.663659903313714494
0.267000000000000071,-16.275932643271964650
0.268000000000000071,-16.875509202644479956
0.269000000000000072,-17.461812988264021840
0.270000000000000073,-18.034184049534530914
0.271000000000000074,-18.591900014951967535
0.272000000000000075,-19.134196079040034277
0.273000000000000076,-19.660283826471562918
0.274000000000000077,-20.169368727125068119
0.275000000000000078,-20.660666178773745116
0.276000000000000079,-21.133416012889796320
0.277000000000000079,-21.586895413644647590
0.278000000000000080,-22.020430230651456327
0.279000000000000081,-22.433404692461724750
0.280000000000000082,-22.825269550467602642
0.281000000000000083,-23.195548701896878896
0.282000000000000084,-23.543844356261313777
0.283000000000000085,-23.869840822194799301
0.284000000000000086,-24.173307001366854507
0.285000000000000087,-24.454097683352713943
0.286000000000000087,-24.712153740256134427
0.287000000000000088,-24.947501322778432353
0.288000000000000089,-25.160250160559428423
0.289000000000000090,-25.350591069226357632
0.290000000000000091,-25.518792764896709002
0.291000000000000092,-25.665198084104407172
0.292000000000000093,-25.790219703444876131
0.293000000000000094,-25.894335448842035419
0.294000000000000095,-25.978083279386204651
0.295000000000000095,-26.042056025321500101
0.296000000000000096,-26.086895954098508810
0.297000000000000097,-26.113289232566415876
0.298000000000000098,-26.121960347455932094
0.299000000000000099,-26.113666540381910153
0.300000000000000100,-26.089192307747055111
0.301000000000000101,-26.049344010212980294
0.302000000000000102,-25.994944630873145996
0.303000000000000103,-25.926828715953785576
0.304000000000000103,-25.845837526814271712
0.305000000000000104,-25.752814427243414741
0.306000000000000105,-25.648600525568134856
0.307000000000000106,-25.534030586918127881
0.308000000000000107,-25.409929227130533036
0.309000000000000108,-25.277107396233766679
0.310000000000000109,-25.136359156217235267
0.311000000000000110,-24.988458754868283052
0.312000000000000111,-24.834157994832217753
0.313000000000000111,-24.674183894713586085
0.314000000000000112,-24.509236636977458801
0.315000000000000113,-24.339987795612536559
0.316000000000000114,-24.167078834971697177
0.317000000000000115,-23.991119869892742145
0.318000000000000116,-23.812688676108912489
0.319000000000000117,-23.632329939069236957
0.320000000000000118,-23.450554728586393338
0.321000000000000119,-23.267840186200835717
0.322000000000000119,-23.084629411777520147
0.323000000000000120,-22.901331535622382773
0.324000000000000121,-22.718321962304734996
0.325000000000000122,-22.535942772385631372
0.326000000000000123,-22.354503268368453917
0.327000000000000124,-22.174280651392923147
0.328000000000000125,-21.995520815478059262
0.329000000000000126,-21.818439246470301640
0.330000000000000127,-21.643222013260459136
0.331000000000000127,-21.470026839290159870
0.332000000000000128,-21.298984242862495364
0.333000000000000129,-21.130198735298314716
0.334000000000000130,-20.963750066529392768
0.335000000000000131,-20.799694508287668526
0.336000000000000132,-20.638066165628288218
0.337000000000000133,-20.478878308109237594
0.338000000000000134,-20.322124712536595581
0.339000000000000135,-20.167781009767701050
0.340000000000000135,-20.015806028640991343
0.341000000000000136,-19.866143130667758498
0.342000000000000137,-19.718721529675292459
0.343000000000000138,-19.573457591128821775
0.344000000000000139,-19.430256106381939674
0.345000000000000140,-19.289011537607329672
0.346000000000000141,-19.149609229642337027
0.347000000000000142,-19.011926585444847149
0.348000000000000143,-18.875834202294761610
0.349000000000000143,-18.741196966292214654
0.350000000000000144,-18.607875103098031389
0.351000000000000145,-18.475725183232217574
0.352000000000000146,-18.344601080593996301
0.353000000000000147,-18.214354883191678169
0.354000000000000148,-18.084837755372756618
0.355000000000000149,-17.955900751124577397
0.356000000000000150,-17.827395578274611410
0.357000000000000151,-17.699175313656215991
0.358000000000000151,-17.571095069523213539
0.359000000000000152,-17.443012611693404779
0.360000000000000153,-17.314788930080034390
0.361000000000000154,-17.186288762430059762
0.362000000000000155,-17.057381072231372343
0.363000000000000156,-16.927939481877530170
0.364000000000000157,-16.797842662289557580
0.365000000000000158,-16.666974680290799427
0.366000000000000159,-16.535225305112998484
0.367000000000000159,-16.402490275481053317
0.368000000000000160,-16.268671528781524671
0.369000000000000161,-16.133677393865081484
0.370000000000000162,-15.997422749068757497
0.371000000000000163,-15.859829147069230970
0.372000000000000164,-15.720824908194291680
0.373000000000000165,-15.580345183828290700
0.374000000000000166,-15.438331991547181943
0.375000000000000167,-15.294734223612564961
0.376000000000000167,-15.149507630441174655
0.377000000000000168,-15.002614780647618886
0.378000000000000169,-14.854024999234463067
0.379000000000000170,-14.703714285475859569
0.380000000000000171,-14.551665212007936390
0.381000000000000172,-14.397866806604110224
0.382000000000000173,-14.242314418073842575
0.383000000000000174,-14.085009567682357456
0.384000000000000175,-13.925959787444559979
0.385000000000000175,-13.765178446600931039
0.386000000000000176,-13.602684567535897386
0.387000000000000177,-13.438502632350738608
0.388000000000000178,-13.272662381253741870
0.389000000000000179,-13.105198603880534591
0.390000000000000180,-12.936150924607115797
0.391000000000000181,-12.765563582867661907
0.392000000000000182,-12.593485209439199579
0.393000000000000183,-12.419968599604647608
0.394000000000000183,-12.245070484056682858
0.395000000000000184,-12.068851298355639301
0.396000000000000185,-11.891374951706380259
0.397000000000000186,-11.712708595772054920
0.398000000000000187,-11.532922394195873395
0.399000000000000188,-11.352089293457003905
0.400000000000000189,-11.170284795642714926
0.401000000000000190,-10.987586733675408723
0.402000000000000191,-10.804075049492485761
0.403000000000000191,-10.619831575635823029
0.404000000000000192,-10.434939820669359989
0.405000000000000193,-10.249484758805632367
0.406000000000000194,-10.063552624085899012
0.407000000000000195,-9.877230709424299704
0.408000000000000196,-9.690607170792851832
0.409000000000000197,-9.503770836792753585
0.410000000000000198,-9.316811023827183291
0.411000000000000199,-9.129817357061803307
0.412000000000000199,-8.942879597331902630
0.413000000000000200,-8.756087474129341075
0.414000000000000201,-8.569530524777571046
0.415000000000000202,-8.383297939879822636
0.416000000000000203,-8.197478415104177074
0.417000000000000204,-8.012160009347706335
0.418000000000000205,-7.827430009303609104
0.419000000000000206,-7.643374800436516736
0.420000000000000207,-7.460079744354297659
0.421000000000000207,-7.277629062549588745
0.422000000000000208,-7.096105726468799446
0.423000000000000209,-6.915591353853694834
0.424000000000000210,-6.736166111287678504
0.425000000000000211,-6.557908622867641313
0.426000000000000212,-6.380895884911865323
0.427000000000000213,-6.205203186604721033
0.428000000000000214,-6.030904036470572827
0.429000000000000214,-5.858070094561114161
0.430000000000000215,-5.686771110233648230
0.431000000000000216,-5.517074865391743188
0.432000000000000217,-5.349047123053633612
0.433000000000000218,-5.182751581109715566
0.434000000000000219,-5.018249831125775273
0.435000000000000220,-4.855601322045439261
0.436000000000000221,-4.694863328642226996
0.437000000000000222,-4.536090924569349703
0.438000000000000222,-4.379336959853604938
0.439000000000000223,-4.224652042678271435
0.440000000000000224,-4.072084525299127122
0.441000000000000225,-3.921680493937143019
0.442000000000000226,-3.773483762491736115
0.443000000000000227,-3.627535869918176559
0.444000000000000228,-3.483876081114067880
0.445000000000000229,-3.342541391160354092
0.446000000000000230,-3.203566532763912456
0.447000000000000230,-3.066983986750136726
0.448000000000000231,-2.932823995455904775
0.449000000000000232,-2.801114578875267380
0.450000000000000233,-2.671881553412510435
0.451000000000000234,-2.545148553099662703
0.452000000000000235,-2.420937053138158213
0.453000000000000236,-2.299266395627018511
0.454000000000000237,-2.180153817343096101
0.455000000000000238,-2.063614479441493010
0.456000000000000238,-1.949661498947935501
0.457000000000000239,-1.838305981917469634
0.458000000000000240,-1.729557058137849213
0.459000000000000241,-1.623421917258510705
0.460000000000000242,-1.519905846230280133
0.461000000000000243,-1.419012267943604799
0.462000000000000244,-1.320742780957250950
0.463000000000000245,-1.225097200212269755
0.464000000000000246,-1.132073598630061406
0.465000000000000246,-1.041668349496551071
0.466000000000000247,-0.953876169538024010
0.467000000000000248,-0.868690162597656190
0.468000000000000249,-0.786101863825377611
0.469000000000000250,-0.706101284296822840
0.470000000000000251,-0.628676955980837504
0.471000000000000252,-0.553815976978081492
0.472000000000000253,-0.481504056956865711
0.473000000000000254,-0.411725562715364313
0.474000000000000254,-0.344463563802702322
0.475000000000000255,-0.279699878134589963
0.476000000000000256,-0.217415117542129555
0.477000000000000257,-0.157588733195715230
0.478000000000000258,-0.100199060848627036
0.479000000000000259,-0.045223365848062566
0.480000000000000260,0.007362112135881249
0.481000000000000261,0.057582114710085251
0.482000000000000262,0.105462320730979303
0.483000000000000262,0.151029302691377959
0.484000000000000263,0.194310483560217739
0.485000000000000264,0.235334094111655651
0.486000000000000265,0.274129130777286567
0.487000000000000266,0.310725314053111379
0.488000000000000267,0.345153047490578735
0.489000000000000268,0.377443377298585681
0.490000000000000269,0.407627952581659181
0.491000000000000270,0.435738986236934855
0.492000000000000270,0.461809216531085032
0.493000000000000271,0.485871869375986143
0.494000000000000272,0.507960621320483030
0.495000000000000273,0.528109563273458149
0.496000000000000274,0.546353164971996152
0.497000000000000275,0.562726240206712913
0.498000000000000276,0.577263912814599323
0.499000000000000277,0.590001583448546696
0.500000000000000222,0.600974897130900909
0.501000000000000334,0.610219711597402070
0.502000000000000224,0.617772066436170775
0.503000000000000336,0.623668153025538352
0.504000000000000226,0.627944285272955427
0.505000000000000338,0.630636871156392553
0.506000000000000227,0.631782385068283436
0.507000000000000339,0.631417340961344831
0.508000000000000229,0.629578266294347766
0.509000000000000341,0.626301676775145588
0.510000000000000231,0.621624051897398777
0.511000000000000343,0.615581811266574963
0.512000000000000233,0.608211291710063051
0.513000000000000345,0.599548725165465646
0.514000000000000234,0.589630217340484153
0.515000000000000346,0.578491727137230405
0.516000000000000236,0.566169046833119749
0.517000000000000348,0.552697783009903909
0.518000000000000238,0.538113338222141691
0.519000000000000350,0.522450893395501437
0.520000000000000240,0.505745390945330109
0.521000000000000352,0.488031518605081704
0.522000000000000242,0.469343693954210273
0.523000000000000353,0.449716049634369175
0.524000000000000243,0.429182419242958857
0.525000000000000355,0.407776323892274473
0.526000000000000245,0.385530959422663022
0.527000000000000357,0.362479184257572640
0.528000000000000247,0.338653507888417249
0.529000000000000359,0.314086079976851340
0.530000000000000249,0.288808680061962586
0.531000000000000361,0.262852707859753065
0.532000000000000250,0.236249174142218799
0.533000000000000362,0.209028692183111930
0.534000000000000252,0.181221469757746501
0.535000000000000364,0.152857301683542168
0.536000000000000254,0.123965562888853589
0.537000000000000366,0.094575201996671993
0.538000000000000256,0.064714735410610819
0.539000000000000368,0.034412241890019110
0.540000000000000258,0.003695357601528537
0.541000000000000369,-0.027408728366018577
0.542000000000000259,-0.058873278035732626
0.543000000000000371,-0.090672008138922011
0.544000000000000261,-0.122779093285836277
0.545000000000000373,-0.155169168723474860
0.546000000000000263,-0.187817332692802430
0.547000000000000375,-0.220699148397855843
0.548000000000000265,-0.253790645598538089
0.549000000000000377,-0.287068321839566210
0.550000000000000266,-0.320509143327012358
0.551000000000000378,-0.354090545464585349
0.552000000000000268,-0.387790433060911099
0.553000000000000380,-0.421587180219454793
0.554000000000000270,-0.455459629922195408
0.555000000000000382,-0.489387093318297217
0.556000000000000272,-0.523349348728524122
0.557000000000000384,-0.557326640376272775
0.558000000000000274,-0.591299676855730261
0.559000000000000385,-0.625249629347534475
0.560000000000000275,-0.659158129592109954
0.561000000000000387,-0.693007267630761370
0.562000000000000277,-0.726779589324154318
0.563000000000000389,-0.760458093658056278
0.564000000000000279,-0.794026229845490539
0.565000000000000391,-0.827467894234787948
0.566000000000000281,-0.860767427032299692
0.567000000000000393,-0.893909608848884707
0.568000000000000282,-0.926879657078563901
0.569000000000000394,-0.959663222118014025
0.570000000000000284,-0.992246383434854939
0.571000000000000396,-1.024615645493170746
0.572000000000000286,-1.056757933543729822
0.573000000000000398,-1.088660589286864155
0.574000000000000288,-1.120311366415241983
0.575000000000000400,-1.151698426044085899
0.576000000000000290,-1.182810332035573397
0.577000000000000401,-1.213636046224689569
0.578000000000000291,-1.244164923552945501
0.579000000000000403,-1.274386707116659911
0.580000000000000293,-1.304291523136039244
0.581000000000000405,-1.333869875851387166
0.582000000000000295,-1.363112642352125148
0.583000000000000407,-1.392011067344810282
0.584000000000000297,-1.420556757865382824
0.585000000000000409,-1.448741677941483674
0.586000000000000298,-1.476558143209748097
0.587000000000000410,-1.503998815493567509
0.588000000000000300,-1.531056697345914319
0.589000000000000412,-1.557725126562348406
0.590000000000000302,-1.583997770668534866
0.591000000000000414,-1.609868621387030574
0.592000000000000304,-1.635331989087393412
0.593000000000000416,-1.660382497223987786
0.594000000000000306,-1.685015076765367992
0.595000000000000417,-1.709224960619231126
0.596000000000000307,-1.733007678056488698
0.597000000000000419,-1.756359049138260131
0.598000000000000309,-1.779275179149103492
0.599000000000000421,-1.801752453039771051
0.600000000000000311,-1.823787529882795466
0.601000000000000423,-1.845377337343887092
0.602000000000000313,-1.866519066172001917
0.603000000000000425,-1.887210164711067062
0.604000000000000314,-1.907448333435827426
0.605000000000000426,-1.927231519514580160
0.606000000000000316,-1.946557911401081142
0.607000000000000428,-1.965425933458063046
0.608000000000000318,-1.983834240614563482
0.609000000000000430,-2.001781713059207490
0.610000000000000320,-2.019267450971354627
0.611000000000000432,-2.036290769292222080
0.612000000000000322,-2.052851192537579639
0.613000000000000433,-2.068948449653909893
0.614000000000000323,-2.084582468919567777
0.615000000000000435,-2.099753372892525949
0.616000000000000325,-2.114461473406054282
0.617000000000000437,-2.128707266613880655
0.618000000000000327,-2.142491428085883776
0.619000000000000439,-2.155814807955697354
0.620000000000000329,-2.168678426121249725
0.621000000000000441,-2.181083467499285611
0.622000000000000330,-2.193031277334879459
0.623000000000000442,-2.204523356566801873
0.624000000000000332,-2.215561357249526075
0.625000000000000444,-2.226147078032756799
0.626000000000000334,-2.236282459699001635
0.627000000000000446,-2.245969580759973994
0.628000000000000336,-2.255210653112287744
0.629000000000000448,-2.264008017753009305
0.630000000000000338,-2.272364140555463763
0.631000000000000449,-2.280281608105780400
0.632000000000000339,-2.287763123600431214
0.633000000000000451,-2.294811502805095493
0.634000000000000341,-2.301429670075072043
0.635000000000000453,-2.307620654437518404
0.636000000000000343,-2.313387585735481977
0.637000000000000455,-2.318733690834075656
0.638000000000000345,-2.323662289888605681
0.639000000000000457,-2.328176792674885753
0.640000000000000346,-2.332280694981565095
0.641000000000000458,-2.335977575064537071
0.642000000000000348,-2.339271090163218769
0.643000000000000460,-2.342164973078680212
0.644000000000000350,-2.344663028813394945
0.645000000000000462,-2.346769131272456121
0.646000000000000352,-2.348487220025995192
0.647000000000000464,-2.349821297132632214
0.648000000000000353,-2.350775424023574978
0.649000000000000465,-2.351353718447142249
0.650000000000000355,-2.351560351473356292
0.651000000000000467,-2.351399544558217425
0.652000000000000357,-2.350875566667371963
0.653000000000000469,-2.349992731458624640
0.654000000000000359,-2.348755394523076578
0.655000000000000471,-2.347167950684252435
0.656000000000000361,-2.345234831354886307
0.657000000000000473,-2.342960501950858365
0.658000000000000362,-2.340349459361763973
0.659000000000000474,-2.337406229477650310
0.660000000000000364,-2.334135364771365406
0.661000000000000476,-2.330541441936014202
