# Fe001_ALANINEZWITTER
# h[nm],U(h)[kJ/mol]
0.149999999999999994,95.074205688743717246
0.150999999999999995,89.436402549972129350
0.151999999999999996,84.970727503499844602
0.152999999999999997,80.837333292645112692
0.153999999999999998,76.750005019514290439
0.154999999999999999,72.666394324409083083
0.156000000000000000,68.628751376297614684
0.157000000000000001,64.690014684635585240
0.158000000000000002,60.885802560708285114
0.159000000000000002,57.229137028676447585
0.160000000000000003,53.714859739692982998
0.161000000000000004,50.326844177217751053
0.162000000000000005,47.044715883473330109
0.163000000000000006,43.848815218475834854
0.164000000000000007,40.723194752036420141
0.165000000000000008,37.656932491545319408
0.166000000000000009,34.644212006233864543
0.167000000000000010,31.683623907169998546
0.168000000000000010,28.777070689052493435
0.169000000000000011,25.928559886780060850
0.170000000000000012,23.143075767118176600
0.171000000000000013,20.425639708511088344
0.172000000000000014,17.780608017781858621
0.173000000000000015,15.211212730928810544
0.174000000000000016,12.719323387736835684
0.175000000000000017,10.305392572477895641
0.176000000000000018,7.968541916892766253
0.177000000000000018,5.706745401243427551
0.178000000000000019,3.517070832357958921
0.179000000000000020,1.395946538733854991
0.180000000000000021,-0.660572689218123510
0.181000000000000022,-2.656559447644666783
0.182000000000000023,-4.596000050774948775
0.183000000000000024,-6.482620599845749787
0.184000000000000025,-8.319755626254577763
0.185000000000000026,-10.110258752556809725
0.186000000000000026,-11.856452371181033456
0.187000000000000027,-13.560111728315913382
0.188000000000000028,-15.222477881879717287
0.189000000000000029,-16.844293637545099784
0.190000000000000030,-18.425856622984216671
0.191000000000000031,-19.967084019372336456
0.192000000000000032,-21.467584029377146493
0.193000000000000033,-22.926729838933404437
0.194000000000000034,-24.343732559946204219
0.195000000000000034,-25.717710372421613840
0.196000000000000035,-27.047751780987880466
0.197000000000000036,-28.332971537685303076
0.198000000000000037,-29.572558345192440754
0.199000000000000038,-30.765813934846271138
0.200000000000000039,-31.912183510230089922
0.201000000000000040,-33.011277862329997390
0.202000000000000041,-34.062887701829183129
0.203000000000000042,-35.066990925441224647
0.204000000000000042,-36.023753644743955249
0.205000000000000043,-36.933525866617756606
0.206000000000000044,-37.796832732888944406
0.207000000000000045,-38.614362211455549811
0.208000000000000046,-39.386950089704690470
0.209000000000000047,-40.115563060281814955
0.210000000000000048,-40.801280615244891692
0.211000000000000049,-41.445276382445186414
0.212000000000000050,-42.048799451885976453
0.213000000000000050,-42.613156153269045490
0.214000000000000051,-43.139692661673606722
0.215000000000000052,-43.629778728378596497
0.216000000000000053,-44.084792759728344436
0.217000000000000054,-44.506108399650528895
0.218000000000000055,-44.895082711547658505
0.219000000000000056,-45.253046003046350165
0.220000000000000057,-45.581293292483692881
0.221000000000000058,-45.881077378795552590
0.222000000000000058,-46.153603446270473398
0.223000000000000059,-46.400025111930190747
0.224000000000000060,-46.621441805527375379
0.225000000000000061,-46.818897359692222437
0.226000000000000062,-46.993379679976939656
0.227000000000000063,-47.145821360814416323
0.228000000000000064,-47.277101113111179131
0.229000000000000065,-47.388045871760795080
0.230000000000000066,-47.479433456249260814
0.231000000000000066,-47.551995664239242956
0.232000000000000067,-47.606421686118252978
0.233000000000000068,-47.643361737582509363
0.234000000000000069,-47.663430817055896682
0.235000000000000070,-47.667212504815367424
0.236000000000000071,-47.655262730854197173
0.237000000000000072,-47.628113448554273646
0.238000000000000073,-47.586276160984724015
0.239000000000000073,-47.530245255958718076
0.240000000000000074,-47.460501114760845098
0.241000000000000075,-47.377512967625463602
0.242000000000000076,-47.281741476548397429
0.243000000000000077,-47.173641032821656438
0.244000000000000078,-47.053661762778837385
0.245000000000000079,-46.922251240627318225
0.246000000000000080,-46.779855911940387614
0.247000000000000081,-46.626922235408429174
0.248000000000000081,-46.463897553836233101
0.249000000000000082,-46.291230708161421603
0.250000000000000111,-46.109372410497527994
0.251000000000000112,-45.918775393919183614
0.252000000000000113,-45.719894357952718167
0.253000000000000114,-45.513185729557577019
0.254000000000000115,-45.299107259831338013
0.255000000000000115,-45.078117476784349549
0.256000000000000116,-44.850675014357207715
0.257000000000000117,-44.617237837431432013
0.258000000000000118,-44.378262381953405225
0.259000000000000119,-44.134202628487720688
0.260000000000000120,-43.885509126572976868
0.261000000000000121,-43.632627986199636894
0.262000000000000122,-43.375999851596283463
0.263000000000000123,-43.116058871318450940
0.264000000000000123,-42.853231677409404199
0.265000000000000124,-42.587936385160126918
0.266000000000000125,-42.320581623757696832
0.267000000000000126,-42.051565606886832427
0.268000000000000127,-41.781275251156294814
0.269000000000000128,-41.510085349066052629
0.270000000000000129,-41.238357802123516649
0.271000000000000130,-40.966440918664261517
0.272000000000000131,-40.694668779938965031
0.273000000000000131,-40.423360677098003180
0.274000000000000132,-40.152820620841247035
0.275000000000000133,-39.883336924704124726
0.276000000000000134,-39.615181862222605957
0.277000000000000135,-39.348611397559388081
0.278000000000000136,-39.083864988579776423
0.279000000000000137,-38.821165460837704586
0.280000000000000138,-38.560718950467368416
0.281000000000000139,-38.302714913571335842
0.282000000000000139,-38.047326199350251841
0.283000000000000140,-37.794709183927537310
0.284000000000000141,-37.545003961583077512
0.285000000000000142,-37.298334589918695769
0.286000000000000143,-37.054809385331807903
0.287000000000000144,-36.814521265068989919
0.288000000000000145,-36.577548132064563902
0.289000000000000146,-36.343953298737538660
0.290000000000000147,-36.113785945919417486
0.291000000000000147,-35.887081613113544165
0.292000000000000148,-35.663862716339181702
0.293000000000000149,-35.444139089889233674
0.294000000000000150,-35.227908548423862101
0.295000000000000151,-35.015157465935118353
0.296000000000000152,-34.805861368241323817
0.297000000000000153,-34.599985535808954751
0.298000000000000154,-34.397485613845702801
0.299000000000000155,-34.198308226763600715
0.300000000000000155,-34.002391594271877295
0.301000000000000156,-33.809666146523753127
0.302000000000000157,-33.620055135908820887
0.303000000000000158,-33.433475243251379538
0.304000000000000159,-33.249837176343802980
0.305000000000000160,-33.069046258911008351
0.306000000000000161,-32.891003008267816199
0.307000000000000162,-32.715603700092955819
0.308000000000000163,-32.542740918902019587
0.309000000000000163,-32.372304092955531019
0.310000000000000164,-32.204180012487483964
0.311000000000000165,-32.038253330282955744
0.312000000000000166,-31.874407043771377346
0.313000000000000167,-31.712522957933373391
0.314000000000000168,-31.552482128444275133
0.315000000000000169,-31.394165284596112997
0.316000000000000170,-31.237453231651898022
0.317000000000000171,-31.082227232391396399
0.318000000000000171,-30.928369367705677462
0.319000000000000172,-30.775762876190679407
0.320000000000000173,-30.624292472774481411
0.321000000000000174,-30.473844646492391774
0.322000000000000175,-30.324307937596319817
0.323000000000000176,-30.175573194251690268
0.324000000000000177,-30.027533809134915543
0.325000000000000178,-29.880085936299821014
0.326000000000000179,-29.733128688730012357
0.327000000000000179,-29.586564317037975513
0.328000000000000180,-29.440298369810374624
0.329000000000000181,-29.294239836132778265
0.330000000000000182,-29.148301270855814238
0.331000000000000183,-29.002398903190009349
0.332000000000000184,-28.856452729236387711
0.333000000000000185,-28.710386589077366182
0.334000000000000186,-28.564128229064738917
0.335000000000000187,-28.417609349951714393
0.336000000000000187,-28.270765641522068279
0.337000000000000188,-28.123536804372935904
0.338000000000000189,-27.975866559508716591
0.339000000000000190,-27.827702646401764497
0.340000000000000191,-27.678996810170861664
0.341000000000000192,-27.529704778523626629
0.342000000000000193,-27.379786229099352113
0.343000000000000194,-27.229204747840334733
0.344000000000000195,-27.077927779007332276
0.345000000000000195,-26.925926567443173809
0.346000000000000196,-26.773176093673434650
0.347000000000000197,-26.619655002419250422
0.348000000000000198,-26.465345525080458344
0.349000000000000199,-26.310233396731263156
0.350000000000000200,-26.154307768152989411
0.351000000000000201,-25.997561113410462497
0.352000000000000202,-25.839989133460399273
0.353000000000000203,-25.681590656261668926
0.354000000000000203,-25.522367533837993392
0.355000000000000204,-25.362324536724834445
0.356000000000000205,-25.201469246213221709
0.357000000000000206,-25.039811944784037934
0.358000000000000207,-24.877365505106901367
0.359000000000000208,-24.714145277959723046
0.360000000000000209,-24.550168979405377456
0.361000000000000210,-24.385456577544186274
0.362000000000000210,-24.220030179142149507
0.363000000000000211,-24.053913916417613450
0.364000000000000212,-23.887133834251024211
0.365000000000000213,-23.719717778065682268
0.366000000000000214,-23.551695282610641158
0.367000000000000215,-23.383097461860536725
0.368000000000000216,-23.213956900231792702
0.369000000000000217,-23.044307545298742923
0.370000000000000218,-22.874184602179095549
0.371000000000000218,-22.703624429743477720
0.372000000000000219,-22.532664438790039441
0.373000000000000220,-22.361342992312252420
0.374000000000000221,-22.189699307974866116
0.375000000000000222,-22.017773362901049694
0.376000000000000223,-21.845605800862013979
0.377000000000000224,-21.673237841949379856
0.378000000000000225,-21.500711194799674075
0.379000000000000226,-21.328067971430488825
0.380000000000000226,-21.155350604738192288
0.381000000000000227,-20.982601768697577427
0.382000000000000228,-20.809864301295956324
0.383000000000000229,-20.637181130225286552
0.384000000000000230,-20.464595201348547704
0.385000000000000231,-20.292149409949679750
0.386000000000000232,-20.119886534768927078
0.387000000000000233,-19.947849174819591411
0.388000000000000234,-19.776079688976071935
0.389000000000000234,-19.604620138317635281
0.390000000000000235,-19.433512231206940157
0.391000000000000236,-19.262797271077957362
0.392000000000000237,-19.092516106903197226
0.393000000000000238,-18.922709086306369386
0.394000000000000239,-18.753416011282489251
0.395000000000000240,-18.584676096484681551
0.396000000000000241,-18.416527930033090854
0.397000000000000242,-18.249009436799170203
0.398000000000000242,-18.082157844115737788
0.399000000000000243,-17.916009649861088349
0.400000000000000244,-17.750600592863300164
0.401000000000000245,-17.585965625569649262
0.402000000000000246,-17.422138888923775824
0.403000000000000247,-17.259153689392501718
0.404000000000000248,-17.097042478083135819
0.405000000000000249,-16.935836831890885179
0.406000000000000250,-16.775567436615553163
0.407000000000000250,-16.616264071986176276
0.408000000000000251,-16.457955598531711416
0.409000000000000252,-16.300669946236006069
0.410000000000000253,-16.144434104914818562
0.411000000000000254,-15.989274116253151092
0.412000000000000255,-15.835215067441009040
0.413000000000000256,-15.682281086346311127
0.414000000000000257,-15.530495338163799346
0.415000000000000258,-15.379880023479614692
0.416000000000000258,-15.230456377691689696
0.417000000000000259,-15.082244671726703800
0.418000000000000260,-14.935264213995429472
0.419000000000000261,-14.789533353528716120
0.420000000000000262,-14.645069484237769331
0.421000000000000263,-14.501889050242922963
0.422000000000000264,-14.360007552216412563
0.423000000000000265,-14.219439554685493476
0.424000000000000266,-14.080198694243662771
0.425000000000000266,-13.942297688618612739
0.426000000000000267,-13.805748346546726779
0.427000000000000268,-13.670561578405493464
0.428000000000000269,-13.536747407555875355
0.429000000000000270,-13.404314982348463303
0.430000000000000271,-13.273272588748108447
0.431000000000000272,-13.143627663533186123
0.432000000000000273,-13.015386808026908838
0.433000000000000274,-12.888555802319354271
0.434000000000000274,-12.763139619940123026
0.435000000000000275,-12.639142442942903344
0.436000000000000276,-12.516567677364538014
0.437000000000000277,-12.395417969022158644
0.438000000000000278,-12.275695219613741216
0.439000000000000279,-12.157400603088202473
0.440000000000000280,-12.040534582252636397
0.441000000000000281,-11.925096925585474850
0.442000000000000282,-11.811086724225695832
0.443000000000000282,-11.698502409109050149
0.444000000000000283,-11.587341768223900829
0.445000000000000284,-11.477601963960157860
0.446000000000000285,-11.369279550525840605
0.447000000000000286,-11.262370491407427409
0.448000000000000287,-11.156870176850461007
0.449000000000000288,-11.052773441338773708
0.450000000000000289,-10.950074581051120859
0.451000000000000290,-10.848767371275425120
0.452000000000000290,-10.748845083761642272
0.453000000000000291,-10.650300503995282497
0.454000000000000292,-10.553125948374734833
0.455000000000000293,-10.457313281276110928
0.456000000000000294,-10.362853931990718692
0.457000000000000295,-10.269738911520688518
0.458000000000000296,-10.177958829219438286
0.459000000000000297,-10.087503909264452062
0.460000000000000298,-9.998364006950453131
0.461000000000000298,-9.910528624792126706
0.462000000000000299,-9.823986928426126752
0.463000000000000300,-9.738727762302762159
0.464000000000000301,-9.654739665158722062
0.465000000000000302,-9.572010885262692170
0.466000000000000303,-9.490529395426310799
0.467000000000000304,-9.410282907773764194
0.468000000000000305,-9.331258888263807449
0.469000000000000306,-9.253444570958556881
0.470000000000000306,-9.176826972034056951
0.471000000000000307,-9.101392903528035205
0.472000000000000308,-9.027128986821063350
0.473000000000000309,-8.954021665847395894
0.474000000000000310,-8.882057220032692157
0.475000000000000311,-8.811221776955976637
0.476000000000000312,-8.741501324733885525
0.477000000000000313,-8.672881724125288017
0.478000000000000314,-8.605348720355262770
0.479000000000000314,-8.538887954657422341
0.480000000000000315,-8.473484975534015362
0.481000000000000316,-8.409125249733779839
0.482000000000000317,-8.345794172947543998
0.483000000000000318,-8.283477080222162670
0.484000000000000319,-8.222159256093444668
0.485000000000000320,-8.161825944439243585
0.486000000000000321,-8.102462358053909242
0.487000000000000322,-8.044053687945705633
0.488000000000000322,-7.986585112358985938
0.489000000000000323,-7.930041805523151410
0.490000000000000324,-7.874408946130617259
0.491000000000000325,-7.819671725546231578
0.492000000000000326,-7.765815355750635085
0.493000000000000327,-7.712825077020542430
0.494000000000000328,-7.660686165348669086
0.495000000000000329,-7.609383939606549241
0.496000000000000330,-7.558903768453349770
0.497000000000000330,-7.509231076994073995
0.498000000000000331,-7.460351353190638690
0.499000000000000332,-7.412250154029322857
0.500000000000000333,-7.364913111448309735
0.501000000000000334,-7.318325938029046185
0.502000000000000335,-7.272474432455237725
0.503000000000000336,-7.227344484743419173
0.504000000000000337,-7.182922081249029311
0.505000000000000338,-7.139193309451994374
0.506000000000000338,-7.096144362525942384
0.507000000000000339,-7.053761543695100222
0.508000000000000340,-7.012031270383026538
0.509000000000000341,-6.970940078157387809
0.510000000000000342,-6.930474624474912915
0.511000000000000343,-6.890621692230773476
0.512000000000000344,-6.851368193116599059
0.513000000000000345,-6.812701170791325644
0.514000000000000346,-6.774607803869166389
0.515000000000000346,-6.737075408728857795
0.516000000000000347,-6.700091442148403686
0.517000000000000348,-6.663643503769625553
0.518000000000000349,-6.627719338396485860
0.519000000000000350,-6.592306838131581692
0.520000000000000351,-6.557394044354817986
0.521000000000000352,-6.522969149548396572
0.522000000000000353,-6.489020498972219109
0.523000000000000353,-6.455536592193737988
0.524000000000000354,-6.422506084476324872
0.525000000000000355,-6.389917788030038182
0.526000000000000356,-6.357760673128830753
0.527000000000000357,-6.326023869098025720
0.528000000000000358,-6.294696665175950834
0.529000000000000359,-6.263768511253466897
0.530000000000000360,-6.233229018495277884
0.531000000000000361,-6.203067959846591428
0.532000000000000361,-6.173275270428844941
0.533000000000000362,-6.143841047828140667
0.534000000000000363,-6.114755552279864226
0.535000000000000364,-6.086009206753018930
0.536000000000000365,-6.057592596937722895
0.537000000000000366,-6.029496471139231595
0.538000000000000367,-6.001711740081837831
0.539000000000000368,-5.974229476625886548
0.540000000000000369,-5.947040915401120564
0.541000000000000369,-5.920137452359528041
0.542000000000000370,-5.893510644250789632
0.543000000000000371,-5.867152208023284743
0.544000000000000372,-5.841054020153743309
0.545000000000000373,-5.815208115908359510
0.546000000000000374,-5.789606688538258439
0.547000000000000375,-5.764242088412105502
0.548000000000000376,-5.739106822088626991
0.549000000000000377,-5.714193551331637089
0.550000000000000377,-5.689495092070230520
0.551000000000000378,-5.665004413306734321
0.552000000000000379,-5.640714635974838131
0.553000000000000380,-5.616619031750386348
0.554000000000000381,-5.592711021817197370
0.555000000000000382,-5.568984175590260932
0.556000000000000383,-5.545432209398505563
0.557000000000000384,-5.522048985129439203
0.558000000000000385,-5.498828508837717344
0.559000000000000385,-5.475764929319834273
0.560000000000000386,-5.452852536656847882
0.561000000000000387,-5.430085760727290101
0.562000000000000388,-5.407459169692034884
0.563000000000000389,-5.384967468453091044
0.564000000000000390,-5.362605497088122064
0.565000000000000391,-5.340368229262486111
0.566000000000000392,-5.318250770620477574
0.567000000000000393,-5.296248357157494979
0.568000000000000393,-5.274356353574681577
0.569000000000000394,-5.252570251617709296
0.570000000000000395,-5.230885668401170641
0.571000000000000396,-5.209298344720043161
0.572000000000000397,-5.187804143349713293
0.573000000000000398,-5.166399047335891836
0.574000000000000399,-5.145079158275804865
0.575000000000000400,-5.123840694591928369
0.576000000000000401,-5.102679989799520754
0.577000000000000401,-5.081593490769181543
0.578000000000000402,-5.060577755985596227
0.579000000000000403,-5.039629453803591730
0.580000000000000404,-5.018745360702586034
0.581000000000000405,-4.997922359540504900
0.582000000000000406,-4.977157437808144458
0.583000000000000407,-4.956447685884969090
0.584000000000000408,-4.935790295297293184
0.585000000000000409,-4.915182556979697637
0.586000000000000409,-4.894621859540622566
0.587000000000000410,-4.874105687532887643
0.588000000000000411,-4.853631619729990021
0.589000000000000412,-4.833197327408916166
0.590000000000000413,-4.812800572640203889
0.591000000000000414,-4.792439206585977551
0.592000000000000415,-4.772111167806576404
0.593000000000000416,-4.751814480576462607
0.594000000000000417,-4.731547253209996029
0.595000000000000417,-4.711307676397670008
0.596000000000000418,-4.691094021553323223
0.597000000000000419,-4.670904639172946737
0.598000000000000420,-4.650737957205441475
0.599000000000000421,-4.630592479435977182
0.600000000000000422,-4.610466783882235298
0.601000000000000423,-4.590359521204080195
0.602000000000000424,-4.570269413127006075
0.603000000000000425,-4.550195250879768061
0.604000000000000425,-4.530135893646503931
0.605000000000000426,-4.510090267033756817
0.606000000000000427,-4.490057361552664439
