# Fe001_BSAI20
# h[nm],U(h)[kJ/mol]
0.149999999999999994,73.590153454643854047
0.150999999999999995,68.420609848674786235
0.151999999999999996,64.496646337793094972
0.152999999999999997,60.793959841194649130
0.153999999999999998,56.980500213249555941
0.154999999999999999,53.032915562079189442
0.156000000000000000,49.035585673825529796
0.157000000000000001,45.084994486488959353
0.158000000000000002,41.251982398389678508
0.159000000000000002,37.573531318311417238
0.160000000000000003,34.057782173491141009
0.161000000000000004,30.693410796782565342
0.162000000000000005,27.458934922955229752
0.163000000000000006,24.330083868054082075
0.164000000000000007,21.284751055066031711
0.165000000000000008,18.305733470233228388
0.166000000000000009,15.381738394482365351
0.167000000000000010,12.507191832538399723
0.168000000000000010,9.681327592919373615
0.169000000000000011,6.906936758207950611
0.170000000000000012,4.189050618594672315
0.171000000000000013,1.533734199213043325
0.172000000000000014,-1.052910256487746832
0.173000000000000015,-3.565488651737539705
0.174000000000000016,-5.999808291571547159
0.175000000000000017,-8.353143391678317542
0.176000000000000018,-10.624310957016602330
0.177000000000000018,-12.813600470660489350
0.178000000000000019,-14.922600417668226314
0.179000000000000020,-16.953960668688445423
0.180000000000000021,-18.911123801450113291
0.181000000000000022,-20.798051726383214088
0.182000000000000023,-22.618967308469784427
0.183000000000000024,-24.378124546425926411
0.184000000000000025,-26.079615563583729454
0.185000000000000026,-27.727218301920903087
0.186000000000000026,-29.324285400516323818
0.187000000000000027,-30.873672220422641033
0.188000000000000028,-32.377700246798781336
0.189000000000000029,-33.838151034160205199
0.190000000000000030,-35.256285335582155938
0.191000000000000031,-36.632881951004016230
0.192000000000000032,-37.968291034284092689
0.193000000000000033,-39.262497018733881760
0.194000000000000034,-40.515186877486385697
0.195000000000000034,-41.725820064514884677
0.196000000000000035,-42.893697134871082710
0.197000000000000036,-44.018024681825394850
0.198000000000000037,-45.097974827922477914
0.199000000000000038,-46.132738049345256570
0.200000000000000039,-47.121568588477614981
0.201000000000000040,-48.063822113885962040
0.202000000000000041,-48.958985620084533252
0.203000000000000042,-49.806699824465624715
0.204000000000000042,-50.606774520820820840
0.205000000000000043,-51.359197494405329110
0.206000000000000044,-52.064137699642266455
0.207000000000000045,-52.721943455654056265
0.208000000000000046,-53.333136434027949235
0.209000000000000047,-53.898402204349466160
0.210000000000000048,-54.418578072292611125
0.211000000000000049,-54.894638897993445426
0.212000000000000050,-55.327681523922478846
0.213000000000000050,-55.718908375653896314
0.214000000000000051,-56.069610729286281980
0.215000000000000052,-56.381152068626988694
0.216000000000000053,-56.654951885860178606
0.217000000000000054,-56.892470213004095569
0.218000000000000055,-57.095193109295053091
0.219000000000000056,-57.264619272591161803
0.220000000000000057,-57.402247891517468759
0.221000000000000058,-57.509567809643897363
0.222000000000000058,-57.588048033560689021
0.223000000000000059,-57.639129583163558834
0.224000000000000060,-57.664218654537627629
0.225000000000000061,-57.664681043184302212
0.226000000000000062,-57.641837757553346933
0.227000000000000063,-57.596961739469954011
0.228000000000000064,-57.531275598606079313
0.229000000000000065,-57.445950262158895328
0.230000000000000066,-57.342104437894775515
0.231000000000000066,-57.220804788246574901
0.232000000000000067,-57.083066714787811691
0.233000000000000068,-56.929855655759638466
0.234000000000000069,-56.762088804033773215
0.235000000000000070,-56.580637158636378103
0.236000000000000071,-56.386327829446962312
0.237000000000000072,-56.179946521672619042
0.238000000000000073,-55.962240133964918698
0.239000000000000073,-55.733919411411001477
0.240000000000000074,-55.495661601938671481
0.241000000000000075,-55.248113071802208651
0.242000000000000076,-54.991891842659505585
0.243000000000000077,-54.727590019236380670
0.244000000000000078,-54.455776082641044411
0.245000000000000079,-54.176997030000379141
0.246000000000000080,-53.891780346216002329
0.247000000000000081,-53.600635798267987298
0.248000000000000081,-53.304057046627200123
0.249000000000000082,-53.002523071979581459
0.250000000000000111,-52.696499418633536038
0.251000000000000112,-52.386439258692767851
0.252000000000000113,-52.072784283358146240
0.253000000000000114,-51.755965429599655181
0.254000000000000115,-51.436403451943519372
0.255000000000000115,-51.114509350281096545
0.256000000000000116,-50.790684665457135338
0.257000000000000117,-50.465321654966672327
0.258000000000000118,-50.138803361412371373
0.259000000000000119,-49.811503586479929595
0.260000000000000120,-49.483786783103333562
0.261000000000000121,-49.156007878245318921
0.262000000000000122,-48.828512038333443002
0.263000000000000123,-48.501634388894849792
0.264000000000000123,-48.175699699343326188
0.265000000000000124,-47.851022043210875268
0.266000000000000125,-47.527904443402448464
0.267000000000000126,-47.206638511298386618
0.268000000000000127,-46.887504087755317528
0.269000000000000128,-46.570768893268194688
0.270000000000000129,-46.256688193772134809
0.271000000000000130,-45.945504487784795344
0.272000000000000131,-45.637447219833084944
0.273000000000000131,-45.332732524373895444
0.274000000000000132,-45.031563003714282445
0.275000000000000133,-44.734127542768284513
0.276000000000000134,-44.440601162855635664
0.277000000000000135,-44.151144916156646048
0.278000000000000136,-43.865905821888638627
0.279000000000000137,-43.585016844763686095
0.280000000000000138,-43.308596915824701057
0.281000000000000139,-43.036750995338003634
0.282000000000000139,-42.769570177044236914
0.283000000000000140,-42.507131832734934562
0.284000000000000141,-42.249499795827695436
0.285000000000000142,-41.996724582358403666
0.286000000000000143,-41.748843647589978900
0.287000000000000144,-41.505881676255043544
0.288000000000000145,-41.267850904299848480
0.289000000000000146,-41.034751469878329999
0.290000000000000147,-40.806571791255024095
0.291000000000000147,-40.583288969212915731
0.292000000000000148,-40.364869211523270565
0.293000000000000149,-40.151268277018168362
0.294000000000000150,-39.942431936810677939
0.295000000000000151,-39.738296450228943968
0.296000000000000152,-39.538789053069280044
0.297000000000000153,-39.343828455825587298
0.298000000000000154,-39.153325349616991957
0.299000000000000155,-38.967182917611836501
0.300000000000000155,-38.785297349830599956
0.301000000000000156,-38.607558359302800000
0.302000000000000157,-38.433849697651744748
0.303000000000000158,-38.264049668284513928
0.304000000000000159,-38.098031635471961920
0.305000000000000160,-37.935664527713299776
0.306000000000000161,-37.776813333891723801
0.307000000000000162,-37.621339590839539824
0.308000000000000163,-37.469101861043483837
0.309000000000000163,-37.319956199332466440
0.310000000000000164,-37.173756607499633731
0.311000000000000165,-37.030355475918305785
0.312000000000000166,-36.889604011316976084
0.313000000000000167,-36.751352649980354670
0.314000000000000168,-36.615451455742523024
0.315000000000000169,-36.481750502233516897
0.316000000000000170,-36.350100238931659646
0.317000000000000171,-36.220351840661592746
0.318000000000000171,-36.092357540260259441
0.319000000000000172,-35.965970944212408256
0.320000000000000173,-35.841047331130312159
0.321000000000000174,-35.717443933022870795
0.322000000000000175,-35.595020199363766267
0.323000000000000176,-35.473638044029371486
0.324000000000000177,-35.353162075232887673
0.325000000000000178,-35.233459808633639909
0.326000000000000179,-35.114401863847476193
0.327000000000000179,-34.995862144628048895
0.328000000000000180,-34.877718003027929683
0.329000000000000181,-34.759850387884391409
0.330000000000000182,-34.642143978005755400
0.331000000000000183,-34.524487300463135853
0.332000000000000184,-34.406772834416393891
0.333000000000000185,-34.288897100924891959
0.334000000000000186,-34.170760739211672785
0.335000000000000187,-34.052268569864807546
0.336000000000000187,-33.933329645472696257
0.337000000000000188,-33.813857289198637091
0.338000000000000189,-33.693769121808919920
0.339000000000000190,-33.572987077672145517
0.340000000000000191,-33.451437410251052995
0.341000000000000192,-33.329050687609139914
0.342000000000000193,-33.205761778452362876
0.343000000000000194,-33.081509829224437169
0.344000000000000195,-32.956238232769017316
0.345000000000000195,-32.829894589067130539
0.346000000000000196,-32.702430658550063924
0.347000000000000197,-32.573802308480743761
0.348000000000000198,-32.443969452886278759
0.349000000000000199,-32.312895986514838853
0.350000000000000200,-32.180549713278466584
0.351000000000000201,-32.046902269631658555
0.352000000000000202,-31.911929043323233657
0.353000000000000203,-31.775609087945714037
0.354000000000000203,-31.637925033693232280
0.355000000000000204,-31.498862994724881048
0.356000000000000205,-31.358412473516466434
0.357000000000000206,-31.216566262569376278
0.358000000000000207,-31.073320343830051371
0.359000000000000208,-30.928673786160111092
0.360000000000000209,-30.782628641181425166
0.361000000000000210,-30.635189837806326096
0.362000000000000210,-30.486365075748516063
0.363000000000000211,-30.336164718295652420
0.364000000000000212,-30.184601684610402828
0.365000000000000213,-30.031691341812233986
0.366000000000000214,-29.877451397078921502
0.367000000000000215,-29.721901789992319465
0.368000000000000216,-29.565064585340131487
0.369000000000000217,-29.406963866571754096
0.370000000000000218,-29.247625630093949667
0.371000000000000218,-29.087077680579096040
0.372000000000000219,-28.925349527446975628
0.373000000000000220,-28.762472282669119039
0.374000000000000221,-28.598478560033250062
0.375000000000000222,-28.433402375994283773
0.376000000000000223,-28.267279052227877401
0.377000000000000224,-28.100145119991850606
0.378000000000000225,-27.932038226391153302
0.379000000000000226,-27.762997042632417077
0.380000000000000226,-27.593061174345173470
0.381000000000000227,-27.422271074037478655
0.382000000000000228,-27.250667955746251891
0.383000000000000229,-27.078293711933735466
0.384000000000000230,-26.905190832674282575
0.385000000000000231,-26.731402327168694910
0.386000000000000232,-26.556971647615682741
0.387000000000000233,-26.381942615464406998
0.388000000000000234,-26.206359350065003611
0.389000000000000234,-26.030266199729044985
0.390000000000000235,-25.853707675205573224
0.391000000000000236,-25.676728385573717617
0.392000000000000237,-25.499372976547817871
0.393000000000000238,-25.321686071186611855
0.394000000000000239,-25.143712212993399646
0.395000000000000240,-24.965495811390738368
0.396000000000000241,-24.787081089548980373
0.397000000000000242,-24.608512034544862246
0.398000000000000242,-24.429832349823222160
0.399000000000000243,-24.251085409931796733
0.400000000000000244,-24.072314217496579403
0.401000000000000245,-23.893561362402770953
0.402000000000000246,-23.714868983144231862
0.403000000000000247,-23.536278730301813056
0.404000000000000248,-23.357831732110149403
0.405000000000000249,-23.179568562069881921
0.406000000000000250,-23.001529208561521500
0.407000000000000250,-22.823753046415571788
0.408000000000000251,-22.646278810392679759
0.409000000000000252,-22.469144570526548677
0.410000000000000253,-22.292387709281520358
0.411000000000000254,-22.116044900476268253
0.412000000000000255,-21.940152089924456646
0.413000000000000256,-21.764744477742851814
0.414000000000000257,-21.589856502277051220
0.415000000000000258,-21.415521825595064342
0.416000000000000258,-21.241773320498811728
0.417000000000000259,-21.068643059003484552
0.418000000000000260,-20.896162302235406827
0.419000000000000261,-20.724361491698491733
0.420000000000000262,-20.553270241860548850
0.421000000000000263,-20.382917334010478783
0.422000000000000264,-20.213330711338038270
0.423000000000000265,-20.044537475188366926
0.424000000000000266,-19.876563882444429510
0.425000000000000266,-19.709435343990165279
0.426000000000000267,-19.543176424209050879
0.427000000000000268,-19.377810841472587811
0.428000000000000269,-19.213361469574376628
0.429000000000000270,-19.049850340066178944
0.430000000000000271,-18.887298645453189039
0.431000000000000272,-18.725726743206539737
0.432000000000000273,-18.565154160552037155
0.433000000000000274,-18.405599599994978632
0.434000000000000274,-18.247080945541743091
0.435000000000000275,-18.089615269579912393
0.436000000000000276,-17.933218840379709036
0.437000000000000277,-17.777907130179961825
0.438000000000000278,-17.623694823823576883
0.439000000000000279,-17.470595827907892783
0.440000000000000280,-17.318623280416264976
0.441000000000000281,-17.167789560798617288
0.442000000000000282,-17.018106300469206360
0.443000000000000282,-16.869584393691127389
0.444000000000000283,-16.722234008817789430
0.445000000000000284,-16.576064599862963433
0.446000000000000285,-16.431084918371237080
0.447000000000000286,-16.287303025562664516
0.448000000000000287,-16.144726304725175225
0.449000000000000288,-16.003361473830388206
0.450000000000000289,-15.863214598348296391
0.451000000000000290,-15.724291104238082184
0.452000000000000290,-15.586595791092673124
0.453000000000000291,-15.450132845415632588
0.454000000000000292,-15.314905854010053332
0.455000000000000293,-15.180917817459491204
0.456000000000000294,-15.048171163682464879
0.457000000000000295,-14.916667761542152348
0.458000000000000296,-14.786408934494204459
0.459000000000000297,-14.657395474256215806
0.460000000000000298,-14.529627654482998977
0.461000000000000298,-14.403105244432861554
0.462000000000000299,-14.277827522610493816
0.463000000000000300,-14.153793290372931324
0.464000000000000301,-14.031000885485777729
0.465000000000000302,-13.909448195617477140
0.466000000000000303,-13.789132671760034654
0.467000000000000304,-13.670051341565226721
0.468000000000000305,-13.552200822586167206
0.469000000000000306,-13.435577335414293998
0.470000000000000306,-13.320176716702864184
0.471000000000000307,-13.205994432068077771
0.472000000000000308,-13.093025588860209396
0.473000000000000309,-12.981264948796802372
0.474000000000000310,-12.870706940451279721
0.475000000000000311,-12.761345671590117234
0.476000000000000312,-12.653174941353052319
0.477000000000000313,-12.546188252270075836
0.478000000000000314,-12.440378822110611523
0.479000000000000314,-12.335739595560012205
0.480000000000000315,-12.232263255718883954
0.481000000000000316,-12.129942235421626862
0.482000000000000317,-12.028768728370435426
0.483000000000000318,-11.928734700081712106
0.484000000000000319,-11.829831898641980814
0.485000000000000320,-11.732051865270957336
0.486000000000000321,-11.635385944689513593
0.487000000000000322,-11.539825295290665252
0.488000000000000322,-11.445360899112085207
0.489000000000000323,-11.351983571608927903
0.490000000000000324,-11.259683971225772581
0.491000000000000325,-11.168452608767175604
0.492000000000000326,-11.078279856566066286
0.493000000000000327,-10.989155957450000400
0.494000000000000328,-10.901071033504935670
0.495000000000000329,-10.814015094636987513
0.496000000000000330,-10.727978046932255651
0.497000000000000330,-10.642949700815471203
0.498000000000000331,-10.558919779008075324
0.499000000000000332,-10.475877924286779219
0.500000000000000333,-10.393813707043468852
0.501000000000000334,-10.312716632647848769
0.502000000000000335,-10.232576148614089817
0.503000000000000336,-10.153381651573059941
0.504000000000000337,-10.075122494051608868
0.505000000000000338,-9.997787991060825163
0.506000000000000338,-9.921367426494992259
0.507000000000000339,-9.845850059343227656
0.508000000000000340,-9.771225129715851665
0.509000000000000341,-9.697481864687674147
0.510000000000000342,-9.624609483960323786
0.511000000000000343,-9.552597205345971787
0.512000000000000344,-9.481434250074816106
0.513000000000000345,-9.411109847928717187
0.514000000000000346,-9.341613242203537837
0.515000000000000346,-9.272933694502642155
0.516000000000000347,-9.205060489364175424
0.517000000000000348,-9.137982938724835691
0.518000000000000349,-9.071690386222584834
0.519000000000000350,-9.006172211341265665
0.520000000000000351,-8.941417833399665227
0.521000000000000352,-8.877416715387822066
0.522000000000000353,-8.814158367653419646
0.523000000000000353,-8.751632351440884250
0.524000000000000354,-8.689828282286239158
0.525000000000000355,-8.628735833270265942
0.526000000000000356,-8.568344738132960714
0.527000000000000357,-8.508644794252086641
0.528000000000000358,-8.449625865488522791
0.529000000000000359,-8.391277884901386486
0.530000000000000360,-8.333590857335632762
0.531000000000000361,-8.276554861884978465
0.532000000000000361,-8.220160054232930946
0.533000000000000362,-8.164396668874688956
0.534000000000000363,-8.109255021222747217
0.535000000000000364,-8.054725509598817723
0.536000000000000365,-8.000798617114970313
0.537000000000000366,-7.947464913446563806
0.538000000000000367,-7.894715056499711281
0.539000000000000368,-7.842539793975966234
0.540000000000000369,-7.790929964836794674
0.541000000000000369,-7.739876500670524351
0.542000000000000370,-7.689370426964340588
0.543000000000000371,-7.639402864283799666
0.544000000000000372,-7.589965029362522486
0.545000000000000373,-7.541048236104455960
0.546000000000000374,-7.492643896501226308
0.547000000000000375,-7.444743521466941516
0.548000000000000376,-7.397338721592950250
0.549000000000000377,-7.350421207824867409
0.550000000000000377,-7.303982792064081409
0.551000000000000378,-7.258015387696284293
0.552000000000000379,-7.212511010049037274
0.553000000000000380,-7.167461776780752025
0.554000000000000381,-7.122859908203173163
0.555000000000000382,-7.078697727539624118
0.556000000000000383,-7.034967661120957061
0.557000000000000384,-6.991662238521483275
0.558000000000000385,-6.948774092636743838
0.559000000000000385,-6.906295959705259335
0.560000000000000386,-6.864220679276074932
0.561000000000000387,-6.822541194124175590
0.562000000000000388,-6.781250550115606401
0.563000000000000389,-6.740341896024003354
0.564000000000000390,-6.699808483300626172
0.565000000000000391,-6.659643665799400480
0.566000000000000392,-6.619840899458880656
0.567000000000000393,-6.580393741942748065
0.568000000000000393,-6.541295852240523345
0.569000000000000394,-6.502540990230120777
0.570000000000000395,-6.464123016203894956
0.571000000000000396,-6.426035890359588443
0.572000000000000397,-6.388273672257873237
0.573000000000000398,-6.350830520247824573
0.574000000000000399,-6.313700690861875131
0.575000000000000400,-6.276878538181591694
0.576000000000000401,-6.240358513175704225
0.577000000000000401,-6.204135163011684106
0.578000000000000402,-6.168203130342248208
0.579000000000000403,-6.132557152567962078
0.580000000000000404,-6.097192061077318925
0.581000000000000405,-6.062102780465393081
0.582000000000000406,-6.027284327732282065
0.583000000000000407,-5.992731811462542524
0.584000000000000408,-5.958440430986639669
0.585000000000000409,-5.924405475525579945
0.586000000000000409,-5.890622323319707476
0.587000000000000410,-5.857086440742792277
0.588000000000000411,-5.823793381402296632
0.589000000000000412,-5.790738785226854368
0.590000000000000413,-5.757918377541885846
0.591000000000000414,-5.725327968134280354
0.592000000000000415,-5.692963450306974593
0.593000000000000416,-5.660820799924360713
0.594000000000000417,-5.628896074449282416
0.595000000000000417,-5.597185411972510849
0.596000000000000418,-5.565685030235350439
0.597000000000000419,-5.534391225646308143
0.598000000000000420,-5.503300372292352804
0.599000000000000421,-5.472408920945668775
0.600000000000000422,-5.441713398066423402
0.601000000000000423,-5.411210404802331730
0.602000000000000424,-5.380896615985571785
0.603000000000000425,-5.350768779127699659
0.604000000000000425,-5.320823713413174616
0.605000000000000426,-5.291058308692037748
