# Fe001_CYS-AC
# h[nm],U(h)[kJ/mol]
0.149999999999999994,115.183293262589728556
0.150999999999999995,108.267154619400869819
0.151999999999999996,103.775499938386474241
0.152999999999999997,99.801413343488050600
0.153999999999999998,95.700467253082095453
0.154999999999999999,91.392100216600155704
0.156000000000000000,86.995461381037017645
0.157000000000000001,82.657087569530730775
0.158000000000000002,78.483243098431842100
0.159000000000000002,74.525178135853394679
0.160000000000000003,70.787777129779257734
0.161000000000000004,67.245681475212734313
0.162000000000000005,63.859062280460513250
0.163000000000000006,60.585831673163376365
0.164000000000000007,57.389551443443927781
0.165000000000000008,54.243488900703425770
0.166000000000000009,51.131728899376653885
0.167000000000000010,48.048317420995303451
0.168000000000000010,44.995290122361112140
0.169000000000000011,41.980246763429235557
0.170000000000000012,39.013933289312873853
0.171000000000000013,36.108118583551728875
0.172000000000000014,33.273914349436147120
0.173000000000000015,30.520585437587804734
0.174000000000000016,27.854830163538643717
0.175000000000000017,25.280469562179455068
0.176000000000000018,22.798464568765876237
0.177000000000000018,20.407174828295499225
0.178000000000000019,18.102777213245808241
0.179000000000000020,15.879772237400951340
0.180000000000000021,13.731519459557016916
0.181000000000000022,11.650756611877607583
0.182000000000000023,9.630070205440821596
0.183000000000000024,7.662296947581241469
0.184000000000000025,5.740845042802296128
0.185000000000000026,3.859932216121828130
0.186000000000000026,2.014743158090495534
0.187000000000000027,0.201513223044354983
0.188000000000000028,-1.582452143803600775
0.189000000000000029,-3.338811356510544837
0.190000000000000030,-5.068262669799873166
0.191000000000000031,-6.770651119725593858
0.192000000000000032,-8.445096139961915327
0.193000000000000033,-10.090130693446997867
0.194000000000000034,-11.703844071205491417
0.195000000000000034,-13.284021895981931394
0.196000000000000035,-14.828278241035969032
0.197000000000000036,-16.334176071810176722
0.198000000000000037,-17.799333398479539881
0.199000000000000038,-19.221513565676033863
0.200000000000000039,-20.598698990192833236
0.201000000000000040,-21.929148386497196555
0.202000000000000041,-23.211438099028573134
0.203000000000000042,-24.444488600193146510
0.204000000000000042,-25.627577527562113602
0.205000000000000043,-26.760340838641479166
0.206000000000000044,-27.842763772936375943
0.207000000000000045,-28.875163344872294857
0.208000000000000046,-29.858164062646885384
0.209000000000000047,-30.792668491232337402
0.210000000000000048,-31.679824165049058848
0.211000000000000049,-32.520988218234869294
0.212000000000000050,-33.317690947309444027
0.213000000000000050,-34.071599360194610995
0.214000000000000051,-34.784481603378431203
0.215000000000000052,-35.458173000541080455
0.216000000000000053,-36.094544285054261934
0.217000000000000054,-36.695472468236026486
0.218000000000000055,-37.262814657012455655
0.219000000000000056,-37.798385019869819246
0.220000000000000057,-38.303934999230101255
0.221000000000000058,-38.781136781682945980
0.222000000000000058,-39.231569964525846217
0.223000000000000059,-39.656711297143978356
0.224000000000000060,-40.057927328050119797
0.225000000000000061,-40.436469751894307478
0.226000000000000062,-40.793473224346620043
0.227000000000000063,-41.129955395321999845
0.228000000000000064,-41.446818901412903813
0.229000000000000065,-41.744855055515941444
0.230000000000000066,-42.024748974415857106
0.231000000000000066,-42.287085892535031917
0.232000000000000067,-42.532358421242932423
0.233000000000000068,-42.760974527216468744
0.234000000000000069,-42.973266019597296861
0.235000000000000070,-43.169497353443254895
0.236000000000000071,-43.349874575641251795
0.237000000000000072,-43.514554258542929688
0.238000000000000073,-43.663652285681529008
0.239000000000000073,-43.797252372682166310
0.240000000000000074,-43.915414224608312566
0.241000000000000075,-44.018181248267474359
0.242000000000000076,-44.105587754263339662
0.243000000000000077,-44.177665598704834338
0.244000000000000078,-44.234450228382648618
0.245000000000000079,-44.275986105853490926
0.246000000000000080,-44.302331502213498027
0.247000000000000081,-44.313562655404041379
0.248000000000000081,-44.309777300700034175
0.249000000000000082,-44.291097587629131738
0.250000000000000111,-44.257672404017242229
0.251000000000000112,-44.209679133213668933
0.252000000000000113,-44.147324874898870917
0.253000000000000114,-44.070847163286430259
0.254000000000000115,-43.980514219090544259
0.255000000000000115,-43.876624773411137426
0.256000000000000116,-43.759507502778340893
0.257000000000000117,-43.629520115071692032
0.258000000000000118,-43.487048125962068923
0.259000000000000119,-43.332503364990664352
0.260000000000000120,-43.166322249465729044
0.261000000000000121,-42.988963863086908646
0.262000000000000122,-42.800907874661959340
0.263000000000000123,-42.602652330510366596
0.264000000000000123,-42.394711352207664845
0.265000000000000124,-42.177612769253450153
0.266000000000000125,-41.951895714089602052
0.267000000000000126,-41.718108204684270390
0.268000000000000127,-41.476804737667336553
0.269000000000000128,-41.228543912779116454
0.270000000000000129,-40.973886107199930962
0.271000000000000130,-40.713391216185208066
0.272000000000000131,-40.447616474354056493
0.273000000000000131,-40.177114369983371489
0.274000000000000132,-39.902430662755669744
0.275000000000000133,-39.624102513605151898
0.276000000000000134,-39.342656733608961872
0.277000000000000135,-39.058608157285100049
0.278000000000000136,-38.772458144185115714
0.279000000000000137,-38.484693211312034578
0.280000000000000138,-38.195783797650491920
0.281000000000000139,-37.906183160964950218
0.282000000000000139,-37.616326406002201566
0.283000000000000140,-37.326629642321528024
0.284000000000000141,-37.037489269167025441
0.285000000000000142,-36.749281384086842195
0.286000000000000143,-36.462361311388846730
0.287000000000000144,-36.177063245996414764
0.288000000000000145,-35.893700007826232934
0.289000000000000146,-35.612562901447468278
0.290000000000000147,-35.333921675491168912
0.291000000000000147,-35.058024576057043475
0.292000000000000148,-34.785098488205377976
0.293000000000000149,-34.515349159518159183
0.294000000000000150,-34.248961499663195696
0.295000000000000151,-33.986099949890309802
0.296000000000000152,-33.726908916426360463
0.297000000000000153,-33.471513261810834194
0.298000000000000154,-33.220018848321181792
0.299000000000000155,-32.972513127774035979
0.300000000000000155,-32.729065772149319002
0.301000000000000156,-32.489729339667015040
0.302000000000000157,-32.254539971146385824
0.303000000000000158,-32.023518111692311550
0.304000000000000159,-31.796669252979899767
0.305000000000000160,-31.573984691643676825
0.306000000000000161,-31.355442299519751259
0.307000000000000162,-31.141007301735506019
0.308000000000000163,-30.930633058889505094
0.309000000000000163,-30.724261849813540692
0.310000000000000164,-30.521825651655916545
0.311000000000000165,-30.323246914270225005
0.312000000000000166,-30.128439326135357135
0.313000000000000167,-29.937308569267731428
0.314000000000000168,-29.749753060817646144
0.315000000000000169,-29.565664679264365589
0.316000000000000170,-29.384929473341067308
0.317000000000000171,-29.207428352028081520
0.318000000000000171,-29.033037754152292820
0.319000000000000172,-28.861630296321823863
0.320000000000000173,-28.693075398105509777
0.321000000000000174,-28.527239883539856180
0.322000000000000175,-28.363988558208500734
0.323000000000000176,-28.203184761292881433
0.324000000000000177,-28.044690892136834748
0.325000000000000178,-27.888368911002675787
0.326000000000000179,-27.734080813822153289
0.327000000000000179,-27.581689080861934826
0.328000000000000180,-27.431057099331560778
0.329000000000000181,-27.282049560061029325
0.330000000000000182,-27.134532828465864895
0.331000000000000183,-26.988375290101117798
0.332000000000000184,-26.843447671180353353
0.333000000000000185,-26.699623334504099859
0.334000000000000186,-26.556778551302624436
0.335000000000000187,-26.414792749552070461
0.336000000000000187,-26.273548739370443883
0.337000000000000188,-26.132932916141434987
0.338000000000000189,-25.992835442049671002
0.339000000000000190,-25.853150406741406186
0.340000000000000191,-25.713775967849180404
0.341000000000000192,-25.574614472140442700
0.342000000000000193,-25.435572558064343696
0.343000000000000194,-25.296561240484354727
0.344000000000000195,-25.157495978390389979
0.345000000000000195,-25.018296726389976925
0.346000000000000196,-24.878887970777512351
0.347000000000000197,-24.739198750979504382
0.348000000000000198,-24.599162667168283036
0.349000000000000199,-24.458717874829364547
0.350000000000000200,-24.317807067058158310
0.351000000000000201,-24.176377445349501727
0.352000000000000202,-24.034380679630427124
0.353000000000000203,-23.891772858270918789
0.354000000000000203,-23.748514428790898023
0.355000000000000204,-23.604570129963729386
0.356000000000000205,-23.459908915997448986
0.357000000000000206,-23.314503873455080907
0.358000000000000207,-23.168332131554233655
0.359000000000000208,-23.021374766465424244
0.360000000000000209,-22.873616700206103047
0.361000000000000210,-22.725046594705311520
0.362000000000000210,-22.575656741591277665
0.363000000000000211,-22.425442948231530949
0.364000000000000212,-22.274404420532295745
0.365000000000000213,-22.122543642981003842
0.366000000000000214,-21.969866256393252968
0.367000000000000215,-21.816380933802609121
0.368000000000000216,-21.662099254909904289
0.369000000000000217,-21.507035579485851429
0.370000000000000218,-21.351206920099947695
0.371000000000000218,-21.194632814526414677
0.372000000000000219,-21.037335198157848026
0.373000000000000220,-20.879338276736302049
0.374000000000000221,-20.720668399691788863
0.375000000000000222,-20.561353934358706397
0.376000000000000223,-20.401425141321876566
0.377000000000000224,-20.240914051125670881
0.378000000000000225,-20.079854342561738179
0.379000000000000226,-19.918281222734030678
0.380000000000000226,-19.756231309083197800
0.381000000000000227,-19.593742513536248850
0.382000000000000228,-19.430853928932680930
0.383000000000000229,-19.267605717863091286
0.384000000000000230,-19.104039004042242311
0.385000000000000231,-18.940195766325633286
0.386000000000000232,-18.776118735465043841
0.387000000000000233,-18.611851293686850539
0.388000000000000234,-18.447437377164909833
0.389000000000000234,-18.282921381449206422
0.390000000000000235,-18.118348069900019226
0.391000000000000236,-17.953762485168823559
0.392000000000000237,-17.789209863756251906
0.393000000000000238,-17.624735553669903965
0.394000000000000239,-17.460384935195431666
0.395000000000000240,-17.296203344787208778
0.396000000000000241,-17.132236002077270598
0.397000000000000242,-16.968527939994238807
0.398000000000000242,-16.805123937977903381
0.399000000000000243,-16.642068458268923337
0.400000000000000244,-16.479405585247512533
0.401000000000000245,-16.317178967790326283
0.402000000000000246,-16.155431764609648582
0.403000000000000247,-15.994206592534547795
0.404000000000000248,-15.833545477690430303
0.405000000000000249,-15.673489809529019823
0.406000000000000250,-15.514080297658001228
0.407000000000000250,-15.355356931416514144
0.408000000000000251,-15.197358942140031246
0.409000000000000252,-15.040124768055900262
0.410000000000000253,-14.883692021748586853
0.411000000000000254,-14.728097460132165253
0.412000000000000255,-14.573376956865757847
0.413000000000000256,-14.419565477146544907
0.414000000000000257,-14.266697054813665346
0.415000000000000258,-14.114804771695725449
0.416000000000000258,-13.963920739133740767
0.417000000000000259,-13.814076081610920710
0.418000000000000260,-13.665300922420495766
0.419000000000000261,-13.517624371302380482
0.420000000000000262,-13.371074513979866794
0.421000000000000263,-13.225678403527336258
0.422000000000000264,-13.081462053500420240
0.423000000000000265,-12.938450432760399522
0.424000000000000266,-12.796667461925386178
0.425000000000000266,-12.656136011381008188
0.426000000000000267,-12.516877900784429301
0.427000000000000268,-12.378913899996257797
0.428000000000000269,-12.242263731375693681
0.429000000000000270,-12.106946073375372208
0.430000000000000271,-11.972978565373267656
0.431000000000000272,-11.840377813680269981
0.432000000000000273,-11.709159398663038232
0.433000000000000274,-11.579337882923153913
0.434000000000000274,-11.450926820474517598
0.435000000000000275,-11.323938766862607253
0.436000000000000276,-11.198385290170261186
0.437000000000000277,-11.074276982855943530
0.438000000000000278,-10.951623474372137679
0.439000000000000279,-10.830433444512589602
0.440000000000000280,-10.710714637438574215
0.441000000000000281,-10.592473876335903427
0.442000000000000282,-10.475717078655696568
0.443000000000000282,-10.360449271893333645
0.444000000000000283,-10.246674609861527117
0.445000000000000284,-10.134396389414815687
0.446000000000000285,-10.023617067584059015
0.447000000000000286,-9.914338279081340133
0.448000000000000287,-9.806560854136401773
0.449000000000000288,-9.700284836627897533
0.450000000000000289,-9.595509502473413832
0.451000000000000290,-9.492233378244076647
0.452000000000000290,-9.390454259970624662
0.453000000000000291,-9.290169232109230180
0.454000000000000292,-9.191374686636670788
0.455000000000000293,-9.094066342245657353
0.456000000000000294,-8.998239263612484606
0.457000000000000295,-8.903887880710303904
0.458000000000000296,-8.811006008142602042
0.459000000000000297,-8.719586864472583798
0.460000000000000298,-8.629623091525399303
0.461000000000000298,-8.541106773641178762
0.462000000000000299,-8.454029456858114244
0.463000000000000300,-8.368382168005641830
0.464000000000000301,-8.284155433689132764
0.465000000000000302,-8.201339299148360240
0.466000000000000303,-8.119923346972941047
0.467000000000000304,-8.039896715659066828
0.468000000000000305,-7.961248117992792750
0.469000000000000306,-7.883965859245843255
0.470000000000000306,-7.808037855171140684
0.471000000000000307,-7.733451649785658688
0.472000000000000308,-7.660194432929607444
0.473000000000000309,-7.588253057591153095
0.474000000000000310,-7.517614056987170557
0.475000000000000311,-7.448263661390901014
0.476000000000000312,-7.380187814698504489
0.477000000000000313,-7.313372190726622257
0.478000000000000314,-7.247802209234391668
0.479000000000000314,-7.183463051663606436
0.480000000000000315,-7.120339676591306954
0.481000000000000316,-7.058416834890024916
0.482000000000000317,-6.997679084591093890
0.483000000000000318,-6.938110805447260887
0.484000000000000319,-6.879696213191207832
0.485000000000000320,-6.822419373487274008
0.486000000000000321,-6.766264215573913887
0.487000000000000322,-6.711214545595098002
0.488000000000000322,-6.657254059619210018
0.489000000000000323,-6.604366356344463895
0.490000000000000324,-6.552534949490206984
0.491000000000000325,-6.501743279873949177
0.492000000000000326,-6.451974727174172308
0.493000000000000327,-6.403212621379549496
0.494000000000000328,-6.355440253925284111
0.495000000000000329,-6.308640888517793144
0.496000000000000330,-6.262797771649120548
0.497000000000000330,-6.217894142802776969
0.498000000000000331,-6.173913244353061103
0.499000000000000332,-6.130838331159987220
0.500000000000000333,-6.088652679862330608
0.501000000000000334,-6.047339597871451033
0.502000000000000335,-6.006882432068737288
0.503000000000000336,-5.967264577209817844
0.504000000000000337,-5.928469484038659587
0.505000000000000338,-5.890480667115080671
0.506000000000000338,-5.853281712359164501
0.507000000000000339,-5.816856284316286541
0.508000000000000340,-5.781188133146609509
0.509000000000000341,-5.746261101342987843
0.510000000000000342,-5.712059130181309285
0.511000000000000343,-5.678566265907486255
0.512000000000000344,-5.645766665665292727
0.513000000000000345,-5.613644603169390734
0.514000000000000346,-5.582184474127979357
0.515000000000000346,-5.551370801419482248
0.516000000000000347,-5.521188240027772309
0.517000000000000348,-5.491621581740614211
0.518000000000000349,-5.462655759615746121
0.519000000000000350,-5.434275852219395908
0.520000000000000351,-5.406467087641848579
0.521000000000000352,-5.379214847294678137
0.522000000000000353,-5.352504669494442702
0.523000000000000353,-5.326322252837475624
0.524000000000000354,-5.300653459370522569
0.525000000000000355,-5.275484317561888403
0.526000000000000356,-5.250801025077833195
0.527000000000000357,-5.226589951368877607
0.528000000000000358,-5.202837640070685055
0.529000000000000359,-5.179530811224154263
0.530000000000000360,-5.156656363319402026
0.531000000000000361,-5.134201375168157888
0.532000000000000361,-5.112153107609167968
0.533000000000000362,-5.090499005051134063
0.534000000000000363,-5.069226696857699110
0.535000000000000364,-5.048323998578842620
0.536000000000000365,-5.027778913033204233
0.537000000000000366,-5.007579631245610230
0.538000000000000367,-4.987714533244131943
0.539000000000000368,-4.968172188720968663
0.540000000000000369,-4.948941357561296606
0.541000000000000369,-4.930010990244295677
0.542000000000000370,-4.911370228120436110
0.543000000000000371,-4.893008403569004905
0.544000000000000372,-4.874915040039965675
0.545000000000000373,-4.857079851983940877
0.546000000000000374,-4.839492744674282143
0.547000000000000375,-4.822143813924938627
0.548000000000000376,-4.805023345707946092
0.549000000000000377,-4.788121815674118764
0.550000000000000377,-4.771429888580584588
0.551000000000000378,-4.754938417628720160
0.552000000000000379,-4.738638443715936788
0.553000000000000380,-4.722521194604729189
0.554000000000000381,-4.706578084012312146
0.555000000000000382,-4.690800710624186465
0.556000000000000383,-4.675180857034731297
0.557000000000000384,-4.659710488618072688
0.558000000000000385,-4.644381752332256141
0.559000000000000385,-4.629186975459722575
0.560000000000000386,-4.614118664287041760
0.561000000000000387,-4.599169502726812020
0.562000000000000388,-4.584332350884495533
0.563000000000000389,-4.569600243572945253
0.564000000000000390,-4.554966388777312858
0.565000000000000391,-4.540424166072972945
0.566000000000000392,-4.525967124998980573
0.567000000000000393,-4.511588983389578367
0.568000000000000393,-4.497283625666161022
0.569000000000000394,-4.483045101092072215
0.570000000000000395,-4.468867621992577810
0.571000000000000396,-4.454745561942135446
0.572000000000000397,-4.440673453921311520
0.573000000000000398,-4.426645988445314650
0.574000000000000399,-4.412658011666306557
0.575000000000000400,-4.398704523451447912
0.576000000000000401,-4.384780675438650910
0.577000000000000401,-4.370881769071902845
0.578000000000000402,-4.357003253618037419
0.579000000000000403,-4.343140724166670630
0.580000000000000404,-4.329289919615101567
0.581000000000000405,-4.315446720639807943
0.582000000000000406,-4.301607147656138608
0.583000000000000407,-4.287767358767817782
0.584000000000000408,-4.273923647707769113
0.585000000000000409,-4.260072441771674434
0.586000000000000409,-4.246210299745778016
0.587000000000000410,-4.232333909830232166
0.588000000000000411,-4.218440087559338636
0.589000000000000412,-4.204525773719966608
0.590000000000000413,-4.190588032269372043
0.591000000000000414,-4.176624048253614774
0.592000000000000415,-4.162631125727701331
0.593000000000000416,-4.148606685678583261
0.594000000000000417,-4.134548263952056324
0.595000000000000417,-4.120453509184573093
0.596000000000000418,-4.106320180740945958
0.597000000000000419,-4.092146146658945938
0.598000000000000420,-4.077929381601567371
0.599000000000000421,-4.063667964817983425
0.600000000000000422,-4.049360078113879879
0.601000000000000423,-4.035004003832060704
0.602000000000000424,-4.020598122844032396
0.603000000000000425,-4.006140912553310507
0.604000000000000425,-3.991630944911127354
0.605000000000000426,-3.977066884445211947
0.606000000000000427,-3.962447486302288269
0.607000000000000428,-3.947771594304809728
