# hydroxyapatite-101-ph14_CS-72545-AC
# h[nm],U(h)[kJ/mol]
0.149999999999999994,121.335129074490509993
0.150999999999999995,118.770067668524660576
0.151999999999999996,116.224882737405465605
0.152999999999999997,113.753479037622611258
0.153999999999999998,111.361249585745483159
0.154999999999999999,109.036516932186785311
0.156000000000000000,106.765157348773229273
0.157000000000000001,104.536212341171491857
0.158000000000000002,102.343050194645726947
0.159000000000000002,100.182632014483004923
0.160000000000000003,98.054224073392958871
0.161000000000000004,95.958190517749358150
0.162000000000000005,93.895106682627016426
0.163000000000000006,91.865229648080003244
0.164000000000000007,89.868270266985149419
0.165000000000000008,87.903380323577238187
0.166000000000000009,85.969269649362558994
0.167000000000000010,84.064383226845194486
0.168000000000000010,82.187087654097780387
0.169000000000000011,80.335834723353713116
0.170000000000000012,78.509285032246381775
0.171000000000000013,76.706385856605649565
0.172000000000000014,74.926405172051687487
0.173000000000000015,73.168928302729554503
0.174000000000000016,71.433825899844691776
0.175000000000000017,69.721202483809094019
0.176000000000000018,68.031334201305824649
0.177000000000000018,66.364603214733321579
0.178000000000000019,64.721434602645331324
0.179000000000000020,63.102240049669816813
0.180000000000000021,61.507371102205546265
0.181000000000000022,59.937083455355534056
0.182000000000000023,58.391512661768352643
0.183000000000000024,56.870660824817548473
0.184000000000000025,55.374393244866880082
0.185000000000000026,53.902443602769018582
0.186000000000000026,52.454426056933584732
0.187000000000000027,51.029852564847239194
0.188000000000000028,49.628153783413537781
0.189000000000000029,48.248702024424616752
0.190000000000000030,46.890834915389326909
0.191000000000000031,45.553878619740110878
0.192000000000000032,44.237169686435535709
0.193000000000000033,42.940074813578206658
0.194000000000000034,41.662008013964339170
0.195000000000000034,40.402444855683768310
0.196000000000000035,39.160933613827204169
0.197000000000000036,37.937103307943168318
0.198000000000000037,36.730668713651695612
0.199000000000000038,35.541432526497921174
0.200000000000000039,34.369284923299417756
0.201000000000000040,33.214200813037514592
0.202000000000000041,32.076235098221566489
0.203000000000000042,30.955516281200107898
0.204000000000000042,29.852238750682069224
0.205000000000000043,28.766654074239728089
0.206000000000000044,27.699061605080789406
0.207000000000000045,26.649798687977501288
0.208000000000000046,25.619230721749964630
0.209000000000000047,24.607741305694581513
0.210000000000000048,23.615722666153011744
0.211000000000000049,22.643566528122828885
0.212000000000000050,21.691655566284367751
0.213000000000000050,20.760355540738732572
0.214000000000000051,19.850008195609035511
0.215000000000000052,18.960924973801734694
0.216000000000000053,18.093381578870484816
0.217000000000000054,17.247613395180060536
0.218000000000000055,16.423811760451513919
0.219000000000000056,15.622121070234459950
0.220000000000000057,14.842636681787260144
0.221000000000000058,14.085403575116862029
0.222000000000000058,13.350415721351035714
0.223000000000000059,12.637616103008181057
0.224000000000000060,11.946897326884416302
0.225000000000000061,11.278102767994136357
0.226000000000000062,10.631028182077553623
0.227000000000000063,10.005423724430617227
0.228000000000000064,9.400996314037376678
0.229000000000000065,8.817412284015826884
0.230000000000000066,8.254300262071543770
0.231000000000000066,7.711254227839781095
0.232000000000000067,7.187836697560371135
0.233000000000000068,6.683581990352967850
0.234000000000000069,6.197999534344392991
0.235000000000000070,5.730577174956766662
0.236000000000000071,5.280784451722448480
0.237000000000000072,4.848075813985298410
0.238000000000000073,4.431893749729076681
0.239000000000000073,4.031671805501599870
0.240000000000000074,3.646837478942896560
0.241000000000000075,3.276814968758329005
0.242000000000000076,2.921027770082142094
0.243000000000000077,2.578901106044695357
0.244000000000000078,2.249864188981875568
0.245000000000000079,1.933352307106706247
0.246000000000000080,1.628808734604125119
0.247000000000000081,1.335686465014636726
0.248000000000000081,1.053449769451388462
0.249000000000000082,0.781575582656586443
0.250000000000000111,0.519554721158768551
0.251000000000000112,0.266892938856183370
0.252000000000000113,0.023111826233930266
0.253000000000000114,-0.212250439858527595
0.254000000000000115,-0.439638488378993109
0.255000000000000115,-0.659479280295045101
0.256000000000000116,-0.872181760598247147
0.257000000000000117,-1.078136627721418161
0.258000000000000118,-1.277716211860200790
0.259000000000000119,-1.471274453698718121
0.260000000000000120,-1.659146975113792832
0.261000000000000121,-1.841651233572592528
0.262000000000000122,-2.019086752136165508
0.263000000000000123,-2.191735417225107785
0.264000000000000123,-2.359861836587384243
0.265000000000000124,-2.523713750222407626
0.266000000000000125,-2.683522487355098463
0.267000000000000126,-2.839503462910522025
0.268000000000000127,-2.991856707310386554
0.269000000000000128,-3.140767423790260970
0.270000000000000129,-3.286406567818049407
0.271000000000000130,-3.428931443575662374
0.272000000000000131,-3.568486312843311303
0.273000000000000131,-3.705203011997459051
0.274000000000000132,-3.839201573195818007
0.275000000000000133,-3.970590846175166000
0.276000000000000134,-4.099469117427188891
0.277000000000000135,-4.225924723843454522
0.278000000000000136,-4.350036658232551368
0.279000000000000137,-4.471875164408208647
0.280000000000000138,-4.591502319827546863
0.281000000000000139,-4.708972604022946484
0.282000000000000139,-4.824333451318634225
0.283000000000000140,-4.937625786554928453
0.284000000000000141,-5.048884542758445448
0.285000000000000142,-5.158139159896459880
0.286000000000000143,-5.265414064037841513
0.287000000000000144,-5.370729126412149057
0.288000000000000145,-5.474100102013781388
0.289000000000000146,-5.575539047538324411
0.290000000000000147,-5.675054718566585166
0.291000000000000147,-5.772652946026165743
0.292000000000000148,-5.868336992063936997
0.293000000000000149,-5.962107885553871611
0.294000000000000150,-6.053964737545962649
0.295000000000000151,-6.143905037032730831
0.296000000000000152,-6.231924927471315989
0.297000000000000153,-6.318019464552079967
0.298000000000000154,-6.402182855749247281
0.299000000000000155,-6.484408682226527887
0.300000000000000155,-6.564690103700963064
0.301000000000000156,-6.643020046892212704
0.302000000000000157,-6.719391378203115828
0.303000000000000158,-6.793797061290021588
0.304000000000000159,-6.866230300190070857
0.305000000000000160,-6.936684668676328158
0.306000000000000161,-7.005154226512049220
0.307000000000000162,-7.071633623272042257
0.308000000000000163,-7.136118190392778615
0.309000000000000163,-7.198604022103912925
0.310000000000000164,-7.259088045882663209
0.311000000000000165,-7.317568083059013517
0.312000000000000166,-7.374042900184734961
0.313000000000000167,-7.428512251762616536
0.314000000000000168,-7.480976914914483800
0.315000000000000169,-7.531438716547823375
0.316000000000000170,-7.579900553561361498
0.317000000000000171,-7.626366406609564663
0.318000000000000171,-7.670841347925460241
0.319000000000000172,-7.713331543680472357
0.320000000000000173,-7.753844251338573024
0.321000000000000174,-7.792387812441179840
0.322000000000000175,-7.828971641238183565
0.323000000000000176,-7.863606209559653948
0.324000000000000177,-7.896303028302201987
0.325000000000000178,-7.927074625883696157
0.326000000000000179,-7.955934524000442210
0.327000000000000179,-7.982897211001224846
0.328000000000000180,-8.007978113173995993
0.329000000000000181,-8.031193564222743220
0.330000000000000182,-8.052560773193885524
0.331000000000000183,-8.072097791095092845
0.332000000000000184,-8.089823476432176363
0.333000000000000185,-8.105757459874311621
0.334000000000000186,-8.119920108242396850
0.335000000000000187,-8.132332488000633575
0.336000000000000187,-8.143016328417804317
0.337000000000000188,-8.151993984550847117
0.338000000000000189,-8.159288400191222479
0.339000000000000190,-8.164923070902172952
0.340000000000000191,-8.168922007263429208
0.341000000000000192,-8.171309698429601198
0.342000000000000193,-8.172111076097616333
0.343000000000000194,-8.171351478969501869
0.344000000000000195,-8.169056617787163077
0.345000000000000195,-8.165252541007886222
0.346000000000000196,-8.159965601180646289
0.347000000000000197,-8.153222422076307652
0.348000000000000198,-8.145049866617503298
0.349000000000000199,-8.135475005647517577
0.350000000000000200,-8.124525087571472071
0.351000000000000201,-8.112227508897351669
0.352000000000000202,-8.098609785699222741
0.353000000000000203,-8.083699526020186710
0.354000000000000203,-8.067524403228111041
0.355000000000000204,-8.050112130332934157
0.356000000000000205,-8.031490435270830730
0.357000000000000206,-8.011687037156956848
0.358000000000000207,-7.990729623505106183
0.359000000000000208,-7.968645828410155119
0.360000000000000209,-7.945463211686370819
0.361000000000000210,-7.921209238952195975
0.362000000000000210,-7.895911262650310292
0.363000000000000211,-7.869596503989583880
0.364000000000000212,-7.842292035794240057
0.365000000000000213,-7.814024766243607090
0.366000000000000214,-7.784821423485027481
0.367000000000000215,-7.754708541100979957
0.368000000000000216,-7.723712444410848477
0.369000000000000217,-7.691859237586633924
0.370000000000000218,-7.659174791561552453
0.371000000000000218,-7.625684732709610003
0.372000000000000219,-7.591414432274030233
0.373000000000000220,-7.556388996522061419
0.374000000000000221,-7.520633257603297928
0.375000000000000222,-7.484171765088670547
0.376000000000000223,-7.447028778167225305
0.377000000000000224,-7.409228258477659423
0.378000000000000225,-7.370793863551845959
0.379000000000000226,-7.331748940847577778
0.380000000000000226,-7.292116522348183416
0.381000000000000227,-7.251919319706550127
0.382000000000000228,-7.211179719911828379
0.383000000000000229,-7.169919781457108066
0.384000000000000230,-7.128161230986728825
0.385000000000000231,-7.085925460402641818
0.386000000000000232,-7.043233524409117763
0.387000000000000233,-7.000106138476043682
0.388000000000000234,-6.956563677201145879
0.389000000000000234,-6.912626173052309753
0.390000000000000235,-6.868313315471231917
0.391000000000000236,-6.823644450320631272
0.392000000000000237,-6.778638579657290109
0.393000000000000238,-6.733314361814146665
0.394000000000000239,-6.687690111774756474
0.395000000000000240,-6.641783801824365341
0.396000000000000241,-6.595613062462087228
0.397000000000000242,-6.549195183559213262
0.398000000000000242,-6.502547115749480966
0.399000000000000243,-6.455685472037179906
0.400000000000000244,-6.408626529609880329
0.401000000000000245,-6.361386231842934613
0.402000000000000246,-6.313980190483285959
0.403000000000000247,-6.266423688000733350
0.404000000000000248,-6.218731680095291203
0.405000000000000249,-6.170918798349663170
0.406000000000000250,-6.122999353016281177
0.407000000000000250,-6.074987335929000309
0.408000000000000251,-6.026896423529682245
0.409000000000000252,-5.978739980000630894
0.410000000000000253,-5.930531060493978046
0.411000000000000254,-5.882282414449726993
0.412000000000000255,-5.834006488994421424
0.413000000000000256,-5.785715432412901649
0.414000000000000257,-5.737421097685747817
0.415000000000000258,-5.689135046085741720
0.416000000000000258,-5.640868550826589001
0.417000000000000259,-5.592632600757810657
0.418000000000000260,-5.544437904099871695
0.419000000000000261,-5.496294892213912320
0.420000000000000262,-5.448213723400835207
0.421000000000000263,-5.400204286724754610
0.422000000000000264,-5.352276205855966751
0.423000000000000265,-5.304438842929044995
0.424000000000000266,-5.256701302411885379
0.425000000000000266,-5.209072434981583122
0.426000000000000267,-5.161560841403505684
0.427000000000000268,-5.114174876410008785
0.428000000000000269,-5.066922652575439834
0.429000000000000270,-5.019812044184424948
0.430000000000000271,-4.972850691090395792
0.431000000000000272,-4.926046002561742299
0.432000000000000273,-4.879405161112986278
0.433000000000000274,-4.832935126318631092
0.434000000000000274,-4.786642638607431444
0.435000000000000275,-4.740534223035068884
0.436000000000000276,-4.694616193033319007
0.437000000000000277,-4.648894654133873594
0.438000000000000278,-4.603375507665260713
0.439000000000000279,-4.558064454421325351
0.440000000000000280,-4.512966998299832611
0.441000000000000281,-4.468088449909955351
0.442000000000000282,-4.423433930147519177
0.443000000000000282,-4.379008373736805737
0.444000000000000283,-4.334816532738103412
0.445000000000000284,-4.290862980020010653
0.446000000000000285,-4.247152112695703252
0.447000000000000286,-4.203688155522584680
0.448000000000000287,-4.160475164264473946
0.449000000000000288,-4.117517029015992591
0.450000000000000289,-4.074817477488480222
0.451000000000000290,-4.032380078257117084
0.452000000000000290,-3.990208243968878854
0.453000000000000291,-3.948305234510947948
0.454000000000000292,-3.906674160139432583
0.455000000000000293,-3.865317984568077403
0.456000000000000294,-3.824239528016919909
0.457000000000000295,-3.783441470220693326
0.458000000000000296,-3.742926353396954564
0.459000000000000297,-3.702696585173907984
0.460000000000000298,-3.662754441477885425
0.461000000000000298,-3.623102069380589541
0.462000000000000299,-3.583741489906135058
0.463000000000000300,-3.544674600797953268
0.464000000000000301,-3.505903179245765777
0.465000000000000302,-3.467428884572743897
0.466000000000000303,-3.429253260883003751
0.467000000000000304,-3.391377739669663605
0.468000000000000305,-3.353803642383707651
0.469000000000000306,-3.316532182963820130
0.470000000000000306,-3.279564470327555714
0.471000000000000307,-3.242901510823963385
0.472000000000000308,-3.206544210648123450
0.473000000000000309,-3.170493378217735803
0.474000000000000310,-3.134749726512186641
0.475000000000000311,-3.099313875374304583
0.476000000000000312,-3.064186353775297356
0.477000000000000313,-3.029367602042997376
0.478000000000000314,-2.994857974053923400
0.479000000000000314,-2.960657739389471743
0.480000000000000315,-2.926767085456531081
0.481000000000000316,-2.893186119572995096
0.482000000000000317,-2.859914871018433669
0.483000000000000318,-2.826953293050377347
0.484000000000000319,-2.794301264886524194
0.485000000000000320,-2.761958593653323746
0.486000000000000321,-2.729925016301252505
0.487000000000000322,-2.698200201487199745
0.488000000000000322,-2.666783751424303794
0.489000000000000323,-2.635675203699716196
0.490000000000000324,-2.604874033060581517
0.491000000000000325,-2.574379653168680004
0.492000000000000326,-2.544191418324062148
0.493000000000000327,-2.514308625158144572
0.494000000000000328,-2.484730514296562109
0.495000000000000329,-2.455456271992234374
0.496000000000000330,-2.426485031728956798
0.497000000000000330,-2.397815875795979768
0.498000000000000331,-2.369447836833848964
0.499000000000000332,-2.341379899352012295
0.500000000000000333,-2.313611001218453644
0.501000000000000334,-2.286140035121778435
0.502000000000000335,-2.258965850006115605
0.503000000000000336,-2.232087252479217909
0.504000000000000337,-2.205503008194082959
0.505000000000000338,-2.179211843204497345
0.506000000000000338,-2.153212445294847122
0.507000000000000339,-2.127503465284547701
0.508000000000000340,-2.102083518307434229
0.509000000000000341,-2.076951185066521877
0.510000000000000342,-2.052105013064387862
0.511000000000000343,-2.027543517809603735
0.512000000000000344,-2.003265183999505261
0.513000000000000345,-1.979268466679653171
0.514000000000000346,-1.955551792380352483
0.515000000000000346,-1.932113560230483085
0.516000000000000347,-1.908952143049032601
0.517000000000000348,-1.886065888414674374
0.518000000000000349,-1.863453119713595285
0.519000000000000350,-1.841112137166044604
0.520000000000000351,-1.819041218831789042
0.521000000000000352,-1.797238621594873464
0.522000000000000353,-1.775702582127931972
0.523000000000000353,-1.754431317836375515
0.524000000000000354,-1.733423027782792669
0.525000000000000355,-1.712675893591782739
0.526000000000000356,-1.692188080335578659
0.527000000000000357,-1.671957737400750599
0.528000000000000358,-1.651982999336202962
0.529000000000000359,-1.632261986682860933
0.530000000000000360,-1.612792806785218191
0.531000000000000361,-1.593573554585114405
0.532000000000000361,-1.574602313397933440
0.533000000000000362,-1.555877155671572698
0.534000000000000363,-1.537396143728389841
0.535000000000000364,-1.519157330490416902
0.536000000000000365,-1.501158760188108676
0.537000000000000366,-1.483398469052879864
0.538000000000000367,-1.465874485993653886
0.539000000000000368,-1.448584833257755333
0.540000000000000369,-1.431527527076289497
0.541000000000000369,-1.414700578294358246
0.542000000000000370,-1.398101992986279907
0.543000000000000371,-1.381729773056082911
0.544000000000000372,-1.365581916823531916
0.545000000000000373,-1.349656419595879786
0.546000000000000374,-1.333951274225606998
0.547000000000000375,-1.318464471654351655
0.548000000000000376,-1.303194001443308325
0.549000000000000377,-1.288137852290256458
0.550000000000000377,-1.273294012533468855
0.551000000000000378,-1.258660470642730456
0.552000000000000379,-1.244235215697664376
0.553000000000000380,-1.230016237853586158
0.554000000000000381,-1.216001528795079389
0.555000000000000382,-1.202189082177556489
0.556000000000000383,-1.188576894056909028
0.557000000000000384,-1.175162963307579300
0.558000000000000385,-1.161945292029123999
0.559000000000000385,-1.148921885941573517
0.560000000000000386,-1.136090754769712330
0.561000000000000387,-1.123449912616511392
0.562000000000000388,-1.110997378325885521
0.563000000000000389,-1.098731175834972484
0.564000000000000390,-1.086649334516110343
0.565000000000000391,-1.074749889508710865
0.566000000000000392,-1.063030882041189340
0.567000000000000393,-1.051490359743162184
0.568000000000000393,-1.040126376948040221
0.569000000000000394,-1.028936994986245468
0.570000000000000395,-1.017920282469186644
0.571000000000000396,-1.007074315564163491
0.572000000000000397,-0.996397178260412075
0.573000000000000398,-0.985886962626377206
0.574000000000000399,-0.975541769058467345
0.575000000000000400,-0.965359706521366712
0.576000000000000401,-0.955338892780119409
0.577000000000000401,-0.945477454624142011
0.578000000000000402,-0.935773528083281958
0.579000000000000403,-0.926225258636086957
0.580000000000000404,-0.916830801410483121
0.581000000000000405,-0.907588321376937124
0.582000000000000406,-0.898495993534300430
0.583000000000000407,-0.889552003088457277
0.584000000000000408,-0.880754545623934959
0.585000000000000409,-0.872101827268594754
0.586000000000000409,-0.863592064851557595
0.587000000000000410,-0.855223486054519255
0.588000000000000411,-0.846994329556532755
0.589000000000000412,-0.838902845172463940
0.590000000000000413,-0.830947293985189850
0.591000000000000414,-0.823125948471703950
0.592000000000000415,-0.815437092623249926
0.593000000000000416,-0.807879022059598162
0.594000000000000417,-0.800450044137585359
0.595000000000000417,-0.793148478054095052
0.596000000000000418,-0.785972654943485782
0.597000000000000419,-0.778920917969720406
0.598000000000000420,-0.771991622413193856
0.599000000000000421,-0.765183135752464771
0.600000000000000422,-0.758493837740946808
0.601000000000000423,-0.751922120478691669
0.602000000000000424,-0.745466388479378517
0.603000000000000425,-0.739125058732620133
0.604000000000000425,-0.732896560761664095
0.605000000000000426,-0.726779336676622201
0.606000000000000427,-0.720771841223360132
0.607000000000000428,-0.714872541828024843
0.608000000000000429,-0.709079918637520734
0.609000000000000430,-0.703392464555780750
0.610000000000000431,-0.697808685276167795
0.611000000000000432,-0.692327099309932192
0.612000000000000433,-0.686946238010883392
0.613000000000000433,-0.681664645596401386
