# hydroxyapatite-101-ph14_BSAI13
# h[nm],U(h)[kJ/mol]
0.149999999999999994,103.506711338589369120
0.150999999999999995,102.063424952536053070
0.151999999999999996,100.044840128487379616
0.152999999999999997,97.937453553474355772
0.153999999999999998,95.917075283082922965
0.154999999999999999,94.015102774818146258
0.156000000000000000,92.207317772257425759
0.157000000000000001,90.457535940073199754
0.158000000000000002,88.736088474459577924
0.159000000000000002,87.025160621434366703
0.160000000000000003,85.317974940845459741
0.161000000000000004,83.615683975002099260
0.162000000000000005,81.923952531329092608
0.163000000000000006,80.250113828963975493
0.164000000000000007,78.601179298795074146
0.165000000000000008,76.982675507934928305
0.166000000000000009,75.398149623819676890
0.167000000000000010,73.849149263923720810
0.168000000000000010,72.335495934832309217
0.169000000000000011,70.855705495320620457
0.170000000000000012,69.407448482013819557
0.171000000000000013,67.987979645268694640
0.172000000000000014,66.594496148287262827
0.173000000000000015,65.224406668869320924
0.174000000000000016,63.875509560185925295
0.175000000000000017,62.546088343874338022
0.176000000000000018,61.234938382340814655
0.177000000000000018,59.941340816958145865
0.178000000000000019,58.664999814618298046
0.179000000000000020,57.405957686533909623
0.180000000000000021,56.164500180189634193
0.181000000000000022,54.941061668914699112
0.182000000000000023,53.736137395206149847
0.183000000000000024,52.550207566680661841
0.184000000000000025,51.383676070644050071
0.185000000000000026,50.236824913099681567
0.186000000000000026,49.109784204352955328
0.187000000000000027,48.002516581383112282
0.188000000000000028,46.914814335460945927
0.189000000000000029,45.846307152921504269
0.190000000000000030,44.796478226669158573
0.191000000000000031,43.764686507294896956
0.192000000000000032,42.750192991712765433
0.193000000000000033,41.752189155992432745
0.194000000000000034,40.769825895977859886
0.195000000000000034,39.802241618982655780
0.196000000000000035,38.848588412786305923
0.197000000000000036,37.908055489911085090
0.198000000000000037,36.979889355719038235
0.199000000000000038,36.063410371876599925
0.200000000000000039,35.158025578756586071
0.201000000000000040,34.263237800235948782
0.202000000000000041,33.378651182658174434
0.203000000000000042,32.503973418238757631
0.204000000000000042,31.639014974485185405
0.205000000000000043,30.783685698357697191
0.206000000000000044,29.937989190211908408
0.207000000000000045,29.102015351381560038
0.208000000000000046,28.275931503804212497
0.209000000000000047,27.459972463386996822
0.210000000000000048,26.654429923599487040
0.211000000000000049,25.859641474508805459
0.212000000000000050,25.075979547248390844
0.213000000000000050,24.303840536537222761
0.214000000000000051,23.543634315819296887
0.215000000000000052,22.795774322075654794
0.216000000000000053,22.060668351307619162
0.217000000000000054,21.338710171803448645
0.218000000000000055,20.630272031082242279
0.219000000000000056,19.935698104185899382
0.220000000000000057,19.255298905940090748
0.221000000000000058,18.589346667996370144
0.222000000000000058,17.938071662856039268
0.223000000000000059,17.301659441562136976
0.224000000000000060,16.680248939155614352
0.225000000000000061,16.073931392124002571
0.226000000000000062,15.482750004690529977
0.227000000000000063,14.906700295651830857
0.228000000000000064,14.345731054318822117
0.229000000000000065,13.799745832693634640
0.230000000000000066,13.268604901083046244
0.231000000000000066,12.752127595667682058
0.232000000000000067,12.250094988900119830
0.233000000000000068,11.762252816788699050
0.234000000000000069,11.288314600954128863
0.235000000000000070,10.827964907656291160
0.236000000000000071,10.380862690632124412
0.237000000000000072,9.946644669432169295
0.238000000000000073,9.524928699883570715
0.239000000000000073,9.115317098245842686
0.240000000000000074,8.717399885481480482
0.241000000000000075,8.330757922775514857
0.242000000000000076,7.954965913950644563
0.243000000000000077,7.589595254699543325
0.244000000000000078,7.234216712562584917
0.245000000000000079,6.888402925296976953
0.246000000000000080,6.551730708699347261
0.247000000000000081,6.223783168050752934
0.248000000000000081,5.904151610152466034
0.249000000000000082,5.592437255415307895
0.250000000000000111,5.288252751663231166
0.251000000000000112,4.991223493225636076
0.252000000000000113,4.700988750534001781
0.253000000000000114,4.417202616825832706
0.254000000000000115,4.139534779704969303
0.255000000000000115,3.867671126233974910
0.256000000000000116,3.601314190956200978
0.257000000000000117,3.340183456782284566
0.258000000000000118,3.084015519045735676
0.259000000000000119,2.832564123251624100
0.260000000000000120,2.585600087129054092
0.261000000000000121,2.342911117567967327
0.262000000000000122,2.104301532888483539
0.263000000000000123,1.869591900672274765
0.264000000000000123,1.638618601091813121
0.265000000000000124,1.411233325319373622
0.266000000000000125,1.187302518192761003
0.267000000000000126,0.966706773870901315
0.268000000000000127,0.749340192737784294
0.269000000000000128,0.535109707317585892
0.270000000000000129,0.323934384453543500
0.271000000000000130,0.115744710485378377
0.272000000000000131,-0.089518134358679197
0.273000000000000131,-0.291903006655039488
0.274000000000000132,-0.491449530370204002
0.275000000000000133,-0.688188822641666587
0.276000000000000134,-0.882144210538525875
0.277000000000000135,-1.073331935049332886
0.278000000000000136,-1.261761838989409412
0.279000000000000137,-1.447438035942795853
0.280000000000000138,-1.630359557754697875
0.281000000000000139,-1.810520978468557640
0.282000000000000139,-1.987913012955689895
0.283000000000000140,-2.162523088816157291
0.284000000000000141,-2.334335890436026961
0.285000000000000142,-2.503333874369286782
0.286000000000000143,-2.669497755472723277
0.287000000000000144,-2.832806963459195693
0.288000000000000145,-2.993240069750728427
0.289000000000000146,-3.150775184706520626
0.290000000000000147,-3.305390325476009306
0.291000000000000147,-3.457063754881304796
0.292000000000000148,-3.605774291870676329
0.293000000000000149,-3.751501594203503487
0.294000000000000150,-3.894226414130811609
0.295000000000000151,-4.033930827923171591
0.296000000000000152,-4.170598440171664478
0.297000000000000153,-4.304214563848255182
0.298000000000000154,-4.434766377160491047
0.299000000000000155,-4.562243058272805740
0.300000000000000155,-4.686635898993882776
0.301000000000000156,-4.807938398547308978
0.302000000000000157,-4.926146338552458204
0.303000000000000158,-5.041257840344005814
0.304000000000000159,-5.153273405753934000
0.305000000000000160,-5.262195942468538945
0.306000000000000161,-5.368030775056826798
0.307000000000000162,-5.470785642745672916
0.308000000000000163,-5.570470684991861710
0.309000000000000163,-5.667098415872696471
0.310000000000000164,-5.760683688285432424
0.311000000000000165,-5.851243648911591322
0.312000000000000166,-5.938797684866529814
0.313000000000000167,-6.023367362916931533
0.314000000000000168,-6.104976362110226873
0.315000000000000169,-6.183650400620331666
0.316000000000000170,-6.259417157574140411
0.317000000000000171,-6.332306190582680294
0.318000000000000171,-6.402348849660478791
0.319000000000000172,-6.469578188176863698
0.320000000000000173,-6.534028871442854047
0.321000000000000174,-6.595737083498425690
0.322000000000000175,-6.654740432626605084
0.323000000000000176,-6.711077856083366378
0.324000000000000177,-6.764789524495928852
0.325000000000000178,-6.815916746346526445
0.326000000000000179,-6.864501872924994252
0.327000000000000179,-6.910588204100053034
0.328000000000000180,-6.954219895227923942
0.329000000000000181,-6.995441865486566435
0.330000000000000182,-7.034299707894597020
0.331000000000000183,-7.070839601246770023
0.332000000000000184,-7.105108224171303277
0.333000000000000185,-7.137152671489731759
0.334000000000000186,-7.167020373036374181
0.335000000000000187,-7.194759015072347275
0.336000000000000187,-7.220416464408431878
0.337000000000000188,-7.244040695331136703
0.338000000000000189,-7.265679719408636217
0.339000000000000190,-7.285381518235828580
0.340000000000000191,-7.303193979161973104
0.341000000000000192,-7.319164834030013722
0.342000000000000193,-7.333341600942764771
0.343000000000000194,-7.345771529059037519
0.344000000000000195,-7.356501546410973091
0.345000000000000195,-7.365578210723919383
0.346000000000000196,-7.373047663210144265
0.347000000000000197,-7.378955585299550535
0.348000000000000198,-7.383347158262568932
0.349000000000000199,-7.386267025673527442
0.350000000000000200,-7.387759258656775962
0.351000000000000201,-7.387867323852231216
0.352000000000000202,-7.386634054032390040
0.353000000000000203,-7.384101621298714058
0.354000000000000203,-7.380311512781875471
0.355000000000000204,-7.375304508767174028
0.356000000000000205,-7.369120663164349772
0.357000000000000206,-7.361799286238955631
0.358000000000000207,-7.353378929520738794
0.359000000000000208,-7.343897372803925627
0.360000000000000209,-7.333391613153222188
0.361000000000000210,-7.321897855829183399
0.362000000000000210,-7.309451507046683894
0.363000000000000211,-7.296087168480380747
0.364000000000000212,-7.281838633431858554
0.365000000000000213,-7.266738884573735291
0.366000000000000214,-7.250820093187276605
0.367000000000000215,-7.234113619811142648
0.368000000000000216,-7.216650016220524044
0.369000000000000217,-7.198459028657230974
0.370000000000000218,-7.179569602233354608
0.371000000000000218,-7.160009886432632698
0.372000000000000219,-7.139807241635857338
0.373000000000000220,-7.118988246598592973
0.374000000000000221,-7.097578706811569660
0.375000000000000222,-7.075603663676242050
0.376000000000000223,-7.053087404430442575
0.377000000000000224,-7.030053472760988242
0.378000000000000225,-7.006524680042663711
0.379000000000000226,-6.982523117145026603
0.380000000000000226,-6.958070166751179286
0.381000000000000227,-6.933186516134372646
0.382000000000000228,-6.907892170341233040
0.383000000000000229,-6.882206465732172873
0.384000000000000230,-6.856148083832019680
0.385000000000000231,-6.829735065446198128
0.386000000000000232,-6.802984824999754210
0.387000000000000233,-6.775914165058902761
0.388000000000000234,-6.748539290996657947
0.389000000000000234,-6.720875825766515099
0.390000000000000235,-6.692938824749721682
0.391000000000000236,-6.664742790644083925
0.392000000000000237,-6.636301688363862361
0.393000000000000238,-6.607628959922403844
0.394000000000000239,-6.578737539270727908
0.395000000000000240,-6.549639867067318377
0.396000000000000241,-6.520347905355864171
0.397000000000000242,-6.490873152129336354
0.398000000000000242,-6.461226655760600401
0.399000000000000243,-6.431419029280948330
0.400000000000000244,-6.401460464489652225
0.401000000000000245,-6.371360745879024456
0.402000000000000246,-6.341129264360644058
0.403000000000000247,-6.310775030779944395
0.404000000000000248,-6.280306689207401760
0.405000000000000249,-6.249732529995879915
0.406000000000000250,-6.219060502594690121
0.407000000000000250,-6.188298228112141253
0.408000000000000251,-6.157453011619232974
0.409000000000000252,-6.126531854188234760
0.410000000000000253,-6.095541464660728437
0.411000000000000254,-6.064488271140608511
0.412000000000000255,-6.033378432208325037
0.413000000000000256,-6.002217847853517085
0.414000000000000257,-5.971012170123729312
0.415000000000000258,-5.939766813487841191
0.416000000000000258,-5.908486964913261197
0.417000000000000259,-5.877177593656704779
0.418000000000000260,-5.845843460768809230
0.419000000000000261,-5.814489128313501176
0.420000000000000262,-5.783118968303397445
0.421000000000000263,-5.751737171353101807
0.422000000000000264,-5.720347755052515026
0.423000000000000265,-5.688954572062847603
0.424000000000000266,-5.657561317938339940
0.425000000000000266,-5.626171538676834061
0.426000000000000267,-5.594788638002967218
0.427000000000000268,-5.563415884387773680
0.428000000000000269,-5.532056417808804305
0.429000000000000270,-5.500713256255203021
0.430000000000000271,-5.469389301982161555
0.431000000000000272,-5.438087347519616088
0.432000000000000273,-5.406810081439936688
0.433000000000000274,-5.375560093889769853
0.434000000000000274,-5.344339881891057686
0.435000000000000275,-5.313151854416538811
0.436000000000000276,-5.281998337245083164
0.437000000000000277,-5.250881577602158679
0.438000000000000278,-5.219803748590992498
0.439000000000000279,-5.188766953419864159
0.440000000000000280,-5.157773229431022344
0.441000000000000281,-5.126824551936778107
0.442000000000000282,-5.095922837868364752
0.443000000000000282,-5.065069949242955616
0.444000000000000283,-5.034267696454486796
0.445000000000000284,-5.003517841393669840
0.446000000000000285,-4.972822100402639833
0.447000000000000286,-4.942182147069745568
0.448000000000000287,-4.911599614869639474
0.449000000000000288,-4.881076099654158895
0.450000000000000289,-4.850613161999069334
0.451000000000000290,-4.820212329411896590
0.452000000000000290,-4.789875098405946829
0.453000000000000291,-4.759602936445435084
0.454000000000000292,-4.729397283766740401
0.455000000000000293,-4.699259555080527839
0.456000000000000294,-4.669191141159539704
0.457000000000000295,-4.639193410316693189
0.458000000000000296,-4.609267709777984834
0.459000000000000297,-4.579415366954743050
0.460000000000000298,-4.549637690619488417
0.461000000000000298,-4.519935971989737844
0.462000000000000299,-4.490311485723853302
0.463000000000000300,-4.460765490832959479
0.464000000000000301,-4.431299231512950243
0.465000000000000302,-4.401913937900377327
0.466000000000000303,-4.372610826755904512
0.467000000000000304,-4.343391102079058541
0.468000000000000305,-4.314255955657719355
0.469000000000000306,-4.285206567555793100
0.470000000000000306,-4.256244106542432348
0.471000000000000307,-4.227369730465888154
0.472000000000000308,-4.198584586575278443
0.473000000000000309,-4.169889811793130896
0.474000000000000310,-4.141286532941702347
0.475000000000000311,-4.112775866925813872
0.476000000000000312,-4.084358920875034826
0.477000000000000313,-4.056036792247664557
0.478000000000000314,-4.027810568899170107
0.479000000000000314,-3.999681329117472650
0.480000000000000315,-3.971650141627360853
0.481000000000000316,-3.943718065566400810
0.482000000000000317,-3.915886150434351176
0.483000000000000318,-3.888155436018307487
0.484000000000000319,-3.860526952295437297
0.485000000000000320,-3.833001719315307643
0.486000000000000321,-3.805580747063583402
0.487000000000000322,-3.778265035308850717
0.488000000000000322,-3.751055573434211254
0.489000000000000323,-3.723953340255317990
0.490000000000000324,-3.696959303826283794
0.491000000000000325,-3.670074421234989615
0.492000000000000326,-3.643299638389080997
0.493000000000000327,-3.616635889794094005
0.494000000000000328,-3.590084098324827888
0.495000000000000329,-3.563645174991253661
0.496000000000000330,-3.537320018699998680
0.497000000000000330,-3.511109516012563603
0.498000000000000331,-3.485014540901142599
0.499000000000000332,-3.459035954503162369
0.500000000000000333,-3.433174604875306013
0.501000000000000334,-3.407431326747899281
0.502000000000000335,-3.381806941280475876
0.503000000000000336,-3.356302255819263003
0.504000000000000337,-3.330918063657235528
0.505000000000000338,-3.305655143797453288
0.506000000000000338,-3.280514260720233555
0.507000000000000339,-3.255496164154767058
0.508000000000000340,-3.230601588855642969
0.509000000000000341,-3.205831254384873041
0.510000000000000342,-3.181185864899710225
0.511000000000000343,-3.156666108946823535
0.512000000000000344,-3.132272659263089842
0.513000000000000345,-3.108006172583409388
0.514000000000000346,-3.083867289455858973
0.515000000000000346,-3.059856634064407999
0.516000000000000347,-3.035974814059489990
0.517000000000000348,-3.012222420396691636
0.518000000000000349,-2.988600027183632157
0.519000000000000350,-2.965108191535367421
0.520000000000000351,-2.941747453438312565
0.521000000000000352,-2.918518335622937165
0.522000000000000353,-2.895421343445232942
0.523000000000000353,-2.872456964777089006
0.524000000000000354,-2.849625669905651915
0.525000000000000355,-2.826927911441651453
0.526000000000000356,-2.804364124236771172
0.527000000000000357,-2.781934725310076573
0.528000000000000358,-2.759640113783413895
0.529000000000000359,-2.737480670825893636
0.530000000000000360,-2.715456759607276727
0.531000000000000361,-2.693568725260320651
0.532000000000000361,-2.671816894851968271
0.533000000000000362,-2.650201577363334060
0.534000000000000363,-2.628723063678374050
0.535000000000000364,-2.607381626581174228
0.536000000000000365,-2.586177520761732573
0.537000000000000366,-2.565110982830144160
0.538000000000000367,-2.544182231339007227
0.539000000000000368,-2.523391466814037809
0.540000000000000369,-2.502738871792604236
0.541000000000000369,-2.482224610870191750
0.542000000000000370,-2.461848830754524098
0.543000000000000371,-2.441611660327261735
0.544000000000000372,-2.421513210713091446
0.545000000000000373,-2.401553575356068393
0.546000000000000374,-2.381732830102983645
0.547000000000000375,-2.362051033293653735
0.548000000000000376,-2.342508225857939053
0.549000000000000377,-2.323104431419294791
0.550000000000000377,-2.303839656404680802
0.551000000000000378,-2.284713890160668281
0.552000000000000379,-2.265727105075556747
0.553000000000000380,-2.246879256707301042
0.554000000000000381,-2.228170283917056516
0.555000000000000382,-2.209600109008237112
0.556000000000000383,-2.191168637870748004
0.557000000000000384,-2.172875760130389189
0.558000000000000385,-2.154721349303082345
0.559000000000000385,-2.136705262953856099
0.560000000000000386,-2.118827342860325480
0.561000000000000387,-2.101087415180539875
0.562000000000000388,-2.083485290624960573
0.563000000000000389,-2.066020764632443552
0.564000000000000390,-2.048693617550009005
0.565000000000000391,-2.031503614816228875
0.566000000000000392,-2.014450507148052072
0.567000000000000393,-1.997534030730928833
0.568000000000000393,-1.980753907411990422
0.569000000000000394,-1.964109844896170909
0.570000000000000395,-1.947601536945104517
0.571000000000000396,-1.931228663578568927
0.572000000000000397,-1.914990891278407492
0.573000000000000398,-1.898887873194669451
0.574000000000000399,-1.882919249353897984
0.575000000000000400,-1.867084646869332953
0.576000000000000401,-1.851383680152921540
0.577000000000000401,-1.835815951129001977
0.578000000000000402,-1.820381049449453004
0.579000000000000403,-1.805078552710192241
0.580000000000000404,-1.789908026668933783
0.581000000000000405,-1.774869025463964745
0.582000000000000406,-1.759961091833895708
0.583000000000000407,-1.745183757338193420
0.584000000000000408,-1.730536542578408277
0.585000000000000409,-1.716018957419925384
0.586000000000000409,-1.701630501214159041
0.587000000000000410,-1.687370663021048545
0.588000000000000411,-1.673238921831719850
0.589000000000000412,-1.659234746791252491
0.590000000000000413,-1.645357597421370555
0.591000000000000414,-1.631606923843000434
0.592000000000000415,-1.617982166998590543
0.593000000000000416,-1.604482758874041792
0.594000000000000417,-1.591108122720189311
0.595000000000000417,-1.577857673273778349
0.596000000000000418,-1.564730816977702998
0.597000000000000419,-1.551726952200615184
0.598000000000000420,-1.538845469455610626
0.599000000000000421,-1.526085751618085684
0.600000000000000422,-1.513447174142553919
0.601000000000000423,-1.500929105278413278
0.602000000000000424,-1.488530906284567079
0.603000000000000425,-1.476251931642829751
0.604000000000000425,-1.464091529270031833
0.605000000000000426,-1.452049040728772722
0.606000000000000427,-1.440123801436783202
0.607000000000000428,-1.428315140874721667
0.608000000000000429,-1.416622382792540824
0.609000000000000430,-1.405044845414135324
0.610000000000000431,-1.393581841640429086
0.611000000000000432,-1.382232679250694707
0.612000000000000433,-1.370996661102124259
0.613000000000000433,-1.359873085327612197
