# hydroxyapatite-101-ph14_BSAI15
# h[nm],U(h)[kJ/mol]
0.149999999999999994,97.913396034905105125
0.150999999999999995,96.002125510772543748
0.151999999999999996,94.106150374559931038
0.152999999999999997,92.258375014924951074
0.153999999999999998,90.464019546013290096
0.154999999999999999,88.717643093388815601
0.156000000000000000,87.011475836403946005
0.157000000000000001,85.338938031173185550
0.158000000000000002,83.695664234200876308
0.159000000000000002,82.079369129782662640
0.160000000000000003,80.489286922001980429
0.161000000000000004,78.925554616875189140
0.162000000000000005,77.388701384870387301
0.163000000000000006,75.879292967501413614
0.164000000000000007,74.397723865587465752
0.165000000000000008,72.944126711873479962
0.166000000000000009,71.518362784124661857
0.167000000000000010,70.120060983819058720
0.168000000000000010,68.748679516627802855
0.169000000000000011,67.403572074348716114
0.170000000000000012,66.084047099830840466
0.171000000000000013,64.789414138610453620
0.172000000000000014,63.519015241405348604
0.173000000000000015,62.272242019446274242
0.174000000000000016,61.048540510178135321
0.175000000000000017,59.847406746105775710
0.176000000000000018,58.668376076517667173
0.177000000000000018,57.511009074075012393
0.178000000000000019,56.374876425738264629
0.179000000000000020,55.259544678587339206
0.180000000000000021,54.164564168126432264
0.181000000000000022,53.089459952721028912
0.182000000000000023,52.033726143393018049
0.183000000000000024,50.996823667235574362
0.184000000000000025,49.978181237604744069
0.185000000000000026,48.977199119906899227
0.186000000000000026,47.993255168716487447
0.187000000000000027,47.025712558460902812
0.188000000000000028,46.073928623761979395
0.189000000000000029,45.137264254978269662
0.190000000000000030,44.215093348919594973
0.191000000000000031,43.306811884946839086
0.192000000000000032,42.411846275147993879
0.193000000000000033,41.529660717991376373
0.194000000000000034,40.659763363247044765
0.195000000000000034,39.801711168774190241
0.196000000000000035,38.955113394834526730
0.197000000000000036,38.119633737656506867
0.198000000000000037,37.294991150509915201
0.199000000000000038,36.480959437579869586
0.200000000000000039,35.677365733885693544
0.201000000000000040,34.884088004085342050
0.202000000000000041,34.101051705133954783
0.203000000000000042,33.328225763412227423
0.204000000000000042,32.565618017123853178
0.205000000000000043,31.813270270485400459
0.206000000000000044,31.071253098437797036
0.207000000000000045,30.339660530174217712
0.208000000000000046,29.618604727479937111
0.209000000000000047,28.908210760400475436
0.210000000000000048,28.208611568677987691
0.211000000000000049,27.519943183208191329
0.212000000000000050,26.842340267864663872
0.213000000000000050,26.175932028727039835
0.214000000000000051,25.520838525265173047
0.215000000000000052,24.877167406543371442
0.216000000000000053,24.245011085125785399
0.217000000000000054,23.624444352146852566
0.218000000000000055,23.015522428980450087
0.219000000000000056,22.418279444086419261
0.220000000000000057,21.832727317891453822
0.221000000000000058,21.258855033922085198
0.222000000000000058,20.696628270769203084
0.223000000000000059,20.145989366752626637
0.224000000000000060,19.606857587276845578
0.225000000000000061,19.079129663737141698
0.226000000000000062,18.562680572357859177
0.227000000000000063,18.057364521431971127
0.228000000000000064,17.563016116000248701
0.229000000000000065,17.079451669975536987
0.230000000000000066,16.606470637012783698
0.231000000000000066,16.143857132975576008
0.232000000000000067,15.691381524595868768
0.233000000000000068,15.248802060808866798
0.234000000000000069,14.815866525219826499
0.235000000000000070,14.392313890182373726
0.236000000000000071,13.977875955001033859
0.237000000000000072,13.572278952782392381
0.238000000000000073,13.175245112424661897
0.239000000000000073,12.786494164132829354
0.240000000000000074,12.405744778657496141
0.241000000000000075,12.032715932169589124
0.242000000000000076,11.667128190288726941
0.243000000000000077,11.308704906273840507
0.244000000000000078,10.957173329757756264
0.245000000000000079,10.612265623659887126
0.246000000000000080,10.273719788044758161
0.247000000000000081,9.941280490708388484
0.248000000000000081,9.614699805175659364
0.249000000000000082,9.293737857581600537
0.250000000000000111,8.978163384594134655
0.251000000000000112,8.667754205121317668
0.252000000000000113,8.362297609036932755
0.253000000000000114,8.061590666564157459
0.254000000000000115,7.765440462280183809
0.255000000000000115,7.473664257955983103
0.256000000000000116,7.186089588628457037
0.257000000000000117,6.902554296424790792
0.258000000000000118,6.622906506727761489
0.259000000000000119,6.347004551290046592
0.260000000000000120,6.074716842883211676
0.261000000000000121,5.805921706007259431
0.262000000000000122,5.540507168094324086
0.263000000000000123,5.278370715521184309
0.264000000000000123,5.019419018602667037
0.265000000000000124,4.763567629577098117
0.266000000000000125,4.510740657418581989
0.267000000000000126,4.260870423123011896
0.268000000000000127,4.013897098917530215
0.269000000000000128,3.769768334640860807
0.270000000000000129,3.528438874335411590
0.271000000000000130,3.289870165884130504
0.272000000000000131,3.054029966318337674
0.273000000000000131,2.820891945217293362
0.274000000000000132,2.590435288419132398
0.275000000000000133,2.362644304065876888
0.276000000000000134,2.137508032814324110
0.277000000000000135,1.915019863860675242
0.278000000000000136,1.695177158249340676
0.279000000000000137,1.477980880767402194
0.280000000000000138,1.263435241565449951
0.281000000000000139,1.051547348492662737
0.282000000000000139,0.842326870990603438
0.283000000000000140,0.635785716254888000
0.284000000000000141,0.431937718247745628
0.285000000000000142,0.230798340026847321
0.286000000000000143,0.032384389746573261
0.287000000000000144,-0.163286249412424173
0.288000000000000145,-0.356194875222697160
0.289000000000000146,-0.546322208219678140
0.290000000000000147,-0.733648619340558583
0.291000000000000147,-0.918154343460475864
0.292000000000000148,-1.099819678957437263
0.293000000000000149,-1.278625173493019407
0.294000000000000150,-1.454551796246164042
0.295000000000000151,-1.627581096881050016
0.296000000000000152,-1.797695351568407318
0.297000000000000153,-1.964877696412703045
0.298000000000000154,-2.129112248665836926
0.299000000000000155,-2.290384216131541972
0.300000000000000155,-2.448679995184149139
0.301000000000000156,-2.603987257840675529
0.302000000000000157,-2.756295028337405917
0.303000000000000158,-2.905593749670338344
0.304000000000000159,-3.051875340564658146
0.305000000000000160,-3.195133243341194973
0.306000000000000161,-3.335362463148029200
0.307000000000000162,-3.472559599023745225
0.308000000000000163,-3.606722867254637865
0.309000000000000163,-3.737852117482753922
0.310000000000000164,-3.865948842014176101
0.311000000000000165,-3.991016178768479250
0.312000000000000166,-4.113058908300310179
0.313000000000000167,-4.232083445313206127
0.314000000000000168,-4.348097825073953260
0.315000000000000169,-4.461111685123325898
0.316000000000000170,-4.571136242665908789
0.317000000000000171,-4.678184268008097391
0.318000000000000171,-4.782270054399310411
0.319000000000000172,-4.883409384617495519
0.320000000000000173,-4.981619494625200595
0.321000000000000174,-5.076919034608254222
0.322000000000000175,-5.169328027694482408
0.323000000000000176,-5.258867826635396092
0.324000000000000177,-5.345561068719466569
0.325000000000000178,-5.429431629171266316
0.326000000000000179,-5.510504573277063223
0.327000000000000179,-5.588806107463335060
0.328000000000000180,-5.664363529541529552
0.329000000000000181,-5.737205178319176646
0.330000000000000182,-5.807360382764564122
0.331000000000000183,-5.874859410900059586
0.332000000000000184,-5.939733418586810920
0.333000000000000185,-6.002014398352206292
0.334000000000000186,-6.061735128400125738
0.335000000000000187,-6.118929121933255111
0.336000000000000187,-6.173630576906521839
0.337000000000000188,-6.225874326320402830
0.338000000000000189,-6.275695789153877158
0.339000000000000190,-6.323130922027340617
0.340000000000000191,-6.368216171677172355
0.341000000000000192,-6.410988428315704368
0.342000000000000193,-6.451484979942193831
0.343000000000000194,-6.489743467663258158
0.344000000000000195,-6.525801842073964742
0.345000000000000195,-6.559698320744483446
0.346000000000000196,-6.591471346850656055
0.347000000000000197,-6.621159548981151666
0.348000000000000198,-6.648801702148372961
0.349000000000000199,-6.674436690024966978
0.350000000000000200,-6.698103468423224349
0.351000000000000201,-6.719841030029854778
0.352000000000000202,-6.739688370404680384
0.353000000000000203,-6.757684455247738420
0.354000000000000203,-6.773868188935873391
0.355000000000000204,-6.788278384326202008
0.356000000000000205,-6.800953733821219593
0.357000000000000206,-6.811932781687270122
0.358000000000000207,-6.821253897615354056
0.359000000000000208,-6.828955251511279023
0.360000000000000209,-6.835074789499775427
0.361000000000000210,-6.839650211125241519
0.362000000000000210,-6.842718947730219270
0.363000000000000211,-6.844318141990965110
0.364000000000000212,-6.844484628588283215
0.365000000000000213,-6.843254915990351961
0.366000000000000214,-6.840665169323432160
0.367000000000000215,-6.836751194305202617
0.368000000000000216,-6.831548422214929417
0.369000000000000217,-6.825091895873744541
0.370000000000000218,-6.817416256608012759
0.371000000000000218,-6.808555732168114716
0.372000000000000219,-6.798544125574792929
0.373000000000000220,-6.787414804864981832
0.374000000000000221,-6.775200693708749000
0.375000000000000222,-6.761934262868971146
0.376000000000000223,-6.747647522475524795
0.377000000000000224,-6.732372015085627659
0.378000000000000225,-6.716138809502204765
0.379000000000000226,-6.698978495322363003
0.380000000000000226,-6.680921178188360621
0.381000000000000227,-6.661996475713505284
0.382000000000000228,-6.642233514056196775
0.383000000000000229,-6.621660925115238072
0.384000000000000230,-6.600306844320259714
0.385000000000000231,-6.578198908991504723
0.386000000000000232,-6.555364257243553539
0.387000000000000233,-6.531829527408281599
0.388000000000000234,-6.507620857952604254
0.389000000000000234,-6.482763887867413644
0.390000000000000235,-6.457283757504359123
0.391000000000000236,-6.431205109837890177
0.392000000000000237,-6.404552092130472829
0.393000000000000238,-6.377348357979547799
0.394000000000000239,-6.349617069725199237
0.395000000000000240,-6.321380901198411451
0.396000000000000241,-6.292662040790095723
0.397000000000000242,-6.263482194821762938
0.398000000000000242,-6.233862591199457626
0.399000000000000243,-6.203823983332883429
0.400000000000000244,-6.173386654302487564
0.401000000000000245,-6.142570421257792290
0.402000000000000246,-6.111394640030693992
0.403000000000000247,-6.079878209948279100
0.404000000000000248,-6.048039578830049834
0.405000000000000249,-6.015896748155173945
0.406000000000000250,-5.983467278385758981
0.407000000000000250,-5.950768294432903893
0.408000000000000251,-5.917816491252564148
0.409000000000000252,-5.884628139559029414
0.410000000000000253,-5.851219091644130899
0.411000000000000254,-5.817604787290911794
0.412000000000000255,-5.783800259770903729
0.413000000000000256,-5.749820141914748106
0.414000000000000257,-5.715678672246147229
0.415000000000000258,-5.681389701169870854
0.416000000000000258,-5.646966697204702790
0.417000000000000259,-5.612422753252846341
0.418000000000000260,-5.577770592897622670
0.419000000000000261,-5.543022576721700290
0.420000000000000262,-5.508190708638539768
0.421000000000000263,-5.473286642230088539
0.422000000000000264,-5.438321687084069822
0.423000000000000265,-5.403306815124670592
0.424000000000000266,-5.368252666930756867
0.425000000000000266,-5.333169558035942615
0.426000000000000267,-5.298067485205369742
0.427000000000000268,-5.262956132684211141
0.428000000000000269,-5.227844878413248964
0.429000000000000270,-5.192742800207236442
0.430000000000000271,-5.157658681891861718
0.431000000000000272,-5.122601019395645494
0.432000000000000273,-5.087578026793074137
0.433000000000000274,-5.052597642295803659
0.434000000000000274,-5.017667534188737122
0.435000000000000275,-4.982795106708238997
0.436000000000000276,-4.947987505859805069
0.437000000000000277,-4.913251625172775583
0.438000000000000278,-4.878594111389887189
0.439000000000000279,-4.844021370089665268
0.440000000000000280,-4.809539571239743516
0.441000000000000281,-4.775154654679502286
0.442000000000000282,-4.740872335530537995
0.443000000000000282,-4.706698109533515861
0.444000000000000283,-4.672637258310372133
0.445000000000000284,-4.638694854550676538
0.446000000000000285,-4.604875767121291652
0.447000000000000286,-4.571184666098639049
0.448000000000000287,-4.537626027722708066
0.449000000000000288,-4.504204139272532714
0.450000000000000289,-4.470923103862462611
0.451000000000000290,-4.437786845159068960
0.452000000000000290,-4.404799112018404017
0.453000000000000291,-4.371963483043473708
0.454000000000000292,-4.339283371061931405
0.455000000000000293,-4.306762027523977743
0.456000000000000294,-4.274402546820645910
0.457000000000000295,-4.242207870522647362
0.458000000000000296,-4.210180791540024892
0.459000000000000297,-4.178323958203019828
0.460000000000000298,-4.146639878264434920
0.461000000000000298,-4.115130922824077331
0.462000000000000299,-4.083799330175695630
0.463000000000000300,-4.052647209576981879
0.464000000000000301,-4.021676544943288079
0.465000000000000302,-3.990889198465672028
0.466000000000000303,-3.960286914153944515
0.467000000000000304,-3.929871321305475451
0.468000000000000305,-3.899643937900505453
0.469000000000000306,-3.869606173924714732
0.470000000000000306,-3.839759334619987641
0.471000000000000307,-3.810104623664011037
0.472000000000000308,-3.780643146279801581
0.473000000000000309,-3.751375912275883628
0.474000000000000310,-3.722303839018109350
0.475000000000000311,-3.693427754333991064
0.476000000000000312,-3.664748399350583163
0.477000000000000313,-3.636266431266732102
0.478000000000000314,-3.607982426060750036
0.479000000000000314,-3.579896881134493558
0.480000000000000315,-3.552010217894744137
0.481000000000000316,-3.524322784272994280
0.482000000000000317,-3.496834857184528911
0.483000000000000318,-3.469546644927863355
0.484000000000000319,-3.442458289525513582
0.485000000000000320,-3.415569869007114789
0.486000000000000321,-3.388881399635867098
0.487000000000000322,-3.362392838079349300
0.488000000000000322,-3.336104083525614605
0.489000000000000323,-3.310014979745690145
0.490000000000000324,-3.284125317103364861
0.491000000000000325,-3.258434834513315170
0.492000000000000326,-3.232943221348481444
0.493000000000000327,-3.207650119297793090
0.494000000000000328,-3.182555124175057149
0.495000000000000329,-3.157657787680126837
0.496000000000000330,-3.132957619113159620
0.497000000000000330,-3.108454087043049263
0.498000000000000331,-3.084146620930825922
0.499000000000000332,-3.060034612709096269
0.500000000000000333,-3.036117418318345251
0.501000000000000334,-3.012394359201001404
0.502000000000000335,-2.988864723754242281
0.503000000000000336,-2.965527768742358905
0.504000000000000337,-2.942382720669568297
0.505000000000000338,-2.919428777114160045
0.506000000000000338,-2.896665108024800706
0.507000000000000339,-2.874090856979858000
0.508000000000000340,-2.851705142410541516
0.509000000000000341,-2.829507058788754748
0.510000000000000342,-2.807495677780347254
0.511000000000000343,-2.785670049364664003
0.512000000000000344,-2.764029202921096218
0.513000000000000345,-2.742572148283454858
0.514000000000000346,-2.721297876762904355
0.515000000000000346,-2.700205362140163601
0.516000000000000347,-2.679293561627758002
0.517000000000000348,-2.658561416803034039
0.518000000000000349,-2.638007854512567807
0.519000000000000350,-2.617631787748776695
0.520000000000000351,-2.597432116499297727
0.521000000000000352,-2.577407728569912404
0.522000000000000353,-2.557557500381558047
0.523000000000000353,-2.537880297742149516
0.524000000000000354,-2.518374976593836134
0.525000000000000355,-2.499040383736255144
0.526000000000000356,-2.479875357526437618
0.527000000000000357,-2.460878728555980555
0.528000000000000358,-2.442049320305967886
0.529000000000000359,-2.423385949780353155
0.530000000000000360,-2.404887428118225312
0.531000000000000361,-2.386552561185607768
0.532000000000000361,-2.368380150147257446
0.533000000000000362,-2.350368992019042480
0.534000000000000363,-2.332517880201361749
0.535000000000000364,-2.314825604994150687
0.536000000000000365,-2.297290954093938353
0.537000000000000366,-2.279912713073460218
0.538000000000000367,-2.262689665844244580
0.539000000000000368,-2.245620595102736594
0.540000000000000369,-2.228704282760268107
0.541000000000000369,-2.211939510357465721
0.542000000000000370,-2.195325059463381301
0.543000000000000371,-2.178859712059882270
0.544000000000000372,-2.162542250911646757
0.545000000000000373,-2.146371459922186364
0.546000000000000374,-2.130346124476273140
0.547000000000000375,-2.114465031769177106
0.548000000000000376,-2.098726971123076268
0.549000000000000377,-2.083130734290997932
0.550000000000000377,-2.067675115748645709
0.551000000000000378,-2.052358912974479477
0.552000000000000379,-2.037180926718373808
0.553000000000000380,-2.022139961259178609
0.554000000000000381,-2.007234824651509264
0.555000000000000382,-1.992464328962119335
0.556000000000000383,-1.977827290496072976
0.557000000000000384,-1.963322530013137168
0.558000000000000385,-1.948948872934562093
0.559000000000000385,-1.934705149540643543
0.560000000000000386,-1.920590195159270319
0.561000000000000387,-1.906602850345764821
0.562000000000000388,-1.892741961054259958
0.563000000000000389,-1.879006378800895050
0.564000000000000390,-1.865394960819060088
0.565000000000000391,-1.851906570206931502
0.566000000000000392,-1.838540076067552764
0.567000000000000393,-1.825294353641700784
0.568000000000000393,-1.812168284433714804
0.569000000000000394,-1.799160756330554944
0.570000000000000395,-1.786270663714317974
0.571000000000000396,-1.773496907568335335
0.572000000000000397,-1.760838395577171145
0.573000000000000398,-1.748294042220612798
0.574000000000000399,-1.735862768861934580
0.575000000000000400,-1.723543503830545331
0.576000000000000401,-1.711335182499241325
0.577000000000000401,-1.699236747356277943
0.578000000000000402,-1.687247148072344105
0.579000000000000403,-1.675365341562665478
0.580000000000000404,-1.663590292044424546
0.581000000000000405,-1.651920971089576806
0.582000000000000406,-1.640356357673295351
0.583000000000000407,-1.628895438218141534
0.584000000000000408,-1.617537206634139579
0.585000000000000409,-1.606280664354882592
0.586000000000000409,-1.595124820369799412
0.587000000000000410,-1.584068691252753958
0.588000000000000411,-1.573111301187047895
0.589000000000000412,-1.562251681987017804
0.590000000000000413,-1.551488873116294132
0.591000000000000414,-1.540821921702877351
0.592000000000000415,-1.530249882551146134
0.593000000000000416,-1.519771818150879028
0.594000000000000417,-1.509386798683422182
0.595000000000000417,-1.499093902025153247
0.596000000000000418,-1.488892213748215898
0.597000000000000419,-1.478780827118804764
0.598000000000000420,-1.468758843092917266
0.599000000000000421,-1.458825370309816183
0.600000000000000422,-1.448979525083193609
0.601000000000000423,-1.439220431390174415
0.602000000000000424,-1.429547220858238266
0.603000000000000425,-1.419959032750136352
0.604000000000000425,-1.410455013946882108
0.605000000000000426,-1.401034318928900735
0.606000000000000427,-1.391696109755444999
0.607000000000000428,-1.382439556042242668
0.608000000000000429,-1.373263834937639150
0.609000000000000430,-1.364168131097067027
0.610000000000000431,-1.355151636656139136
0.611000000000000432,-1.346213551202267489
0.612000000000000433,-1.337353081744930616
0.613000000000000433,-1.328569442684685908
