# hydroxyapatite-101-ph5_TRPSCA-JS
# h[nm],U(h)[kJ/mol]
0.149999999999999994,127.391485093410125273
0.150999999999999995,124.294566387248096362
0.151999999999999996,121.324414870455228765
0.152999999999999997,118.472833257189876122
0.153999999999999998,115.723951405785442148
0.154999999999999999,113.061422837849065104
0.156000000000000000,110.471346235245547973
0.157000000000000001,107.943011782237888951
0.158000000000000002,105.468660923166765997
0.159000000000000002,103.042896822398390100
0.160000000000000003,100.662059526978765689
0.161000000000000004,98.323698141351201230
0.162000000000000005,96.026176407685355230
0.163000000000000006,93.768402447205815520
0.164000000000000007,91.549655922838823585
0.165000000000000008,89.369483073605678669
0.166000000000000009,87.227634036151954433
0.167000000000000010,85.124023177442524002
0.168000000000000010,83.058699512085851779
0.169000000000000011,81.031819624083453846
0.170000000000000012,79.043619521941081985
0.171000000000000013,77.094384564981822905
0.172000000000000014,75.184418213037801593
0.173000000000000015,73.314011130375050129
0.174000000000000016,71.483412368593391761
0.175000000000000017,69.692804176622857426
0.176000000000000018,67.942281606908480285
0.177000000000000018,66.231837628147431474
0.178000000000000019,64.561353999555961991
0.179000000000000020,62.930597760573654398
0.180000000000000021,61.339222869807748850
0.181000000000000022,59.786776297080493237
0.182000000000000023,58.272707730224020395
0.183000000000000024,56.796381994195016318
0.184000000000000025,55.357093280858734374
0.185000000000000026,53.954080338812687501
0.186000000000000026,52.586541859598277426
0.187000000000000027,51.253651406617407815
0.188000000000000028,49.954571354926017079
0.189000000000000029,48.688465434798033016
0.190000000000000030,47.454509592584244615
0.191000000000000031,46.251900993898644288
0.192000000000000032,45.079865093204283255
0.193000000000000033,43.937660778513830451
0.194000000000000034,42.824583669396396601
0.195000000000000034,41.739967700897999237
0.196000000000000035,40.683185166109119280
0.197000000000000036,39.653645417166359266
0.198000000000000037,38.650792439956397573
0.199000000000000038,37.674101523342713449
0.200000000000000039,36.723075241045613382
0.201000000000000040,35.797238955007550487
0.202000000000000041,34.896136034715638630
0.203000000000000042,34.019322968928818796
0.204000000000000042,33.166364525813655462
0.205000000000000043,32.336829095702448456
0.206000000000000044,31.530284328448800579
0.207000000000000045,30.746293155409290421
0.208000000000000046,29.984410265004648011
0.209000000000000047,29.244179081052976699
0.210000000000000048,28.525129274939594382
0.211000000000000049,27.826774826402520091
0.212000000000000050,27.148612633385802440
0.213000000000000050,26.490121659089890471
0.214000000000000051,25.850762594005779249
0.215000000000000052,25.229978002290014416
0.216000000000000053,24.627192915217552383
0.217000000000000054,24.041815829502642288
0.218000000000000055,23.473240064858902798
0.219000000000000056,22.920845433116618040
0.220000000000000057,22.384000170361503024
0.221000000000000058,21.862063083748243031
0.222000000000000058,21.354385865704827552
0.223000000000000059,20.860315530039652998
0.224000000000000060,20.379196926842627846
0.225000000000000061,19.910375295908149695
0.226000000000000062,19.453198821582269318
0.227000000000000063,19.007021155342794572
0.228000000000000064,18.571203875966119767
0.229000000000000065,18.145118860737504463
0.230000000000000066,17.728150544753066953
0.231000000000000066,17.319698048882976593
0.232000000000000067,16.919177160370033164
0.233000000000000068,16.526022153285303773
0.234000000000000069,16.139687439125474100
0.235000000000000070,15.759649040690780097
0.236000000000000071,15.385405885014467486
0.237000000000000072,15.016480913513035489
0.238000000000000073,14.652422009689207272
0.239000000000000073,14.292802746645326906
0.240000000000000074,13.937222958356766611
0.241000000000000075,13.585309140121712090
0.242000000000000076,13.236714684852662671
0.243000000000000077,12.891119962917386488
0.244000000000000078,12.548232254085910142
0.245000000000000079,12.207785540808098190
0.246000000000000080,11.869540172547647927
0.247000000000000081,11.533282411246617016
0.248000000000000081,11.198823868205163734
0.249000000000000082,10.866000842747475019
0.250000000000000111,10.534673573020214121
0.251000000000000112,10.204725409149322246
0.252000000000000113,9.876061918774219350
0.253000000000000114,9.548609934702064095
0.254000000000000115,9.222316554084452278
0.255000000000000115,8.897148098130520211
0.256000000000000116,8.573089040939796845
0.257000000000000117,8.250140915576231748
0.258000000000000118,7.928321205019497775
0.259000000000000119,7.607662225127407751
0.260000000000000120,7.288210006231338411
0.261000000000000121,6.970023179471290575
0.262000000000000122,6.653171873461900532
0.263000000000000123,6.337736626372728388
0.264000000000000123,6.023807318005879985
0.265000000000000124,5.711482125968202261
0.266000000000000125,5.400866509563902795
0.267000000000000126,5.092072224580723727
0.268000000000000127,4.785216371708936656
0.269000000000000128,4.480420480920626503
0.270000000000000129,4.177809633746369045
0.271000000000000130,3.877511625018896346
0.272000000000000131,3.579656165309783145
0.273000000000000131,3.284374124964385633
0.274000000000000132,2.991796820343374019
0.275000000000000133,2.702055342605233612
0.276000000000000134,2.415279929112878143
0.277000000000000135,2.131599377319193245
0.278000000000000136,1.851140500778331033
0.279000000000000137,1.574027626743452313
0.280000000000000138,1.300382134645269083
0.281000000000000139,1.030322034597659364
0.282000000000000139,0.763961584947946748
0.283000000000000140,0.501410947776540605
0.284000000000000141,0.242775881155104678
0.285000000000000142,-0.011842533109009689
0.286000000000000143,-0.262348127580944446
0.287000000000000144,-0.508649854551580516
0.288000000000000145,-0.750661960070331036
0.289000000000000146,-0.988304128121506809
0.290000000000000147,-1.221501596429109382
0.291000000000000147,-1.450185245384840727
0.292000000000000148,-1.674291661596849945
0.293000000000000149,-1.893763177550458865
0.294000000000000150,-2.108547888860154984
0.295000000000000151,-2.318599650572966464
0.296000000000000152,-2.523878053959480727
0.297000000000000153,-2.724348385199372835
0.298000000000000154,-2.919981567335467876
0.299000000000000155,-3.110754086833296128
0.300000000000000155,-3.296647906043348453
0.301000000000000156,-3.477650362820579488
0.302000000000000157,-3.653754058511581526
0.303000000000000158,-3.824956735473203473
0.304000000000000159,-3.991261145239198616
0.305000000000000160,-4.152674908402987697
0.306000000000000161,-4.309210367235736250
0.307000000000000162,-4.460884432009653899
0.308000000000000163,-4.607718421947224918
0.309000000000000163,-4.749737901667918649
0.310000000000000164,-4.886972513955585740
0.311000000000000165,-5.019455809621533149
0.312000000000000166,-5.147225075191334653
0.313000000000000167,-5.270321159097115071
0.314000000000000168,-5.388788297011925188
0.315000000000000169,-5.502673936918933251
0.316000000000000170,-5.612028564465494362
0.317000000000000171,-5.716905529110769990
0.318000000000000171,-5.817360871535617761
0.319000000000000172,-5.913453152745300478
0.320000000000000173,-6.005243285258207386
0.321000000000000174,-6.092794366738607081
0.322000000000000175,-6.176171516397497285
0.323000000000000176,-6.255441714453191082
0.324000000000000177,-6.330673644912556242
0.325000000000000178,-6.401937541904308304
0.326000000000000179,-6.469305039768403098
0.327000000000000179,-6.532849027078739823
0.328000000000000180,-6.592643504752015993
0.329000000000000181,-6.648763448372049467
0.330000000000000182,-6.701284674836715638
0.331000000000000183,-6.750283713414445330
0.332000000000000184,-6.795837681277584252
0.333000000000000185,-6.838024163562086422
0.334000000000000186,-6.876921097986321563
0.335000000000000187,-6.912606664046090366
0.336000000000000187,-6.945159176788817668
0.337000000000000188,-6.974656985156151734
0.338000000000000189,-7.001178374872597310
0.339000000000000190,-7.024801475846189192
0.340000000000000191,-7.045604174036986578
0.341000000000000192,-7.063664027740282236
0.342000000000000193,-7.079058188222435710
0.343000000000000194,-7.091863324640288901
0.344000000000000195,-7.102155553167610158
0.345000000000000195,-7.110010370246837574
0.346000000000000196,-7.115502589878209605
0.347000000000000197,-7.118706284854354749
0.348000000000000198,-7.119694731844060875
0.349000000000000199,-7.118540360225521724
0.350000000000000200,-7.115314704566591431
0.351000000000000201,-7.110088360647078609
0.352000000000000202,-7.102930944916212574
0.353000000000000203,-7.093911057277044740
0.354000000000000203,-7.083096247088495723
0.355000000000000204,-7.070552982274894482
0.356000000000000205,-7.056346621432910915
0.357000000000000206,-7.040541388825621638
0.358000000000000207,-7.023200352153575743
0.359000000000000208,-7.004385402993753118
0.360000000000000209,-6.984157239797893268
0.361000000000000210,-6.962575353342700168
0.362000000000000210,-6.939698014525944814
0.363000000000000211,-6.915582264403747459
0.364000000000000212,-6.890283906366133415
0.365000000000000213,-6.863857500349586971
0.366000000000000214,-6.836356358987382364
0.367000000000000215,-6.807832545600419394
0.368000000000000216,-6.778336873933530349
0.369000000000000217,-6.747918909544262434
0.370000000000000218,-6.716626972753755531
0.371000000000000218,-6.684508143071278496
0.372000000000000219,-6.651608265006766274
0.373000000000000220,-6.617971955187995192
0.374000000000000221,-6.583642610701493147
0.375000000000000222,-6.548662418578720334
0.376000000000000223,-6.513072366351856601
0.377000000000000224,-6.476912253605649816
0.378000000000000225,-6.440220704454608480
0.379000000000000226,-6.403035180877080457
0.380000000000000226,-6.365391996840567224
0.381000000000000227,-6.327326333154625004
0.382000000000000228,-6.288872252990666212
0.383000000000000229,-6.250062718009969487
0.384000000000000230,-6.210929605043765456
0.385000000000000231,-6.171503723271696273
0.386000000000000232,-6.131814831846959635
0.387000000000000233,-6.091891657919080494
0.388000000000000234,-6.051761915007053183
0.389000000000000234,-6.011452321678182997
0.390000000000000235,-5.970988620489696252
0.391000000000000236,-5.930395597152514853
0.392000000000000237,-5.889697099878426378
0.393000000000000238,-5.848916058874030988
0.394000000000000239,-5.808074505946462907
0.395000000000000240,-5.767193594188055883
0.396000000000000241,-5.726293617708725137
0.397000000000000242,-5.685394031386506342
0.398000000000000242,-5.644513470608699457
0.399000000000000243,-5.603669770977278475
0.400000000000000244,-5.562879987954088890
0.401000000000000245,-5.522160416422835283
0.402000000000000246,-5.481526610146223000
0.403000000000000247,-5.440993401098063842
0.404000000000000248,-5.400574918651639855
0.405000000000000249,-5.360284608606765921
0.406000000000000250,-5.320135252039293938
0.407000000000000250,-5.280138983958104326
0.408000000000000251,-5.240307311755626252
0.409000000000000252,-5.200651133439210483
0.410000000000000253,-5.161180755631558092
0.411000000000000254,-5.121905911329633909
0.412000000000000255,-5.082835777412224587
0.413000000000000256,-5.043978991887481556
0.414000000000000257,-5.005343670872443695
0.415000000000000258,-4.966937425297548891
0.416000000000000258,-4.928767377329848820
0.417000000000000259,-4.890840176509427373
0.418000000000000260,-4.853162015594277179
0.419000000000000261,-4.815738646109542387
0.420000000000000262,-4.778575393597671805
0.421000000000000263,-4.741677172566754805
0.422000000000000264,-4.705048501134685424
0.423000000000000265,-4.668693515367576374
0.424000000000000266,-4.632615983311272778
0.425000000000000266,-4.596819318715207103
0.426000000000000267,-4.561306594448484297
0.427000000000000268,-4.526080555608409384
0.428000000000000269,-4.491143632322017076
0.429000000000000270,-4.456497952241755378
0.430000000000000271,-4.422145352736552404
0.431000000000000272,-4.388087392780088969
0.432000000000000273,-4.354325364538209620
0.433000000000000274,-4.320860304657810680
0.434000000000000274,-4.287693005259777479
0.435000000000000275,-4.254824024638744540
0.436000000000000276,-4.222253697672798012
0.437000000000000277,-4.189982145946262726
0.438000000000000278,-4.158009287589104375
0.439000000000000279,-4.126334846836548387
0.440000000000000280,-4.094958363312637850
0.441000000000000281,-4.063879201041697087
0.442000000000000282,-4.033096557191778508
0.443000000000000282,-4.002609470554155280
0.444000000000000283,-3.972416829763238955
0.445000000000000284,-3.942517381261234188
0.446000000000000285,-3.912909737011894151
0.447000000000000286,-3.883592381968072438
0.448000000000000287,-3.854563681297388023
0.449000000000000288,-3.825821887370849161
0.450000000000000289,-3.797365146518893120
0.451000000000000290,-3.769191505559630340
0.452000000000000290,-3.741298918103995952
0.453000000000000291,-3.713685250642416946
0.454000000000000292,-3.686348288417852448
0.455000000000000293,-3.659285741089805644
0.456000000000000294,-3.632495248194098192
0.457000000000000295,-3.605974384403060728
0.458000000000000296,-3.579720664590834822
0.459000000000000297,-3.553731548708438659
0.460000000000000298,-3.528004446473219868
0.461000000000000298,-3.502536721877284265
0.462000000000000299,-3.477325697519485281
0.463000000000000300,-3.452368658765416765
0.464000000000000301,-3.427662857739962821
0.465000000000000302,-3.403205517156788318
0.466000000000000303,-3.378993833989103912
0.467000000000000304,-3.355024982986083870
0.468000000000000305,-3.331296120039158204
0.469000000000000306,-3.307804385402378422
0.470000000000000306,-3.284546906771036667
0.471000000000000307,-3.261520802222540372
0.472000000000000308,-3.238723183023645813
0.473000000000000309,-3.216151156307925252
0.474000000000000310,-3.193801827627391621
0.475000000000000311,-3.171672303382057301
0.476000000000000312,-3.149759693131251925
0.477000000000000313,-3.128061111790253701
0.478000000000000314,-3.106573681715926405
0.479000000000000314,-3.085294534684915213
0.480000000000000315,-3.064220813767749352
0.481000000000000316,-3.043349675102406060
0.482000000000000317,-3.022678289570501331
0.483000000000000318,-3.002203844379486064
0.484000000000000319,-2.981923544553928274
0.485000000000000320,-2.961834614339074356
0.486000000000000321,-2.941934298519665258
0.487000000000000322,-2.922219863657018468
0.488000000000000322,-2.902688599247207790
0.489000000000000323,-2.883337818803290098
0.490000000000000324,-2.864164860864212514
0.491000000000000325,-2.845167089933174687
0.492000000000000326,-2.826341897348012111
0.493000000000000327,-2.807686702086233943
0.494000000000000328,-2.789198951507115609
0.495000000000000329,-2.770876122033363753
0.496000000000000330,-2.752715719774619707
0.497000000000000330,-2.734715281095216444
0.498000000000000331,-2.716872373128282447
0.499000000000000332,-2.699184594238507540
0.500000000000000333,-2.681649574435604588
0.501000000000000334,-2.664264975740503694
0.502000000000000335,-2.647028492506339870
0.503000000000000336,-2.629937851696130480
0.504000000000000337,-2.612990813119016487
0.505000000000000338,-2.596185169626914035
0.506000000000000338,-2.579518747273328749
0.507000000000000339,-2.562989405436063794
0.508000000000000340,-2.546595036905452414
0.509000000000000341,-2.530333567939789585
0.510000000000000342,-2.514202958289440737
0.511000000000000343,-2.498201201191214693
0.512000000000000344,-2.482326323334407725
0.513000000000000345,-2.466576384799961552
0.514000000000000346,-2.450949478974124851
0.515000000000000346,-2.435443732437878150
0.516000000000000347,-2.420057304833457046
0.517000000000000348,-2.404788388709222069
0.518000000000000349,-2.389635209343985878
0.519000000000000350,-2.374596024552059426
0.520000000000000351,-2.359669124470031409
0.521000000000000352,-2.344852831326450282
0.522000000000000353,-2.330145499195344971
0.523000000000000353,-2.315545513734651006
0.524000000000000354,-2.301051291910506613
0.525000000000000355,-2.286661281708283422
0.526000000000000356,-2.272373961831299916
0.527000000000000357,-2.258187841388088479
0.528000000000000358,-2.244101459568952794
0.529000000000000359,-2.230113385312740615
0.530000000000000360,-2.216222216964461644
0.531000000000000361,-2.202426581924599613
0.532000000000000361,-2.188725136290735840
0.533000000000000362,-2.175116564492222349
0.534000000000000363,-2.161599578918503184
0.535000000000000364,-2.148172919541757597
0.536000000000000365,-2.134835353534405566
0.537000000000000366,-2.121585674882104922
0.538000000000000367,-2.108422703992717029
0.539000000000000368,-2.095345287301863646
0.540000000000000369,-2.082352296875441766
0.541000000000000369,-2.069442630009730166
0.542000000000000370,-2.056615208829388752
0.543000000000000371,-2.043868979883908032
0.544000000000000372,-2.031202913742864880
0.545000000000000373,-2.018616004590392699
0.546000000000000374,-2.006107269819232375
0.547000000000000375,-1.993675749624750804
0.548000000000000376,-1.981320506599251186
0.549000000000000377,-1.969040625326889948
0.550000000000000377,-1.956835211979529587
0.551000000000000378,-1.944703393913793210
0.552000000000000379,-1.932644319269638755
0.553000000000000380,-1.920657156570662938
0.554000000000000381,-1.908741094326410703
0.555000000000000382,-1.896895340636959748
0.556000000000000383,-1.885119122799886693
0.557000000000000384,-1.873411686919987273
0.558000000000000385,-1.861772297521773201
0.559000000000000385,-1.850200237165074313
0.560000000000000386,-1.838694806063816856
0.561000000000000387,-1.827255321708198155
0.562000000000000388,-1.815881118490365820
0.563000000000000389,-1.804571547333782888
0.564000000000000390,-1.793325975326373722
0.565000000000000391,-1.782143785357587662
0.566000000000000392,-1.771024375759480574
0.567000000000000393,-1.759967159951949300
0.568000000000000393,-1.748971566092162533
0.569000000000000394,-1.738037036728301343
0.570000000000000395,-1.727163028457717742
0.571000000000000396,-1.716349011589498819
0.572000000000000397,-1.705594469811613223
0.573000000000000398,-1.694898899862580688
0.574000000000000399,-1.684261811207820259
0.575000000000000400,-1.673682725720630149
0.576000000000000401,-1.663161177367896260
0.577000000000000401,-1.652696711900573989
0.578000000000000402,-1.642288886548893601
0.579000000000000403,-1.631937269722381290
0.580000000000000404,-1.621641440714715943
0.581000000000000405,-1.611400989413367624
0.582000000000000406,-1.601215516014102391
0.583000000000000407,-1.591084630740299932
0.584000000000000408,-1.581007953567127533
0.585000000000000409,-1.570985113950526424
0.586000000000000409,-1.561015750561028259
0.587000000000000410,-1.551099511022401511
0.588000000000000411,-1.541236051655053396
0.589000000000000412,-1.531425037224265040
0.590000000000000413,-1.521666140693137326
0.591000000000000414,-1.511959042980302481
0.592000000000000415,-1.502303432722337462
0.593000000000000416,-1.492699006040847820
0.594000000000000417,-1.483145466314203187
0.595000000000000417,-1.473642523953924810
0.596000000000000418,-1.464189896185577711
0.597000000000000419,-1.454787306834299576
0.598000000000000420,-1.445434486114750783
0.599000000000000421,-1.436131170425583470
0.600000000000000422,-1.426877102148315313
0.601000000000000423,-1.417672029450565141
0.602000000000000424,-1.408515706093648179
0.603000000000000425,-1.399407891244445867
0.604000000000000425,-1.390348349291503194
0.605000000000000426,-1.381336849665328437
0.606000000000000427,-1.372373166662854471
0.607000000000000428,-1.363457079275921524
0.608000000000000429,-1.354588371023897952
0.609000000000000430,-1.345766829790184138
0.610000000000000431,-1.336992247662740052
0.611000000000000432,-1.328264420778433763
0.612000000000000433,-1.319583149171232872
0.613000000000000433,-1.310948236624189800
