# hydroxyapatite-101-ph5_EST-JS
# h[nm],U(h)[kJ/mol]
0.149999999999999994,93.682709261449787164
0.150999999999999995,91.785893181094138527
0.151999999999999996,89.778872994130736629
0.152999999999999997,87.781930183622236541
0.153999999999999998,85.839451701945307605
0.154999999999999999,83.958363853993262182
0.156000000000000000,82.129966693114624832
0.157000000000000001,80.341516270142051326
0.158000000000000002,78.581694385264526659
0.159000000000000002,76.842610682758348162
0.160000000000000003,75.119982881041806877
0.161000000000000004,73.412483674347043916
0.162000000000000005,71.720818843323840497
0.163000000000000006,70.046834388981892516
0.164000000000000007,68.392788286799728326
0.165000000000000008,66.760828433681453475
0.166000000000000009,65.152667816520960287
0.167000000000000010,63.569424269450266252
0.168000000000000010,62.011584440153548314
0.169000000000000011,60.479052655272425909
0.170000000000000012,58.971250789080819743
0.171000000000000013,57.487242284598231379
0.172000000000000014,56.025860594291543748
0.173000000000000015,54.585828683017460605
0.174000000000000016,53.165861515600283838
0.175000000000000017,51.764747557272663414
0.176000000000000018,50.381408321687800367
0.177000000000000018,49.014937057496702266
0.178000000000000019,47.664618946234298846
0.179000000000000020,46.329935865509980886
0.180000000000000021,45.010559009630931371
0.181000000000000022,43.706332588691353180
0.182000000000000023,42.417251555544950747
0.183000000000000024,41.143435922595401166
0.184000000000000025,39.885103790280410863
0.185000000000000026,38.642544761699539890
0.186000000000000026,37.416094993551212156
0.187000000000000027,36.206114751365063853
0.188000000000000028,35.012969007141748534
0.189000000000000029,33.837011343747903425
0.190000000000000030,32.678571212076079178
0.191000000000000031,31.537944420438442705
0.192000000000000032,30.415386615510801249
0.193000000000000033,29.311109434067361690
0.194000000000000034,28.225278958176271971
0.195000000000000034,27.158016087050611986
0.196000000000000035,26.109398440420200416
0.197000000000000036,25.079463425775394114
0.198000000000000037,24.068212130505500568
0.199000000000000038,23.075613735907555935
0.200000000000000039,22.101610190069560957
0.201000000000000040,21.146120918178581860
0.202000000000000041,20.209047389896703351
0.203000000000000042,19.290277402625143566
0.204000000000000042,18.389688975708999408
0.205000000000000043,17.507153783261664159
0.206000000000000044,16.642540081932658325
0.207000000000000045,15.795715114473599883
0.208000000000000046,14.966546990412249230
0.209000000000000047,14.154906061700060604
0.210000000000000048,13.360665824122454737
0.211000000000000049,12.583703384882358733
0.212000000000000050,11.823899543449281069
0.213000000000000050,11.081138536890257740
0.214000000000000051,10.355307502837373335
0.215000000000000052,9.646295713366919600
0.216000000000000053,8.953993631706365974
0.217000000000000054,8.278291841161816933
0.218000000000000055,7.619079892252742070
0.219000000000000056,6.976245110004624550
0.220000000000000057,6.349671398896788332
0.221000000000000058,5.739238078285391786
0.222000000000000058,5.144818776366308910
0.223000000000000059,4.566280406046291596
0.224000000000000060,4.003482241548438125
0.225000000000000061,3.456275110271675999
0.226000000000000062,2.924500710411823690
0.227000000000000063,2.407991061174029834
0.228000000000000064,1.906568089090052265
0.229000000000000065,1.420043351009759647
0.230000000000000066,0.948217891770152144
0.231000000000000066,0.490882232347165715
0.232000000000000067,0.047816482456226696
0.233000000000000068,-0.381209429934051491
0.234000000000000069,-0.796435420894436974
0.235000000000000070,-1.198110814245080258
0.236000000000000071,-1.586493816919074096
0.237000000000000072,-1.961850916602388306
0.238000000000000073,-2.324456212446924130
0.239000000000000073,-2.674590689641347385
0.240000000000000074,-3.012541448454487458
0.241000000000000075,-3.338600898058970756
0.242000000000000076,-3.653065925024663763
0.243000000000000077,-3.956237045862712964
0.244000000000000078,-4.248417552420739263
0.245000000000000079,-4.529912658296602501
0.246000000000000080,-4.801028653767272836
0.247000000000000081,-5.062072076036583823
0.248000000000000081,-5.313348900901128324
0.249000000000000082,-5.555163761230055286
0.250000000000000111,-5.787819196960830581
0.251000000000000112,-6.011614940635827686
0.252000000000000113,-6.226847241852974335
0.253000000000000114,-6.433808233378667474
0.254000000000000115,-6.632785341081985919
0.255000000000000115,-6.824060739294234956
0.256000000000000116,-7.007910852682430303
0.257000000000000117,-7.184605905249625835
0.258000000000000118,-7.354409516639089262
0.259000000000000119,-7.517578345525009809
0.260000000000000120,-7.674361779517994364
0.261000000000000121,-7.825001670698005896
0.262000000000000122,-7.969732115611141587
0.263000000000000123,-8.108779278325769724
0.264000000000000123,-8.242361254938984416
0.265000000000000124,-8.370687977751712694
0.266000000000000125,-8.493961157190348388
0.267000000000000126,-8.612374259440375823
0.268000000000000127,-8.726112517672984126
0.269000000000000128,-8.835352974684841598
0.270000000000000129,-8.940264554733863278
0.271000000000000130,-9.041008162336590104
0.272000000000000131,-9.137736805793924333
0.273000000000000131,-9.230595743229921268
0.274000000000000132,-9.319722648960382827
0.275000000000000133,-9.405247798053361308
0.276000000000000134,-9.487294266999631631
0.277000000000000135,-9.565978148476633081
0.278000000000000136,-9.641408778263109269
0.279000000000000137,-9.713688972441563152
0.280000000000000138,-9.782915273110743826
0.281000000000000139,-9.849178200919926240
0.282000000000000139,-9.912562512828777983
0.283000000000000140,-9.973147463591036654
0.284000000000000141,-10.031007069555318623
0.285000000000000142,-10.086210373472201951
0.286000000000000143,-10.138821709091942580
0.287000000000000144,-10.188900964431011786
0.288000000000000145,-10.236503842678928322
0.289000000000000146,-10.281682119806569986
0.290000000000000147,-10.324483898026015183
0.291000000000000147,-10.364953854336604877
0.292000000000000148,-10.403133483474785947
0.293000000000000149,-10.439061334663524150
0.294000000000000150,-10.472773241633124286
0.295000000000000151,-10.504302545456701168
0.296000000000000152,-10.533680309811771281
0.297000000000000153,-10.560935528343856404
0.298000000000000154,-10.586095323868340401
0.299000000000000155,-10.609185139203708204
0.300000000000000155,-10.630228919482183514
0.301000000000000156,-10.649249285832986800
0.302000000000000157,-10.666267700379254535
0.303000000000000158,-10.681304622531342829
0.304000000000000159,-10.694379656598252737
0.305000000000000160,-10.705511690773718669
0.306000000000000161,-10.714719027585809741
0.307000000000000162,-10.722019505927642413
0.308000000000000163,-10.727430614812792697
0.309000000000000163,-10.730969599021944916
0.310000000000000164,-10.732653556828021024
0.311000000000000165,-10.732499530004503185
0.312000000000000166,-10.730524586337415016
0.313000000000000167,-10.726745894874529341
0.314000000000000168,-10.721180794156285998
0.315000000000000169,-10.713846853682181148
0.316000000000000170,-10.704761928873541166
0.317000000000000171,-10.693944209799086664
0.318000000000000171,-10.681412263933548701
0.319000000000000172,-10.667185073222276159
0.320000000000000173,-10.651282065725620640
0.321000000000000174,-10.633723142116968674
0.322000000000000175,-10.614528697306923277
0.323000000000000176,-10.593719637464058536
0.324000000000000177,-10.571317392699295823
0.325000000000000178,-10.547343925677104437
0.326000000000000179,-10.521821736412123371
0.327000000000000179,-10.494773863504164524
0.328000000000000180,-10.466223882058899974
0.329000000000000181,-10.436195898535192583
0.330000000000000182,-10.404714542752747874
0.331000000000000183,-10.371804957287356075
0.332000000000000184,-10.337492784472756213
0.333000000000000185,-10.301804151221002570
0.334000000000000186,-10.264765651865161544
0.335000000000000187,-10.226404329220020628
0.336000000000000187,-10.186747654048733835
0.337000000000000188,-10.145823503114723252
0.338000000000000189,-10.103660135990484292
0.339000000000000190,-10.060286170786429949
0.340000000000000191,-10.015730558954917484
0.341000000000000192,-9.970022559316833011
0.342000000000000193,-9.923191711449764085
0.343000000000000194,-9.875267808569471839
0.344000000000000195,-9.826280870028270442
0.345000000000000195,-9.776261113547031201
0.346000000000000196,-9.725238927289547419
0.347000000000000197,-9.673244841881496470
0.348000000000000198,-9.620309502468938234
0.349000000000000199,-9.566463640904693477
0.350000000000000200,-9.511738048144646740
0.351000000000000201,-9.456163546929328589
0.352000000000000202,-9.399770964820556074
0.353000000000000203,-9.342591107656772920
0.354000000000000203,-9.284654733485343314
0.355000000000000204,-9.225992527024475365
0.356000000000000205,-9.166635074702620400
0.357000000000000206,-9.106612840318133451
0.358000000000000207,-9.045956141357153868
0.359000000000000208,-8.984695126003677146
0.360000000000000209,-8.922859750871092288
0.361000000000000210,-8.860479759480760720
0.362000000000000210,-8.797584661509320725
0.363000000000000211,-8.734203712822797172
0.364000000000000212,-8.670365896312381082
0.365000000000000213,-8.606099903543320551
0.366000000000000214,-8.541434117225666256
0.367000000000000215,-8.476396594512543459
0.368000000000000216,-8.411015051129346887
0.369000000000000217,-8.345316846334455363
0.370000000000000218,-8.279328968710137460
0.371000000000000218,-8.213078022779962239
0.372000000000000219,-8.146590216447270549
0.373000000000000220,-8.079891349247391830
0.374000000000000221,-8.013006801404671364
0.375000000000000222,-7.945961523683824801
0.376000000000000223,-7.878780028023831150
0.377000000000000224,-7.811486378941362219
0.378000000000000225,-7.744104185689423048
0.379000000000000226,-7.676656595156134522
0.380000000000000226,-7.609166285487583892
0.381000000000000227,-7.541655460417677759
0.382000000000000228,-7.474145844287630958
0.383000000000000229,-7.406658677736801977
0.384000000000000230,-7.339214714046076615
0.385000000000000231,-7.271834216114863025
0.386000000000000232,-7.204536954051983244
0.387000000000000233,-7.137342203360825366
0.388000000000000234,-7.070268743698615133
0.389000000000000234,-7.003334858189807832
0.390000000000000235,-6.936558333273159072
0.391000000000000236,-6.869956459062336762
0.392000000000000237,-6.803546030199676409
0.393000000000000238,-6.737343347182940256
0.394000000000000239,-6.671364218144877789
0.395000000000000240,-6.605623961065672844
0.396000000000000241,-6.540137406398469189
0.397000000000000242,-6.474918900088330709
0.398000000000000242,-6.409982306965413379
0.399000000000000243,-6.345341014493227405
0.400000000000000244,-6.281007936853124640
0.401000000000000245,-6.216995519346833809
0.402000000000000246,-6.153315743098718649
0.403000000000000247,-6.089980130040094863
0.404000000000000248,-6.026999748158301529
0.405000000000000249,-5.964385216993553840
0.406000000000000250,-5.902146713366969166
0.407000000000000250,-5.840293977323696595
0.408000000000000251,-5.778836318275391015
0.409000000000000252,-5.717782621326779058
0.410000000000000253,-5.657141353771431902
0.411000000000000254,-5.596920571742392880
0.412000000000000255,-5.537127927003635541
0.413000000000000256,-5.477770673868910478
0.414000000000000257,-5.418855676234793251
0.415000000000000258,-5.360389414715457157
0.416000000000000258,-5.302377993866852712
0.417000000000000259,-5.244827149488634710
0.418000000000000260,-5.187742255992512597
0.419000000000000261,-5.131128333826117327
0.420000000000000262,-5.074990056942015215
0.421000000000000263,-5.019331760301816381
0.422000000000000264,-4.964157447405763257
0.423000000000000265,-4.909470797838618950
0.424000000000000266,-4.855275174823174389
0.425000000000000266,-4.801573632772813127
0.426000000000000267,-4.748368924835329352
0.427000000000000268,-4.695663510420258646
0.428000000000000269,-4.643459562702566323
0.429000000000000270,-4.591758976095829503
0.430000000000000271,-4.540563373688332405
0.431000000000000272,-4.489874114636026370
0.432000000000000273,-4.439692301506447336
0.433000000000000274,-4.390018787568173764
0.434000000000000274,-4.340854184020605189
0.435000000000000275,-4.292198867159253695
0.436000000000000276,-4.244052985472021255
0.437000000000000277,-4.196416466662119760
0.438000000000000278,-4.149289024593788788
0.439000000000000279,-4.102670166157069254
0.440000000000000280,-4.056559198048178772
0.441000000000000281,-4.010955233462392577
0.442000000000000282,-3.965857198696514985
0.443000000000000282,-3.921263839658190253
0.444000000000000283,-3.877173728279736054
0.445000000000000284,-3.833585268834218684
0.446000000000000285,-3.790496704151706808
0.447000000000000286,-3.747906121734118301
0.448000000000000287,-3.705811459766797267
0.449000000000000288,-3.664210513025666138
0.450000000000000289,-3.623100938678557092
0.451000000000000290,-3.582480261979766656
0.452000000000000290,-3.542345881856950651
0.453000000000000291,-3.502695076389598317
0.454000000000000292,-3.463525008178580666
0.455000000000000293,-3.424832729606282378
0.456000000000000294,-3.386615187987128017
0.457000000000000295,-3.348869230608258363
0.458000000000000296,-3.311591609660396784
0.459000000000000297,-3.274778987059002056
0.460000000000000298,-3.238427939155856361
0.461000000000000298,-3.202534961341480191
0.462000000000000299,-3.167096472538757368
0.463000000000000300,-3.132108819588249826
0.464000000000000301,-3.097568281525861611
0.465000000000000302,-3.063471073753525786
0.466000000000000303,-3.029813352103637225
0.467000000000000304,-2.996591216798111468
0.468000000000000305,-2.963800716302992466
0.469000000000000306,-2.931437851079531587
0.470000000000000306,-2.899498577232848096
0.471000000000000307,-2.867978810059168993
0.472000000000000308,-2.836874427492909412
0.473000000000000309,-2.806181273454674052
0.474000000000000310,-2.775895161101495923
0.475000000000000311,-2.746011875980530537
0.476000000000000312,-2.716527179087633748
0.477000000000000313,-2.687436809831990292
0.478000000000000314,-2.658736488908342466
0.479000000000000314,-2.630421921078162306
0.480000000000000315,-2.602488797861160386
0.481000000000000316,-2.574932800138675759
0.482000000000000317,-2.547749600670323300
0.483000000000000318,-2.520934866525476270
0.484000000000000319,-2.494484261430995886
0.485000000000000320,-2.468393448036838134
0.486000000000000321,-2.442658090100951362
0.487000000000000322,-2.417273854595061611
0.488000000000000322,-2.392236413732850231
0.489000000000000323,-2.367541446922104775
0.490000000000000324,-2.343184642642337501
0.491000000000000325,-2.319161700249460001
0.492000000000000326,-2.295468331708979459
0.493000000000000327,-2.272100263259364539
0.494000000000000328,-2.249053237006997996
0.495000000000000329,-2.226323012454326289
0.496000000000000330,-2.203905367962661899
0.497000000000000330,-2.181796102151204231
0.498000000000000331,-2.159991035233702839
0.499000000000000332,-2.138486010294347484
0.500000000000000333,-2.117276894504270146
0.501000000000000334,-2.096359580280170221
0.502000000000000335,-2.075729986386488868
0.503000000000000336,-2.055384058982607343
0.504000000000000337,-2.035317772616420662
0.505000000000000338,-2.015527131165744557
0.506000000000000338,-1.996008168728926169
0.507000000000000339,-1.976756950466013851
0.508000000000000340,-1.957769573391837437
0.509000000000000341,-1.939042167122371207
0.510000000000000342,-1.920570894575627019
0.511000000000000343,-1.902351952628432041
0.512000000000000344,-1.884381572730318810
0.513000000000000345,-1.866656021475814997
0.514000000000000346,-1.849171601136373466
0.515000000000000346,-1.831924650153111456
0.516000000000000347,-1.814911543591590348
0.517000000000000348,-1.798128693559838398
0.518000000000000349,-1.781572549590676235
0.519000000000000350,-1.765239598989574166
0.520000000000000351,-1.749126367149101968
0.521000000000000352,-1.733229417831070318
0.522000000000000353,-1.717545353417441190
0.523000000000000353,-1.702070815131023762
0.524000000000000354,-1.686802483227053839
0.525000000000000355,-1.671737077156563389
0.526000000000000356,-1.656871355702611126
0.527000000000000357,-1.642202117090310720
0.528000000000000358,-1.627726199071558355
0.529000000000000359,-1.613440478985456394
0.530000000000000360,-1.599341873795276037
0.531000000000000361,-1.585427340102877114
0.532000000000000361,-1.571693874141411262
0.533000000000000362,-1.558138511747198862
0.534000000000000363,-1.544758328311554019
0.535000000000000364,-1.531550438713384032
0.536000000000000365,-1.518511997233348509
0.537000000000000366,-1.505640197450336171
0.538000000000000367,-1.492932272120982340
0.539000000000000368,-1.480385493043018252
0.540000000000000369,-1.467997170903058812
0.541000000000000369,-1.455764655109628603
0.542000000000000370,-1.443685333612008126
0.543000000000000371,-1.431756632705596388
0.544000000000000372,-1.419976016824429310
0.545000000000000373,-1.408340988321455267
0.546000000000000374,-1.396849087237162834
0.547000000000000375,-1.385497891057166919
0.548000000000000376,-1.374285014459327936
0.549000000000000377,-1.363208109050920935
0.550000000000000377,-1.352264863096410252
0.551000000000000378,-1.341453001236364573
0.552000000000000379,-1.330770284197994480
0.553000000000000380,-1.320214508497824069
0.554000000000000381,-1.309783506136934950
0.555000000000000382,-1.299475144289313766
0.556000000000000383,-1.289287324983649841
0.557000000000000384,-1.279217984779128070
0.558000000000000385,-1.269265094435534591
0.559000000000000385,-1.259426658578161939
0.560000000000000386,-1.249700715357838998
0.561000000000000387,-1.240085336106527603
0.562000000000000388,-1.230578624988804659
0.563000000000000389,-1.221178718649611472
0.564000000000000390,-1.211883785858602902
0.565000000000000391,-1.202692027151433862
0.566000000000000392,-1.193601674468293572
0.567000000000000393,-1.184610990790017748
0.568000000000000393,-1.175718269772040525
0.569000000000000394,-1.166921835376508287
0.570000000000000395,-1.158220041502818987
0.571000000000000396,-1.149611271616835406
0.572000000000000397,-1.141093938379077244
0.573000000000000398,-1.132666483272066316
0.574000000000000399,-1.124327376227146846
0.575000000000000400,-1.116075115250926064
0.576000000000000401,-1.107908226051613099
0.577000000000000401,-1.099825261665457798
0.578000000000000402,-1.091824802083457557
0.579000000000000403,-1.083905453878550862
0.580000000000000404,-1.076065849833502952
0.581000000000000405,-1.068304648569617932
0.582000000000000406,-1.060620534176471175
0.583000000000000407,-1.053012215842829224
0.584000000000000408,-1.045478427488901074
0.585000000000000409,-1.038017927400066709
0.586000000000000409,-1.030629497862238342
0.587000000000000410,-1.023311944798980910
0.588000000000000411,-1.016064097410511069
0.589000000000000412,-1.008884807814720563
0.590000000000000413,-1.001772950690309916
0.591000000000000414,-0.994727422922163540
0.592000000000000415,-0.987747143249073312
0.593000000000000416,-0.980831051913883756
0.594000000000000417,-0.973978110316176648
0.595000000000000417,-0.967187300667591621
0.596000000000000418,-0.960457625649812186
0.597000000000000419,-0.953788108075378838
0.598000000000000420,-0.947177790551312904
0.599000000000000421,-0.940625735145697361
0.600000000000000422,-0.934131023057226506
0.601000000000000423,-0.927692754287809729
0.602000000000000424,-0.921310047318275593
0.603000000000000425,-0.914982038787242047
0.604000000000000425,-0.908707883173173414
0.605000000000000426,-0.902486752479692789
0.606000000000000427,-0.896317835924205442
0.607000000000000428,-0.890200339629786064
0.608000000000000429,-0.884133486320516915
0.609000000000000430,-0.878116515020113786
0.610000000000000431,-0.872148680754061267
0.611000000000000432,-0.866229254255131531
