# hydroxyapatite-101-ph5_CS-6338-AC
# h[nm],U(h)[kJ/mol]
0.149999999999999994,124.368057915528112289
0.150999999999999995,122.581487250527260358
0.151999999999999996,120.482812870726164078
0.152999999999999997,118.352585227420576075
0.153999999999999998,116.293805460365661020
0.154999999999999999,114.323895219840352411
0.156000000000000000,112.425564201592422364
0.157000000000000001,110.572994900526765605
0.158000000000000002,108.743750146327812445
0.159000000000000002,106.922853466812853185
0.160000000000000003,105.102927079807500377
0.161000000000000004,103.282637259250307693
0.162000000000000005,101.464677203565855734
0.163000000000000006,99.653899646036364857
0.164000000000000007,97.855851466361102098
0.165000000000000008,96.075764713418422502
0.166000000000000009,94.317959754151132756
0.167000000000000010,92.585575952988378390
0.168000000000000010,90.880537481668582700
0.169000000000000011,89.203670550498173952
0.170000000000000012,87.554903975495236068
0.171000000000000013,85.933502124356991203
0.172000000000000014,84.338295083402925911
0.173000000000000015,82.767884098095080958
0.174000000000000016,81.220810616361276857
0.175000000000000017,79.695684756289907114
0.176000000000000018,78.191274112435436905
0.177000000000000018,76.706556973234455654
0.178000000000000019,75.240745705164911783
0.179000000000000020,73.793286676569067595
0.180000000000000021,72.363842986807725310
0.181000000000000022,70.952265704987411254
0.182000000000000023,69.558558511603507668
0.183000000000000024,68.182839724080324117
0.184000000000000025,66.825304774916645556
0.185000000000000026,65.486191363973873081
0.186000000000000026,64.165748761727130045
0.187000000000000027,62.864212115268017556
0.188000000000000028,61.581782106726336679
0.189000000000000029,60.318609928594277392
0.190000000000000030,59.074787260672430023
0.191000000000000031,57.850340744625142975
0.192000000000000032,56.645230339081479087
0.193000000000000033,55.459350885796808939
0.194000000000000034,54.292536211671787783
0.195000000000000034,53.144565120046955542
0.196000000000000035,52.015168677071017100
0.197000000000000036,50.904038266303167859
0.198000000000000037,49.810833960003080279
0.199000000000000038,48.735192833306747673
0.200000000000000039,47.676736923588762807
0.201000000000000040,46.635080608853215267
0.202000000000000041,45.609837244042758186
0.203000000000000042,44.600624951567596099
0.204000000000000042,43.607071511607969683
0.205000000000000043,42.628818338794019382
0.206000000000000044,41.665523565009344509
0.207000000000000045,40.716864273843256683
0.208000000000000046,39.782537951322765934
0.209000000000000047,38.862263230769578115
0.210000000000000048,37.955780017760240241
0.211000000000000049,37.062849085028929608
0.212000000000000050,36.183251227503774317
0.213000000000000050,35.316786065233756631
0.214000000000000051,34.463270577382559168
0.215000000000000052,33.622537444317337929
0.216000000000000053,32.794433267600247461
0.217000000000000054,31.978816729822245435
0.218000000000000055,31.175556748053928402
0.219000000000000056,30.384530666516052833
0.220000000000000057,29.605622526113869242
0.221000000000000058,28.838721440916810224
0.222000000000000058,28.083720104613870916
0.223000000000000059,27.340513443533296822
0.224000000000000060,26.608997427027521354
0.225000000000000061,25.889068040920125924
0.226000000000000062,25.180620425292257636
0.227000000000000063,24.483548174135837172
0.228000000000000064,23.797742791291575770
0.229000000000000065,23.123093294580826296
0.230000000000000066,22.459485958087473279
0.231000000000000066,21.806804181095991169
0.232000000000000067,21.164928471194826898
0.233000000000000068,20.533736528453623293
0.234000000000000069,19.913103417328834155
0.235000000000000070,19.302901812991954955
0.236000000000000071,18.703002309062338071
0.237000000000000072,18.113273774214487588
0.238000000000000073,17.533583745779992569
0.239000000000000073,16.963798849238642674
0.240000000000000074,16.403785233355161921
0.241000000000000075,15.853409011644572502
0.242000000000000076,15.312536701807939465
0.243000000000000077,14.781035655753480995
0.244000000000000078,14.258774473785143400
0.245000000000000079,13.745623397486763650
0.246000000000000080,13.241454676742673513
0.247000000000000081,12.746142907202957062
0.248000000000000081,12.259565335319107859
0.249000000000000082,11.781602128835116261
0.250000000000000111,11.312136611317331614
0.251000000000000112,10.851055459942276826
0.252000000000000113,10.398248866331767815
0.253000000000000114,9.953610660733611226
0.254000000000000115,9.517038400289605349
0.255000000000000115,9.088433422517825377
0.256000000000000116,8.667700865461974047
0.257000000000000117,8.254749656232016619
0.258000000000000118,7.849492469880610557
0.259000000000000119,7.451845660731805765
0.260000000000000120,7.061729168406351675
0.261000000000000121,6.679066400876672915
0.262000000000000122,6.303784096935605596
0.263000000000000123,5.935812170483185213
0.264000000000000123,5.575083539025692758
0.265000000000000124,5.221533938747311865
0.266000000000000125,4.875101728458205663
0.267000000000000126,4.535727684648456659
0.268000000000000127,4.203354789786656553
0.269000000000000128,3.877928015899641423
0.270000000000000129,3.559394105356601390
0.271000000000000130,3.247701350659886632
0.272000000000000131,2.942799374919001565
0.273000000000000131,2.644638914553770093
0.274000000000000132,2.353171605641230180
0.275000000000000133,2.068349775188063067
0.276000000000000134,1.790126238479034626
0.277000000000000135,1.518454103523052101
0.278000000000000136,1.253286583491530992
0.279000000000000137,0.994576817921841494
0.280000000000000138,0.742277703341137296
0.281000000000000139,0.496341733852858069
0.282000000000000139,0.256720852121925081
0.283000000000000140,0.023366311093413562
0.284000000000000141,-0.203771453314834261
0.285000000000000142,-0.424742938393596947
0.286000000000000143,-0.639599679627337658
0.287000000000000144,-0.848394344487649499
0.288000000000000145,-1.051180815109262534
0.289000000000000146,-1.248014259984407515
0.290000000000000147,-1.438951194868695715
0.291000000000000147,-1.624049533141153079
0.292000000000000148,-1.803368625906359046
0.293000000000000149,-1.976969292165026815
0.294000000000000150,-2.144913839413557621
0.295000000000000151,-2.307266075061535915
0.296000000000000152,-2.464091309080198133
0.297000000000000153,-2.615456348314332935
0.298000000000000154,-2.761429482905426003
0.299000000000000155,-2.902080465285283406
0.300000000000000155,-3.037480482207267851
0.301000000000000156,-3.167702120286620460
0.302000000000000157,-3.292819325523190344
0.303000000000000158,-3.412907357278284870
0.304000000000000159,-3.528042737173909593
0.305000000000000160,-3.638303193376368316
0.306000000000000161,-3.743767600718496791
0.307000000000000162,-3.844515917104870173
0.308000000000000163,-3.940629116632975215
0.309000000000000163,-4.032189119850749570
0.310000000000000164,-4.119278721557051881
0.311000000000000165,-4.201981516536716477
0.312000000000000166,-4.280381823606430380
0.313000000000000167,-4.354564608331244813
0.314000000000000168,-4.424615404754848491
0.315000000000000169,-4.490620236469601068
0.316000000000000170,-4.552665537335069068
0.317000000000000171,-4.610838072136143495
0.318000000000000171,-4.665224857454366436
0.319000000000000172,-4.715913083008785200
0.320000000000000173,-4.762990033705190029
0.321000000000000174,-4.806543012615481558
0.322000000000000175,-4.846659265092352342
0.323000000000000176,-4.883425904207806312
0.324000000000000177,-4.916929837688115867
0.325000000000000178,-4.947257696502083135
0.326000000000000179,-4.974495765244628664
0.327000000000000179,-4.998729914442776590
0.328000000000000180,-5.020045534897128015
0.329000000000000181,-5.038527474158719599
0.330000000000000182,-5.054259975227497037
0.331000000000000183,-5.067326617547097456
0.332000000000000184,-5.077810260358115002
0.333000000000000185,-5.085792988461277808
0.334000000000000186,-5.091356060431214026
0.335000000000000187,-5.094579859311350489
0.336000000000000187,-5.095543845811376649
0.337000000000000188,-5.094326514019328123
0.338000000000000189,-5.091005349632659716
0.339000000000000190,-5.085656790704466523
0.340000000000000191,-5.078356190893972055
0.341000000000000192,-5.069177785203862641
0.342000000000000193,-5.058194658180648062
0.343000000000000194,-5.045478714548853105
0.344000000000000195,-5.031100652244282934
0.345000000000000195,-5.015129937807396132
0.346000000000000196,-4.997634784093046179
0.347000000000000197,-4.978682130249322491
0.348000000000000198,-4.958337623914701453
0.349000000000000199,-4.936665605579561245
0.350000000000000200,-4.913729095055663798
0.351000000000000201,-4.889589779994572893
0.352000000000000202,-4.864308006394242767
0.353000000000000203,-4.837942771031196187
0.354000000000000203,-4.810551715754363578
0.355000000000000204,-4.782191123575438851
0.356000000000000205,-4.752915916489956594
0.357000000000000206,-4.722779654962600659
0.358000000000000207,-4.691834539009695604
0.359000000000000208,-4.660131410812024200
0.360000000000000209,-4.627719758790884264
0.361000000000000210,-4.594647723080573343
0.362000000000000210,-4.560962102330971213
0.363000000000000211,-4.526708361774273826
0.364000000000000212,-4.491930642490805425
0.365000000000000213,-4.456671771809464389
0.366000000000000214,-4.420973274779450790
0.367000000000000215,-4.384875386650785245
0.368000000000000216,-4.348417066302520340
0.369000000000000217,-4.311636010558435927
0.370000000000000218,-4.274568669331651805
0.371000000000000218,-4.237250261540601137
0.372000000000000219,-4.199714791740538189
0.373000000000000220,-4.161995067416044414
0.374000000000000221,-4.124122716881554851
0.375000000000000222,-4.086128207738378926
0.376000000000000223,-4.048040865838502533
0.377000000000000224,-4.009888894706775453
0.378000000000000225,-3.971699395374846286
0.379000000000000226,-3.933498386581759210
0.380000000000000226,-3.895310825297914281
0.381000000000000227,-3.857160627530352492
0.382000000000000228,-3.819070689369409966
0.383000000000000229,-3.781062908238057130
0.384000000000000230,-3.743158204306860082
0.385000000000000231,-3.705376542039382493
0.386000000000000232,-3.667736951833975745
0.387000000000000233,-3.630257551729848764
0.388000000000000234,-3.592955569146476513
0.389000000000000234,-3.555847362627289066
0.390000000000000235,-3.518948443559631212
0.391000000000000236,-3.482273497844792676
0.392000000000000237,-3.445836407493049425
0.393000000000000238,-3.409650272120209991
0.394000000000000239,-3.373727430323370413
0.395000000000000240,-3.338079480914994068
0.396000000000000241,-3.302717303995664988
0.397000000000000242,-3.267651081847033456
0.398000000000000242,-3.232890319627848008
0.399000000000000243,-3.198443865856917423
0.400000000000000244,-3.164319932668110180
0.401000000000000245,-3.130526115823644595
0.402000000000000246,-3.097069414472740867
0.403000000000000247,-3.063956250643987911
0.404000000000000248,-3.031192488460611401
0.405000000000000249,-2.998783453068801563
0.406000000000000250,-2.966733949270162540
0.407000000000000250,-2.935048279850257735
0.408000000000000251,-2.903730263595986294
0.409000000000000252,-2.872783252995430026
0.410000000000000253,-2.842210151614452673
0.411000000000000254,-2.812013431145197639
0.412000000000000255,-2.782195148122214690
0.413000000000000256,-2.752756960302732203
0.414000000000000257,-2.723700142708071592
0.415000000000000258,-2.695025603324020302
0.416000000000000258,-2.666733898458303553
0.417000000000000259,-2.638825247754097880
0.418000000000000260,-2.611299548858823982
0.419000000000000261,-2.584156391748112291
0.420000000000000262,-2.557395072705172190
0.421000000000000263,-2.531014607956378892
0.422000000000000264,-2.505013746964104282
0.423000000000000265,-2.479390985378368661
0.424000000000000266,-2.454144577649276293
0.425000000000000266,-2.429272549302292639
0.426000000000000267,-2.404772708879066467
0.427000000000000268,-2.380642659546559514
0.428000000000000269,-2.356879810377580320
0.429000000000000270,-2.333481387306193255
0.430000000000000271,-2.310444443761469291
0.431000000000000272,-2.287765870983550442
0.432000000000000273,-2.265442408025917675
0.433000000000000274,-2.243470651448197462
0.434000000000000274,-2.221847064703786678
0.435000000000000275,-2.200567987226873523
0.436000000000000276,-2.179629643223528923
0.437000000000000277,-2.159028150171613980
0.438000000000000278,-2.138759527034430619
0.439000000000000279,-2.118819702193138532
0.440000000000000280,-2.099204521102943755
0.441000000000000281,-2.079909753678259143
0.442000000000000282,-2.060931101412085908
0.443000000000000282,-2.042264204234759184
0.444000000000000283,-2.023904647117517719
0.445000000000000284,-2.005847966426108187
0.446000000000000285,-1.988089656029794483
0.447000000000000286,-1.970625173171282274
0.448000000000000287,-1.953449944102702229
0.449000000000000288,-1.936559369493261240
0.450000000000000289,-1.919948829613759900
0.451000000000000290,-1.903613689303407241
0.452000000000000290,-1.887549302724279787
0.453000000000000291,-1.871751017908641845
0.454000000000000292,-1.856214181104505645
0.455000000000000293,-1.840934140924578966
0.456000000000000294,-1.825906252303832744
0.457000000000000295,-1.811125880270833433
0.458000000000000296,-1.796588403537901613
0.459000000000000297,-1.782289217915171253
0.460000000000000298,-1.768223739553508533
0.461000000000000298,-1.754387408021214068
0.462000000000000299,-1.740775689219368205
0.463000000000000300,-1.727384078140578705
0.464000000000000301,-1.714208101475904300
0.465000000000000302,-1.701243320074552035
0.466000000000000303,-1.688485331260939137
0.467000000000000304,-1.675929771013613845
0.468000000000000305,-1.663572316010485164
0.469000000000000306,-1.651408685544647925
0.470000000000000306,-1.639434643315157203
0.471000000000000307,-1.627645999096825946
0.472000000000000308,-1.616038610293269340
0.473000000000000309,-1.604608383377128744
0.474000000000000310,-1.593351275221470909
0.475000000000000311,-1.582263294326188729
0.476000000000000312,-1.571340501943236934
0.477000000000000313,-1.560579013104335111
0.478000000000000314,-1.549974997554765199
0.479000000000000314,-1.539524680596871864
0.480000000000000315,-1.529224343846580902
0.481000000000000316,-1.519070325906455299
0.482000000000000317,-1.509059022958433083
0.483000000000000318,-1.499186889279579216
0.484000000000000319,-1.489450437683875306
0.485000000000000320,-1.479846239893187310
0.486000000000000321,-1.470370926840299575
0.487000000000000322,-1.461021188906975521
0.488000000000000322,-1.451793776099774558
0.489000000000000323,-1.442685498166479174
0.490000000000000324,-1.433693224655686382
0.491000000000000325,-1.424813884922222496
0.492000000000000326,-1.416044468080837948
0.493000000000000327,-1.407382022910699249
0.494000000000000328,-1.398823657712976232
0.495000000000000329,-1.390366540123884276
0.496000000000000330,-1.382007896885357301
0.497000000000000330,-1.373745013575602414
0.498000000000000331,-1.365575234301507290
0.499000000000000332,-1.357495961355073444
0.500000000000000333,-1.349504654835764317
0.501000000000000334,-1.341598832240649353
0.502000000000000335,-1.333776068024282502
0.503000000000000336,-1.326033993130008026
0.504000000000000337,-1.318370294494475958
0.505000000000000338,-1.310782714526995685
0.506000000000000338,-1.303269050565368126
0.507000000000000339,-1.295827154309737717
0.508000000000000340,-1.288454931235932133
0.509000000000000341,-1.281150339989829190
0.510000000000000342,-1.273911391764019685
0.511000000000000343,-1.266736149658217458
0.512000000000000344,-1.259622728024647254
0.513000000000000345,-1.252569291799673135
0.514000000000000346,-1.245574055822907367
0.515000000000000346,-1.238635284144872895
0.516000000000000347,-1.231751289324382492
0.517000000000000348,-1.224920431716725489
0.518000000000000349,-1.218141118753591545
0.519000000000000350,-1.211411804215811516
0.520000000000000351,-1.204730987499790018
0.521000000000000352,-1.198097212878579398
0.522000000000000353,-1.191509068758408896
0.523000000000000353,-1.184965186931525860
0.524000000000000354,-1.178464241826163938
0.525000000000000355,-1.172004949754331005
0.526000000000000356,-1.165586068158181554
0.527000000000000357,-1.159206394855684774
0.528000000000000358,-1.152864767286162051
0.529000000000000359,-1.146560061756436655
0.530000000000000360,-1.140291192688068556
0.531000000000000361,-1.134057111866352052
0.532000000000000361,-1.127856807691530960
0.533000000000000362,-1.121689304432803347
0.534000000000000363,-1.115553661485555459
0.535000000000000364,-1.109448972632318675
0.536000000000000365,-1.103374365307862037
0.537000000000000366,-1.097328999868856458
0.538000000000000367,-1.091312068868442786
0.539000000000000368,-1.085322796336174678
0.540000000000000369,-1.079360437063539013
0.541000000000000369,-1.073424275895527025
0.542000000000000370,-1.067513627028425338
0.543000000000000371,-1.061627833314206182
0.544000000000000372,-1.055766265571734808
0.545000000000000373,-1.049928321905062134
0.546000000000000374,-1.044113427029008001
0.547000000000000375,-1.038321031602271738
0.548000000000000376,-1.032550611568269883
0.549000000000000377,-1.026801667503857818
0.550000000000000377,-1.021073723976116510
0.551000000000000378,-1.015366328907359783
0.552000000000000379,-1.009679052948499578
0.553000000000000380,-1.004011488860890200
0.554000000000000381,-0.998363250906746380
0.555000000000000382,-0.992733974248299900
0.556000000000000383,-0.987123314355678461
0.557000000000000384,-0.981530946423706752
0.558000000000000385,-0.975956564797572979
0.559000000000000385,-0.970399882407530390
0.560000000000000386,-0.964860630212594494
0.561000000000000387,-0.959338556653328345
0.562000000000000388,-0.953833427113700116
0.563000000000000389,-0.948345023392085928
0.564000000000000390,-0.942873143181375162
0.565000000000000391,-0.937417599558218795
0.566000000000000392,-0.931978220481395780
0.567000000000000393,-0.926554848299317557
0.568000000000000393,-0.921147339266604193
0.569000000000000394,-0.915755563069752698
0.570000000000000395,-0.910379402361857659
0.571000000000000396,-0.905018752306316232
0.572000000000000397,-0.899673520129542714
0.573000000000000398,-0.894343624682567673
0.574000000000000399,-0.889028996011546058
0.575000000000000400,-0.883729574937049067
0.576000000000000401,-0.878445312642127774
0.577000000000000401,-0.873176170269092444
0.578000000000000402,-0.867922118524883324
0.579000000000000403,-0.862683137295006119
0.580000000000000404,-0.857459215265969243
0.581000000000000405,-0.852250349556088693
0.582000000000000406,-0.847056545354650803
0.583000000000000407,-0.841877815569277432
0.584000000000000408,-0.836714180481472503
0.585000000000000409,-0.831565667410211540
0.586000000000000409,-0.826432310383513724
0.587000000000000410,-0.821314149817899186
0.588000000000000411,-0.816211232205610093
0.589000000000000412,-0.811123609809561108
0.590000000000000413,-0.806051340365833702
0.591000000000000414,-0.800994486793696225
0.592000000000000415,-0.795953116913019620
0.593000000000000416,-0.790927303168957874
0.594000000000000417,-0.785917122363829934
0.595000000000000417,-0.780922655396120047
0.596000000000000418,-0.775943987006391334
0.597000000000000419,-0.770981205530155811
0.598000000000000420,-0.766034402657451374
0.599000000000000421,-0.761103673199130082
0.600000000000000422,-0.756189114859690981
0.601000000000000423,-0.751290828016564993
0.602000000000000424,-0.746408915505760051
0.603000000000000425,-0.741543482413757227
0.604000000000000425,-0.736694635875518866
0.605000000000000426,-0.731862484878552211
0.606000000000000427,-0.727047140072915377
0.607000000000000428,-0.722248713586976843
0.608000000000000429,-0.717467318849003943
0.609000000000000430,-0.712703070414236417
0.610000000000000431,-0.707956083797578128
0.611000000000000432,-0.703226475311637289
0.612000000000000433,-0.698514361910058224
0.613000000000000433,-0.693819861036109264
