# hydroxyapatite-101-ph5_CS-61461-AC
# h[nm],U(h)[kJ/mol]
0.149999999999999994,129.549525073989229895
0.150999999999999995,126.846686293591758954
0.151999999999999996,124.260808643373621862
0.152999999999999997,121.760237465344246743
0.153999999999999998,119.334157934354450958
0.154999999999999999,116.976550281439813261
0.156000000000000000,114.680440988977608185
0.157000000000000001,112.436991308352929764
0.158000000000000002,110.236456695668678663
0.159000000000000002,108.069526911329830909
0.160000000000000003,105.928396683065415118
0.161000000000000004,103.807367978126492858
0.162000000000000005,101.703005253042675804
0.163000000000000006,99.613954052681918938
0.164000000000000007,97.540552187987742627
0.165000000000000008,95.484347916279716628
0.166000000000000009,93.447611930818823112
0.167000000000000010,91.432900710147009704
0.168000000000000010,89.442703236030666858
0.169000000000000011,87.479183257829888021
0.170000000000000012,85.544015337367866891
0.171000000000000013,83.638304143230840282
0.172000000000000014,81.762571829299261594
0.173000000000000015,79.916796744085175419
0.174000000000000016,78.100487203394024505
0.175000000000000017,76.312775822012469007
0.176000000000000018,74.552522329382455268
0.177000000000000018,72.818415448956727687
0.178000000000000019,71.109067004408558432
0.179000000000000020,69.423093745450202618
0.180000000000000021,67.759184365022449015
0.181000000000000022,66.116150772795478474
0.182000000000000023,64.492963903462808162
0.183000000000000024,62.888775204205742853
0.184000000000000025,61.302925510079376181
0.185000000000000026,59.734943330831278274
0.186000000000000026,58.184534689828183218
0.187000000000000027,56.651566623859920924
0.188000000000000028,55.136046314584163497
0.189000000000000029,53.638097614752233255
0.190000000000000030,52.157936484904197982
0.191000000000000031,50.695846592369711914
0.192000000000000032,49.252156061819434285
0.193000000000000033,47.827216117933218698
0.194000000000000034,46.421382134448727186
0.195000000000000034,45.034997404968130752
0.196000000000000035,43.668379781807416862
0.197000000000000036,42.321811190212372367
0.198000000000000037,40.995529915306384794
0.199000000000000038,39.689725476045389030
0.200000000000000039,38.404535841466255874
0.201000000000000040,37.140046706529027176
0.202000000000000041,35.896292524663792278
0.203000000000000042,34.673258988596742824
0.204000000000000042,33.470886657172449929
0.205000000000000043,32.289075441002445643
0.206000000000000044,31.127689681425835033
0.207000000000000045,29.986563583373946784
0.208000000000000046,28.865506791499011996
0.209000000000000047,27.764309928885403167
0.210000000000000048,26.682749947620340691
0.211000000000000049,25.620595169533864066
0.212000000000000050,24.577609922823111077
0.213000000000000050,23.553558705564462628
0.214000000000000051,22.548209829954672045
0.215000000000000052,21.561338521332388041
0.216000000000000053,20.592729463542429613
0.217000000000000054,19.642178797043566618
0.218000000000000055,18.709495588420256951
0.219000000000000056,17.794502799790844705
0.220000000000000057,16.897037794187500737
0.221000000000000058,16.016952418535375102
0.222000000000000058,15.154112709588250851
0.223000000000000059,14.308398270323143819
0.224000000000000060,13.479701365069534091
0.225000000000000061,12.667925781268959184
0.226000000000000062,11.872985504428498871
0.227000000000000063,11.094803250732782729
0.228000000000000064,10.333308899087683130
0.229000000000000065,9.588437861232705473
0.230000000000000066,8.860129425120572222
0.231000000000000066,8.148325103133213787
0.232000000000000067,7.452967012990368900
0.233000000000000068,6.773996315491933373
0.234000000000000069,6.111351729591315340
0.235000000000000070,5.464968141780548017
0.236000000000000071,4.834775323425279048
0.237000000000000072,4.220696766550295465
0.238000000000000073,3.622648645672313705
0.239000000000000073,3.040538910620652846
0.240000000000000074,2.474266512884881308
0.241000000000000075,1.923720765889825657
0.242000000000000076,1.388780837715188898
0.243000000000000077,0.869315373145545300
0.244000000000000078,0.365182240546989667
0.245000000000000079,-0.123771602093705718
0.246000000000000080,-0.597710128575780764
0.247000000000000081,-1.056808160691083298
0.248000000000000081,-1.501251187144823085
0.249000000000000082,-1.931235093498725686
0.250000000000000111,-2.346965811688270342
0.251000000000000112,-2.748658897774729049
0.252000000000000113,-3.136539046585092194
0.253000000000000114,-3.510839551780489565
0.254000000000000115,-3.871801719696377209
0.255000000000000115,-4.219674245023618653
0.256000000000000116,-4.554712556066135676
0.257000000000000117,-4.877178136927128094
0.258000000000000118,-5.187337833553107735
0.259000000000000119,-5.485463150114493480
0.260000000000000120,-5.771829541730630453
0.261000000000000121,-6.046715709063501976
0.262000000000000122,-6.310402899816841327
0.263000000000000123,-6.563174221689315857
0.264000000000000123,-6.805313970849923066
0.265000000000000124,-7.037106979532319784
0.266000000000000125,-7.258837985889002198
0.267000000000000126,-7.470791028806613276
0.268000000000000127,-7.673248869964893970
0.269000000000000128,-7.866492445023763658
0.270000000000000129,-8.050800345448788420
0.271000000000000130,-8.226448332135115393
0.272000000000000131,-8.393708881664258215
0.273000000000000131,-8.552850765727708193
0.274000000000000132,-8.704138663975651724
0.275000000000000133,-8.847832810298466910
0.276000000000000134,-8.984188672322080293
0.277000000000000135,-9.113456663694684323
0.278000000000000136,-9.235881888562639475
0.279000000000000137,-9.351703917474365468
0.280000000000000138,-9.461156593813161209
0.281000000000000139,-9.564467869741829276
0.282000000000000139,-9.661859670542188638
0.283000000000000140,-9.753547786150047472
0.284000000000000141,-9.839741788619994267
0.285000000000000142,-9.920644974202932787
0.286000000000000143,-9.996454328681647183
0.287000000000000144,-10.067360514584436260
0.288000000000000145,-10.133547878883645055
0.289000000000000146,-10.195194479781978458
0.290000000000000147,-10.252472131196126881
0.291000000000000147,-10.305546463560945725
0.292000000000000148,-10.354576999599547804
0.293000000000000149,-10.399717243732229832
0.294000000000000150,-10.441114783830954593
0.295000000000000151,-10.478911404064543689
0.296000000000000152,-10.513243207621771447
0.297000000000000153,-10.544240748145622177
0.298000000000000154,-10.572029168759964790
0.299000000000000155,-10.596728347620674171
0.300000000000000155,-10.618453048975066366
0.301000000000000156,-10.637313078766567287
0.302000000000000157,-10.653413443875527022
0.303000000000000158,-10.666854514140634791
0.304000000000000159,-10.677732186359653710
0.305000000000000160,-10.686138049521158422
0.306000000000000161,-10.692159550571876281
0.307000000000000162,-10.695880160075949661
0.308000000000000163,-10.697379537172682973
0.309000000000000163,-10.696733693288711819
0.310000000000000164,-10.694015154108196697
0.311000000000000165,-10.689293119350402606
0.312000000000000166,-10.682633619948587622
0.313000000000000167,-10.674099672266338601
0.314000000000000168,-10.663751429028135220
0.315000000000000169,-10.651646326679500731
0.316000000000000170,-10.637839228928950064
0.317000000000000171,-10.622382566258396608
0.318000000000000171,-10.605326471221538043
0.319000000000000172,-10.586718909380714138
0.320000000000000173,-10.566605805761327019
0.321000000000000174,-10.545031166730012728
0.322000000000000175,-10.522037197227863459
0.323000000000000176,-10.497664413313412268
0.324000000000000177,-10.471951749991395886
0.325000000000000178,-10.444936664323273945
0.326000000000000179,-10.416655233833886030
0.327000000000000179,-10.387142250244819408
0.328000000000000180,-10.356431308580397399
0.329000000000000181,-10.324554891706089421
0.330000000000000182,-10.291544450370682995
0.331000000000000183,-10.257430478835393828
0.332000000000000184,-10.222242586182108681
0.333000000000000185,-10.186009563401716704
0.334000000000000186,-10.148759446371018456
0.335000000000000187,-10.110519574832805390
0.336000000000000187,-10.071316647499383379
0.337000000000000188,-10.031176773403860381
0.338000000000000189,-9.990125519627659045
0.339000000000000190,-9.948187955535122029
0.340000000000000191,-9.905388693648202292
0.341000000000000192,-9.861751927295973275
0.342000000000000193,-9.817301465173930097
0.343000000000000194,-9.772060762948857615
0.344000000000000195,-9.726052952044014432
0.345000000000000195,-9.679300865739374871
0.346000000000000196,-9.631827062719736432
0.347000000000000197,-9.583653848202272840
0.348000000000000198,-9.534803292773101902
0.349000000000000199,-9.485297249059886582
0.350000000000000200,-9.435157366365411136
0.351000000000000201,-9.384405103383729241
0.352000000000000202,-9.333061739117841427
0.353000000000000203,-9.281148382114585260
0.354000000000000203,-9.228685978129028911
0.355000000000000204,-9.175695316327090012
0.356000000000000205,-9.122197034131831472
0.357000000000000206,-9.068211620814995655
0.358000000000000207,-9.013759419931542283
0.359000000000000208,-8.958860630691516391
0.360000000000000209,-8.903535308359591838
0.361000000000000210,-8.847803363768750984
0.362000000000000210,-8.791684562031097272
0.363000000000000211,-8.735198520524669163
0.364000000000000212,-8.678364706231809222
0.365000000000000213,-8.621202432500504997
0.366000000000000214,-8.563730855296887157
0.367000000000000215,-8.505968969013249392
0.368000000000000216,-8.447935601892591961
0.369000000000000217,-8.389649411127150458
0.370000000000000218,-8.331128877685156198
0.371000000000000218,-8.272392300916667551
0.372000000000000219,-8.213457792986229578
0.373000000000000220,-8.154343273177101281
0.374000000000000221,-8.095066462108636784
0.375000000000000222,-8.035644875905600060
0.376000000000000223,-7.976095820355531885
0.377000000000000224,-7.916436385087431304
0.378000000000000225,-7.856683437802407965
0.379000000000000226,-7.796853618584708379
0.380000000000000226,-7.736963334318948782
0.381000000000000227,-7.677028753237034486
0.382000000000000228,-7.617065799616381305
0.383000000000000229,-7.557090148648657468
0.384000000000000230,-7.497117221496372608
0.385000000000000231,-7.437162180552936874
0.386000000000000232,-7.377239924919730463
0.387000000000000233,-7.317365086112259220
0.388000000000000234,-7.257552024005697433
0.389000000000000234,-7.197814823028811482
0.390000000000000235,-7.138167288613528783
0.391000000000000236,-7.078622943906421661
0.392000000000000237,-7.019195026746734456
0.393000000000000238,-6.959896486914773917
0.394000000000000239,-6.900739983653018328
0.395000000000000240,-6.841737883461552983
0.396000000000000241,-6.782902258168304499
0.397000000000000242,-6.724244883273639672
0.398000000000000242,-6.665777236568251496
0.399000000000000243,-6.607510497022242468
0.400000000000000244,-6.549455543942697133
0.401000000000000245,-6.491622956396582822
0.402000000000000246,-6.434023012894845905
0.403000000000000247,-6.376665691333322172
0.404000000000000248,-6.319560669185525725
0.405000000000000249,-6.262717323941892289
0.406000000000000250,-6.206144733789618506
0.407000000000000250,-6.149851678527062049
0.408000000000000251,-6.093846640706090945
0.409000000000000252,-6.038137806995810486
0.410000000000000253,-5.982733069760519662
0.411000000000000254,-5.927640028844869846
0.412000000000000255,-5.872865993558757935
0.413000000000000256,-5.818417984854600711
0.414000000000000257,-5.764302737689229517
0.415000000000000258,-5.710526703562912587
0.416000000000000258,-5.657096053227625987
0.417000000000000259,-5.604016679556877989
0.418000000000000260,-5.551294200569333093
0.419000000000000261,-5.498933962598358427
0.420000000000000262,-5.446941043599889731
0.421000000000000263,-5.395320256590848018
0.422000000000000264,-5.344076153210465918
0.423000000000000265,-5.293213027396960868
0.424000000000000266,-5.242734919172197472
0.425000000000000266,-5.192645618526815277
0.426000000000000267,-5.142948669398686334
0.427000000000000268,-5.093647373737530515
0.428000000000000269,-5.044744795648696822
0.429000000000000270,-4.996243765609315268
0.430000000000000271,-4.948146884750009633
0.431000000000000272,-4.900456529195741595
0.432000000000000273,-4.853174854459297194
0.433000000000000274,-4.806303799881312067
0.434000000000000274,-4.759845093110646630
0.435000000000000275,-4.713800254619347818
0.436000000000000276,-4.668170602246469514
0.437000000000000277,-4.622957255765173024
0.438000000000000278,-4.578161141467828266
0.439000000000000279,-4.533782996763962458
0.440000000000000280,-4.489823374786007903
0.441000000000000281,-4.446282648998097109
0.442000000000000282,-4.403161017803336463
0.443000000000000282,-4.360458509144987893
0.444000000000000283,-4.318174985097471996
0.445000000000000284,-4.276310146443002225
0.446000000000000285,-4.234863537229917263
0.447000000000000286,-4.193834549309205073
0.448000000000000287,-4.153222426845332826
0.449000000000000288,-4.113026270798346928
0.450000000000000289,-4.073245043373765029
0.451000000000000290,-4.033877572437349457
0.452000000000000290,-3.994922555891873284
0.453000000000000291,-3.956378566013069698
0.454000000000000292,-3.918244053742310662
0.455000000000000293,-3.880517352933477326
0.456000000000000294,-3.843196684551862141
0.457000000000000295,-3.806280160822904435
0.458000000000000296,-3.769765789328796135
0.459000000000000297,-3.733651477051156853
0.460000000000000298,-3.697935034357987316
0.461000000000000298,-3.662614178933395692
0.462000000000000299,-3.627686539648633079
0.463000000000000300,-3.593149660373037957
0.464000000000000301,-3.559001003723788248
0.465000000000000302,-3.525237954753296155
0.466000000000000303,-3.491857824573266100
0.467000000000000304,-3.458857853914557356
0.468000000000000305,-3.426235216622086632
0.469000000000000306,-3.393987023084048982
0.470000000000000306,-3.362110323594987626
0.471000000000000307,-3.330602111652055441
0.472000000000000308,-3.299459327184290025
0.473000000000000309,-3.268678859714392981
0.474000000000000310,-3.238257551452927263
0.475000000000000311,-3.208192200324682553
0.476000000000000312,-3.178479562927268187
0.477000000000000313,-3.149116357421751999
0.478000000000000314,-3.120099266355564449
0.479000000000000314,-3.091424939417751983
0.480000000000000315,-3.063089996126715953
0.481000000000000316,-3.035091028450810136
0.482000000000000317,-3.007424603361974036
0.483000000000000318,-2.980087265322874490
0.484000000000000319,-2.953075538707877090
0.485000000000000320,-2.926385930158405202
0.486000000000000321,-2.900014930873100472
0.487000000000000322,-2.873959018833391443
0.488000000000000322,-2.848214660964996536
0.489000000000000323,-2.822778315236093682
0.490000000000000324,-2.797646432692681540
0.491000000000000325,-2.772815459431941854
0.492000000000000326,-2.748281838514218478
0.493000000000000327,-2.724042011814458597
0.494000000000000328,-2.700092421813824473
0.495000000000000329,-2.676429513332319043
0.496000000000000330,-2.653049735203190984
0.497000000000000330,-2.629949541890046483
0.498000000000000331,-2.607125395047409366
0.499000000000000332,-2.584573765025735437
0.500000000000000333,-2.562291132321676379
0.501000000000000334,-2.540273988974522279
0.502000000000000335,-2.518518839909746454
0.503000000000000336,-2.497022204230595843
0.504000000000000337,-2.475780616458615579
0.505000000000000338,-2.454790627724076302
0.506000000000000338,-2.434048806907259443
0.507000000000000339,-2.413551741731531308
0.508000000000000340,-2.393296039809155396
0.509000000000000341,-2.373278329640859496
0.510000000000000342,-2.353495261570027974
0.511000000000000343,-2.333943508692551738
0.512000000000000344,-2.314619767723240962
0.513000000000000345,-2.295520759819800638
0.514000000000000346,-2.276643231365317099
0.515000000000000346,-2.257983954710163665
0.516000000000000347,-2.239539728874307301
0.517000000000000348,-2.221307380211003046
0.518000000000000349,-2.203283763032684028
0.519000000000000350,-2.185465760200121288
0.520000000000000351,-2.167850283675679446
0.521000000000000352,-2.150434275041633203
0.522000000000000353,-2.133214705984425308
0.523000000000000353,-2.116188578745760385
0.524000000000000354,-2.099352926541476982
0.525000000000000355,-2.082704813949008305
0.526000000000000356,-2.066241337264329125
0.527000000000000357,-2.049959624829296612
0.528000000000000358,-2.033856837330132450
0.529000000000000359,-2.017930168067996632
0.530000000000000360,-2.002176843202389200
0.531000000000000361,-1.986594121968261462
0.532000000000000361,-1.971179296867591857
0.533000000000000362,-1.955929693836259364
0.534000000000000363,-1.940842672386959844
0.535000000000000364,-1.925915625728955138
0.536000000000000365,-1.911145980865396776
0.537000000000000366,-1.896531198668987894
0.538000000000000367,-1.882068773936657946
0.539000000000000368,-1.867756235424069988
0.540000000000000369,-1.853591145860524758
0.541000000000000369,-1.839571101945095322
0.542000000000000370,-1.825693734324557838
0.543000000000000371,-1.811956707553838530
0.544000000000000372,-1.798357720039627905
0.545000000000000373,-1.784894503967781931
0.546000000000000374,-1.771564825215139694
0.547000000000000375,-1.758366483246360357
0.548000000000000376,-1.745297310996437590
0.549000000000000377,-1.732355174739382608
0.550000000000000377,-1.719537973943717102
0.551000000000000378,-1.706843641115319388
0.552000000000000379,-1.694270141628168691
0.553000000000000380,-1.681815473543526895
0.554000000000000381,-1.669477667418056699
0.555000000000000382,-1.657254786101452826
0.556000000000000383,-1.645144924523971541
0.557000000000000384,-1.633146209474483301
0.558000000000000385,-1.621256799369382717
0.559000000000000385,-1.609474884012937590
0.560000000000000386,-1.597798684349430287
0.561000000000000387,-1.586226452207603055
0.562000000000000388,-1.574756470037776745
0.563000000000000389,-1.563387050642109477
0.564000000000000390,-1.552116536898340282
0.565000000000000391,-1.540943301477473826
0.566000000000000392,-1.529865746555727934
0.567000000000000393,-1.518882303521173593
0.568000000000000393,-1.507991432675361176
0.569000000000000394,-1.497191622930341026
0.570000000000000395,-1.486481391501400129
0.571000000000000396,-1.475859283595801319
0.572000000000000397,-1.465323872097936686
0.573000000000000398,-1.454873757251092359
0.574000000000000399,-1.444507566336231008
0.575000000000000400,-1.434223953347991465
0.576000000000000401,-1.424021598668242072
0.577000000000000401,-1.413899208737468216
0.578000000000000402,-1.403855515724198311
0.579000000000000403,-1.393889277192763787
0.580000000000000404,-1.383999275769661974
0.581000000000000405,-1.374184318808697292
0.582000000000000406,-1.364443238055178309
0.583000000000000407,-1.354774889309367181
0.584000000000000408,-1.345178152089417267
0.585000000000000409,-1.335651929293970586
0.586000000000000409,-1.326195146864644014
0.587000000000000410,-1.316806753448589218
0.588000000000000411,-1.307485720061277945
0.589000000000000412,-1.298231039749753624
0.590000000000000413,-1.289041727256430736
0.591000000000000414,-1.279916818683688229
0.592000000000000415,-1.270855371159371305
0.593000000000000416,-1.261856462503336385
0.594000000000000417,-1.252919190895215085
0.595000000000000417,-1.244042674543546001
0.596000000000000418,-1.235226051356320465
0.597000000000000419,-1.226468478613199631
0.598000000000000420,-1.217769132639388907
0.599000000000000421,-1.209127208481391325
0.600000000000000422,-1.200541919584671824
0.601000000000000423,-1.192012497473384780
0.602000000000000424,-1.183538191432234488
0.603000000000000425,-1.175118268190589621
0.604000000000000425,-1.166752011608902517
0.605000000000000426,-1.158438722367540086
0.606000000000000427,-1.150177717658150023
0.607000000000000428,-1.141968330877489279
0.608000000000000429,-1.133809911324029862
0.609000000000000430,-1.125701823897109488
0.610000000000000431,-1.117643448798987249
0.611000000000000432,-1.109634181239632200
