# hydroxyapatite-101-ph5_CS-59559-AC
# h[nm],U(h)[kJ/mol]
0.149999999999999994,104.256725701541967055
0.150999999999999995,102.475721834897015583
0.151999999999999996,100.612913203558534292
0.152999999999999997,98.760372129134580632
0.153999999999999998,96.955250944197729268
0.154999999999999999,95.204827246389783113
0.156000000000000000,93.502288187939015529
0.157000000000000001,91.836086928621668335
0.158000000000000002,90.195001562703481568
0.159000000000000002,88.570448041612394263
0.160000000000000003,86.957141137115243623
0.161000000000000004,85.352848034068969696
0.162000000000000005,83.757720359191154103
0.163000000000000006,82.173504597028056651
0.164000000000000007,80.602801660810698081
0.165000000000000008,79.048459928543465480
0.166000000000000009,77.513130891474503414
0.167000000000000010,75.998983646204280262
0.168000000000000010,74.507556844715139732
0.169000000000000011,73.039719206671819052
0.170000000000000012,71.595708520399071517
0.171000000000000013,70.175221546827089014
0.172000000000000014,68.777531573304756307
0.173000000000000015,67.401615348330338406
0.174000000000000016,66.046276025437919088
0.175000000000000017,64.710253136317163580
0.176000000000000018,63.392314299377936493
0.177000000000000018,62.091326292461133107
0.178000000000000019,60.806305307034016039
0.179000000000000020,59.536447735022854033
0.180000000000000021,58.281143820462958161
0.181000000000000022,57.039977044245006255
0.182000000000000023,55.812712304498575122
0.183000000000000024,54.599275899905727272
0.184000000000000025,53.399730097252849248
0.185000000000000026,52.214244732287099282
0.186000000000000026,51.043067905225726122
0.187000000000000027,49.886497427458650122
0.188000000000000028,48.744854281781861971
0.189000000000000029,47.618458993676647140
0.190000000000000030,46.507611487313326393
0.191000000000000031,45.412574723122190790
0.192000000000000032,44.333562185759518570
0.193000000000000033,43.270729110897221403
0.194000000000000034,42.224167203232873646
0.195000000000000034,41.193902501913392200
0.196000000000000035,40.179895987977886307
0.197000000000000036,39.182046496004467429
0.198000000000000037,38.200195483536170116
0.199000000000000038,37.234133222022151699
0.200000000000000039,36.283605997359956064
0.201000000000000040,35.348323942612481119
0.202000000000000041,34.427969166622290231
0.203000000000000042,33.522203887140065603
0.204000000000000042,32.630678323347545700
0.205000000000000043,31.753038148410052344
0.206000000000000044,30.888931346503504471
0.207000000000000045,30.038014359584405355
0.208000000000000046,29.199957446294803276
0.209000000000000047,28.374449208388064392
0.210000000000000048,27.561200268718522466
0.211000000000000049,26.759946109140344106
0.212000000000000050,25.970449096719601556
0.213000000000000050,25.192499742708264421
0.214000000000000051,24.425917251048282708
0.215000000000000052,23.670549422116025085
0.216000000000000053,22.926271983352005890
0.217000000000000054,22.192987421726499520
0.218000000000000055,21.470623394048029553
0.219000000000000056,20.759130790291603574
0.220000000000000057,20.058481522747136694
0.221000000000000058,19.368666110189607821
0.222000000000000058,18.689691121729325118
0.223000000000000059,18.021576539780628678
0.224000000000000060,17.364353095909176972
0.225000000000000061,16.718059627381428811
0.226000000000000062,16.082740496209506631
0.227000000000000063,15.458443106500430630
0.228000000000000064,14.845215550093479706
0.229000000000000065,14.243104404891852255
0.230000000000000066,13.652152705037906344
0.231000000000000066,13.072398097190575328
0.232000000000000067,12.503871192679145707
0.233000000000000068,11.946594121245766473
0.234000000000000069,11.400579288462273198
0.235000000000000070,10.865828335712350849
0.236000000000000071,10.342331298860734989
0.237000000000000072,9.830065959370068995
0.238000000000000073,9.328997379655184830
0.239000000000000073,8.839077612860027244
0.240000000000000074,8.360245575975010723
0.241000000000000075,7.892427074259822817
0.242000000000000076,7.435534964264407520
0.243000000000000077,6.989469442323349213
0.244000000000000078,6.554118445206453814
0.245000000000000079,6.129358149613149287
0.246000000000000080,5.715053557374469406
0.247000000000000081,5.311059153546738187
0.248000000000000081,4.917219625024396024
0.249000000000000082,4.533370627841813771
0.250000000000000111,4.159339591955711235
0.251000000000000112,3.794946552983237353
0.252000000000000113,3.440005001097335313
0.253000000000000114,3.094322738039404719
0.254000000000000115,2.757702733981623133
0.255000000000000115,2.429943976750759571
0.256000000000000116,2.110842306698498483
0.257000000000000117,1.800191231263637448
0.258000000000000118,1.497782714011664407
0.259000000000000119,1.203407933650229911
0.260000000000000120,0.916858009201261259
0.261000000000000121,0.637924688158163611
0.262000000000000122,0.366400995065684743
0.263000000000000123,0.102081838530653488
0.264000000000000123,-0.155235424799689353
0.265000000000000124,-0.405750470267039809
0.266000000000000125,-0.649659529768655375
0.267000000000000126,-0.887154960985718000
0.268000000000000127,-1.118424861034052586
0.269000000000000128,-1.343652723972037721
0.270000000000000129,-1.563017141313657765
0.271000000000000130,-1.776691544443509185
0.272000000000000131,-1.984843987613765348
0.273000000000000131,-2.187636970019170679
0.274000000000000132,-2.385227295292280836
0.275000000000000133,-2.577765966636205608
0.276000000000000134,-2.765398115713323612
0.277000000000000135,-2.948262963333616149
0.278000000000000136,-3.126493809934573598
0.279000000000000137,-3.300218053812332464
0.280000000000000138,-3.469557235050027000
0.281000000000000139,-3.634627103092346267
0.282000000000000139,-3.795537705932423567
0.283000000000000140,-3.952393498907711855
0.284000000000000141,-4.105293471142863027
0.285000000000000142,-4.254331287729202771
0.286000000000000143,-4.399595445789930004
0.287000000000000144,-4.541169442646713073
0.288000000000000145,-4.679131954376266833
0.289000000000000146,-4.813557023121743939
0.290000000000000147,-4.944514251605256483
0.291000000000000147,-5.072069003370272000
0.292000000000000148,-5.196282607368381434
0.293000000000000149,-5.317212565590223150
0.294000000000000150,-5.434912762527039476
0.295000000000000151,-5.549433675335119887
0.296000000000000152,-5.660822583660364060
0.297000000000000153,-5.769123778163866234
0.298000000000000154,-5.874378766871341639
0.299000000000000155,-5.976626478548864085
0.300000000000000155,-6.075903462384713016
0.301000000000000156,-6.172244083331566600
0.302000000000000157,-6.265680712535226071
0.303000000000000158,-6.356243912344306857
0.304000000000000159,-6.443962615461080290
0.305000000000000160,-6.528864297855515808
0.306000000000000161,-6.610975145123542340
0.307000000000000162,-6.690320212026001911
0.308000000000000163,-6.766923574996681623
0.309000000000000163,-6.840808477456695513
0.310000000000000164,-6.911997467817853291
0.311000000000000165,-6.980512530099764135
0.312000000000000166,-7.046375207124507156
0.313000000000000167,-7.109606716288469741
0.314000000000000168,-7.170228057943916156
0.315000000000000169,-7.228260116452675632
0.316000000000000170,-7.283723754001752759
0.317000000000000171,-7.336639897294854329
0.318000000000000171,-7.387029617255899794
0.319000000000000172,-7.434914201900123309
0.320000000000000173,-7.480315222545348419
0.321000000000000174,-7.523254593551113700
0.322000000000000175,-7.563754625786144103
0.323000000000000176,-7.601838074035677906
0.324000000000000177,-7.637528178569188420
0.325000000000000178,-7.670848701096382172
0.326000000000000179,-7.701823955345505901
0.327000000000000179,-7.730478832501782804
0.328000000000000180,-7.756838821747261470
0.329000000000000181,-7.780930026144896594
0.330000000000000182,-7.802779174110002103
0.331000000000000183,-7.822413626712263479
0.332000000000000184,-7.839861381049433753
0.333000000000000185,-7.855151069931896934
0.334000000000000186,-7.868311958114037274
0.335000000000000187,-7.879373935304530896
0.336000000000000187,-7.888367506183293187
0.337000000000000188,-7.895323777647652363
0.338000000000000189,-7.900274443505108657
0.339000000000000190,-7.903251766823933266
0.340000000000000191,-7.904288560146566667
0.341000000000000192,-7.903418163764551529
0.342000000000000193,-7.900674422246467543
0.343000000000000194,-7.896091659403801089
0.344000000000000195,-7.889704651872034624
0.345000000000000195,-7.881548601477597060
0.346000000000000196,-7.871659106553272167
0.347000000000000197,-7.860072132357896812
0.348000000000000198,-7.846823980748462546
0.349000000000000199,-7.831951259245417241
0.350000000000000200,-7.815490849624825209
0.351000000000000201,-7.797479876163589729
0.352000000000000202,-7.777955673656974156
0.353000000000000203,-7.756955755320545265
0.354000000000000203,-7.734517780681931853
0.355000000000000204,-7.710679523560703963
0.356000000000000205,-7.685478840228552322
0.357000000000000206,-7.658953637835305805
0.358000000000000207,-7.631141843179915618
0.359000000000000208,-7.602081371899918949
0.360000000000000209,-7.571810098146768198
0.361000000000000210,-7.540365824808764827
0.362000000000000210,-7.507786254338071785
0.363000000000000211,-7.474108960232854315
0.364000000000000212,-7.439371359220785962
0.365000000000000213,-7.403610684185125024
0.366000000000000214,-7.366863957870153357
0.367000000000000215,-7.329167967398229067
0.368000000000000216,-7.290559239626697163
0.369000000000000217,-7.251074017368668301
0.370000000000000218,-7.210748236498240260
0.371000000000000218,-7.169617503956741800
0.372000000000000219,-7.127717076673607544
0.373000000000000220,-7.085081841412028680
0.374000000000000221,-7.041746295546642997
0.375000000000000222,-6.997744528777592343
0.376000000000000223,-6.953110205782839337
0.377000000000000224,-6.907876549807933309
0.378000000000000225,-6.862076327190251845
0.379000000000000226,-6.815741832812513223
0.380000000000000226,-6.768904876478553767
0.381000000000000227,-6.721596770202173943
0.382000000000000228,-6.673848316398585112
0.383000000000000229,-6.625689796966130807
0.384000000000000230,-6.577150963244591253
0.385000000000000231,-6.528261026835290082
0.386000000000000232,-6.479048651266721137
0.387000000000000233,-6.429541944488692984
0.388000000000000234,-6.379768452176706184
0.389000000000000234,-6.329755151827860082
0.390000000000000235,-6.279528447628381471
0.391000000000000236,-6.229114166072657888
0.392000000000000237,-6.178537552312742598
0.393000000000000238,-6.127823267217177516
0.394000000000000239,-6.076995385117245796
0.395000000000000240,-6.026077392218793349
0.396000000000000241,-5.975092185657266519
0.397000000000000242,-5.924062073173550047
0.398000000000000242,-5.873008773388143311
0.399000000000000243,-5.821953416651016511
0.400000000000000244,-5.770916546444574635
0.401000000000000245,-5.719918121317322246
0.402000000000000246,-5.668977517325670235
0.403000000000000247,-5.618113530961714730
0.404000000000000248,-5.567344382544890280
0.405000000000000249,-5.516687720055675648
0.406000000000000250,-5.466160623389685114
0.407000000000000250,-5.415779609010972884
0.408000000000000251,-5.365560634983434163
0.409000000000000252,-5.315519106359795742
0.410000000000000253,-5.265669880907831057
0.411000000000000254,-5.216027275153989784
0.412000000000000255,-5.166605070724939353
0.413000000000000256,-5.117416520967990934
0.414000000000000257,-5.068474357831751931
0.415000000000000258,-5.019790798988924330
0.416000000000000258,-4.971377555183469354
0.417000000000000259,-4.923245837784949508
0.418000000000000260,-4.875406366533278302
0.419000000000000261,-4.827869377457586708
0.420000000000000262,-4.780644630953427843
0.421000000000000263,-4.733741420003031664
0.422000000000000264,-4.687168578523736251
0.423000000000000265,-4.640934489830296883
0.424000000000000266,-4.595047095197303477
0.425000000000000266,-4.549513902508202534
0.426000000000000267,-4.504341994978187103
0.427000000000000268,-4.459538039938526488
0.428000000000000269,-4.415108297670366611
0.429000000000000270,-4.371058630276676737
0.430000000000000271,-4.327394510581248355
0.431000000000000272,-4.284121031044303862
0.432000000000000273,-4.241242912684620947
0.433000000000000274,-4.198764513998592740
0.434000000000000274,-4.156689839866968050
0.435000000000000275,-4.115022550440612825
0.436000000000000276,-4.073765969996914649
0.437000000000000277,-4.032923095758887300
0.438000000000000278,-3.992496606669527104
0.439000000000000279,-3.952488872114273910
0.440000000000000280,-3.912901960584809213
0.441000000000000281,-3.873737648277880030
0.442000000000000282,-3.834997427623153321
0.443000000000000282,-3.796682515734417507
0.444000000000000283,-3.758793862778898820
0.445000000000000284,-3.721332160259711141
0.446000000000000285,-3.684297849206762177
0.447000000000000286,-3.647691128271945527
0.448000000000000287,-3.611511961724416242
0.449000000000000288,-3.575760087342435778
0.450000000000000289,-3.540435024198207437
0.451000000000000290,-3.505536080332650961
0.452000000000000290,-3.471062360317236362
0.453000000000000291,-3.437012772700176022
0.454000000000000292,-3.403386037334726666
0.455000000000000293,-3.370180692587350535
0.456000000000000294,-3.337395102423938997
0.457000000000000295,-3.305027463372334218
0.458000000000000296,-3.273075811359738019
0.459000000000000297,-3.241538028423733842
0.460000000000000298,-3.210411849295815134
0.461000000000000298,-3.179694867856612817
0.462000000000000299,-3.149384543462050878
0.463000000000000300,-3.119478207139919856
0.464000000000000301,-3.089973067656528016
0.465000000000000302,-3.060866217453193094
0.466000000000000303,-3.032154638452489337
0.467000000000000304,-3.003835207734366186
0.468000000000000305,-2.975904703082336233
0.469000000000000306,-2.948359808400022875
0.470000000000000306,-2.921197118998637432
0.471000000000000307,-2.894413146755784982
0.472000000000000308,-2.868004325146459088
0.473000000000000309,-2.841967014146857373
0.474000000000000310,-2.816297505011983393
0.475000000000000311,-2.790992024927928306
0.476000000000000312,-2.766046741539983422
0.477000000000000313,-2.741457767357563746
0.478000000000000314,-2.717221164037261438
0.479000000000000314,-2.693332946545269557
0.480000000000000315,-2.669789087200443056
0.481000000000000316,-2.646585519599495839
0.482000000000000317,-2.623718142425681243
0.483000000000000318,-2.601182823142505374
0.484000000000000319,-2.578975401573990300
0.485000000000000320,-2.557091693373103602
0.486000000000000321,-2.535527493379924113
0.487000000000000322,-2.514278578871259384
0.488000000000000322,-2.493340712703318918
0.489000000000000323,-2.472709646349276813
0.490000000000000324,-2.452381122833343863
0.491000000000000325,-2.432350879563204504
0.492000000000000326,-2.412614651062499505
0.493000000000000327,-2.393168171605265737
0.494000000000000328,-2.374007177754038356
0.495000000000000329,-2.355127410803495636
0.496000000000000330,-2.336524619131429059
0.497000000000000330,-2.318194560458925135
0.498000000000000331,-2.300133004021509997
0.499000000000000332,-2.282335732653188565
0.500000000000000333,-2.264798544785151080
0.501000000000000334,-2.247517256360965554
0.502000000000000335,-2.230487702670147954
0.503000000000000336,-2.213705740101885144
0.504000000000000337,-2.197167247820718039
0.505000000000000338,-2.180868129366023034
0.506000000000000338,-2.164804314177061428
0.507000000000000339,-2.148971759045382957
0.508000000000000340,-2.133366449496338912
0.509000000000000341,-2.117984401101512759
0.510000000000000342,-2.102821660723723340
0.511000000000000343,-2.087874307696390375
0.512000000000000344,-2.073138454938936892
0.513000000000000345,-2.058610250009906828
0.514000000000000346,-2.044285876099512844
0.515000000000000346,-2.030161552963191784
0.516000000000000347,-2.016233537797829989
0.517000000000000348,-2.002498126062311368
0.518000000000000349,-1.988951652243852619
0.519000000000000350,-1.975590490571816016
0.520000000000000351,-1.962411055680448158
0.521000000000000352,-1.949409803222115212
0.522000000000000353,-1.936583230432491032
0.523000000000000353,-1.923927876649165869
0.524000000000000354,-1.911440323785177586
0.525000000000000355,-1.899117196758795645
0.526000000000000356,-1.886955163881010922
0.527000000000000357,-1.874950937202122248
0.528000000000000358,-1.863101272818666887
0.529000000000000359,-1.851402971142154685
0.530000000000000360,-1.839852877130767395
0.531000000000000361,-1.828447880485385868
0.532000000000000361,-1.817184915811151935
0.533000000000000362,-1.806060962745790421
0.534000000000000363,-1.795073046055880805
0.535000000000000364,-1.784218235702273336
0.536000000000000365,-1.773493646875754282
0.537000000000000366,-1.762896440004134035
0.538000000000000367,-1.752423820731777271
0.539000000000000368,-1.742073039872758411
0.540000000000000369,-1.731841393338556800
0.541000000000000369,-1.721726222041440435
0.542000000000000370,-1.711724911774439750
0.543000000000000371,-1.701834893068939980
0.544000000000000372,-1.692053641030837552
0.545000000000000373,-1.682378675156179781
0.546000000000000374,-1.672807559127186039
0.547000000000000375,-1.663337900589537455
0.548000000000000376,-1.653967350911837997
0.549000000000000377,-1.644693604928006980
0.550000000000000377,-1.635514400663478085
0.551000000000000378,-1.626427519045981374
0.552000000000000379,-1.617430783601679689
0.553000000000000380,-1.608522060137420606
0.554000000000000381,-1.599699256409803594
0.555000000000000382,-1.590960321781845099
0.556000000000000383,-1.582303246867829971
0.557000000000000384,-1.573726063167127043
0.558000000000000385,-1.565226842687526432
0.559000000000000385,-1.556803697558812427
0.560000000000000386,-1.548454779637118639
0.561000000000000387,-1.540178280100710007
0.562000000000000388,-1.531972429037730343
0.563000000000000389,-1.523835495026518716
0.564000000000000390,-1.515765784708983821
0.565000000000000391,-1.507761642357612342
0.566000000000000392,-1.499821449436578913
0.567000000000000393,-1.491943624157481718
0.568000000000000393,-1.484126621030154469
0.569000000000000394,-1.476368930409020397
0.570000000000000395,-1.468669078035458986
0.571000000000000396,-1.461025624576552051
0.572000000000000397,-1.453437165160719191
0.573000000000000398,-1.445902328910527723
0.574000000000000399,-1.438419778473177590
0.575000000000000400,-1.430988209548931467
0.576000000000000401,-1.423606350417918831
0.577000000000000401,-1.416272961465643965
0.578000000000000402,-1.408986834707502522
0.579000000000000403,-1.401746793312640627
0.580000000000000404,-1.394551691127502435
0.581000000000000405,-1.387400412199287114
0.582000000000000406,-1.380291870299673596
0.583000000000000407,-1.373225008449021400
0.584000000000000408,-1.366198798441365270
0.585000000000000409,-1.359212240370409663
0.586000000000000409,-1.352264362156781585
0.587000000000000410,-1.345354219076790425
0.588000000000000411,-1.338480893292853802
0.589000000000000412,-1.331643493385888721
0.590000000000000413,-1.324841153889774858
0.591000000000000414,-1.318073034828146639
0.592000000000000415,-1.311338321253681105
0.593000000000000416,-1.304636222790020117
0.594000000000000417,-1.297965973176541166
0.595000000000000417,-1.291326829816121791
0.596000000000000418,-1.284718073325990861
0.597000000000000419,-1.278139007091912083
0.598000000000000420,-1.271588956825718597
0.599000000000000421,-1.265067270126418952
0.600000000000000422,-1.258573316044928392
0.601000000000000423,-1.252106484652574458
0.602000000000000424,-1.245666186613463511
0.603000000000000425,-1.239251852760826278
0.604000000000000425,-1.232862933677400408
0.605000000000000426,-1.226498899279967247
0.606000000000000427,-1.220159238408144553
0.607000000000000428,-1.213843458417398713
0.608000000000000429,-1.207551084776543604
0.609000000000000430,-1.201281660669543561
0.610000000000000431,-1.195034746601924436
0.611000000000000432,-1.188809920011655752
0.612000000000000433,-1.182606774884646050
0.613000000000000433,-1.176424921374903176
