# hydroxyapatite-101-ph5_CS-55104-AC
# h[nm],U(h)[kJ/mol]
0.149999999999999994,142.990541811180747800
0.150999999999999995,139.178560642253245305
0.151999999999999996,136.474333112224030629
0.152999999999999997,134.089684931578460692
0.153999999999999998,131.719219411596583313
0.154999999999999999,129.287344686560032869
0.156000000000000000,126.811464194104814851
0.157000000000000001,124.333452726059135784
0.158000000000000002,121.889626949517719368
0.159000000000000002,119.501133134193949559
0.160000000000000003,117.174140420952852537
0.161000000000000004,114.903891878320223441
0.162000000000000005,112.679505462451928111
0.163000000000000006,110.488087844359029077
0.164000000000000007,108.317660279783282817
0.165000000000000008,106.158881810971706727
0.166000000000000009,104.005774706205258440
0.167000000000000010,101.855726421350311739
0.168000000000000010,99.709033356465326392
0.169000000000000011,97.568207250695735411
0.170000000000000012,95.437209732153917230
0.171000000000000013,93.320727315347326680
0.172000000000000014,91.223554034762059928
0.173000000000000015,89.150113885549515658
0.174000000000000016,87.104130076768981894
0.175000000000000017,85.088431493393756000
0.176000000000000018,83.104877026311072541
0.177000000000000018,81.154373869384727413
0.178000000000000019,79.236964983245655958
0.179000000000000020,77.351962428892747425
0.180000000000000021,75.498106194811470004
0.181000000000000022,73.673731745559919659
0.182000000000000023,71.876933290078540040
0.183000000000000024,70.105713361993451826
0.184000000000000025,68.358112515330191172
0.185000000000000026,66.632315661576086541
0.186000000000000026,64.926733773670051164
0.187000000000000027,63.240061373023863212
0.188000000000000028,61.571311440727868103
0.189000000000000029,59.919830213662905294
0.190000000000000030,58.285294807028058983
0.191000000000000031,56.667696813570572090
0.192000000000000032,55.067315029174665142
0.193000000000000033,53.484680300384411566
0.194000000000000034,51.920535230012568206
0.195000000000000034,50.375791152176212506
0.196000000000000035,48.851484429996624215
0.197000000000000036,47.348733762677944981
0.198000000000000037,45.868699832248253756
0.199000000000000038,44.412548286975763290
0.200000000000000039,42.981416756919415434
0.201000000000000040,41.576386332155209402
0.202000000000000041,40.198457708010280953
0.203000000000000042,38.848532014058278605
0.204000000000000042,37.527396193039479044
0.205000000000000043,36.235712679563889083
0.206000000000000044,34.974013043049822613
0.207000000000000045,33.742695201114436543
0.208000000000000046,32.542023774711957174
0.209000000000000047,31.372133140926013795
0.210000000000000048,30.233032739870527195
0.211000000000000049,29.124614205323389626
0.212000000000000050,28.046659911519089547
0.213000000000000050,26.998852558332043117
0.214000000000000051,25.980785451612483428
0.215000000000000052,24.991973172773207068
0.216000000000000053,24.031862370274033935
0.217000000000000054,23.099842444125322061
0.218000000000000055,22.195255931920677028
0.219000000000000056,21.317408440445785089
0.220000000000000057,20.465578000032799366
0.221000000000000058,19.639023749171432343
0.222000000000000058,18.836993884210880168
0.223000000000000059,18.058732833203116286
0.224000000000000060,17.303487634036940790
0.225000000000000061,16.570513515077141875
0.226000000000000062,15.859078691688120344
0.227000000000000063,15.168468404468137933
0.228000000000000064,14.497988234958892662
0.229000000000000065,13.846966742250936377
0.230000000000000066,13.214757469519430089
0.231000000000000066,12.600740373329450961
0.232000000000000067,12.004322730782796214
0.233000000000000068,11.424939580459474442
0.234000000000000069,10.862053752849528010
0.235000000000000070,10.315155544769886831
0.236000000000000071,9.783762090297278391
0.237000000000000072,9.267416478182724404
0.238000000000000073,8.765686662693717324
0.239000000000000073,8.278164211484726920
0.240000000000000074,7.804462930534557863
0.241000000000000075,7.344217402512041026
0.242000000000000076,6.897081471216746529
0.243000000000000077,6.462726701059395396
0.244000000000000078,6.040840836953677240
0.245000000000000079,5.631126286531283220
0.246000000000000080,5.233298643301372621
0.247000000000000081,4.847085266278543081
0.248000000000000081,4.472223928721179576
0.249000000000000082,4.108461545964229522
0.250000000000000111,3.755552989904263228
0.251000000000000112,3.413259995502075039
0.252000000000000113,3.081350162704612927
0.253000000000000114,2.759596055452015584
0.254000000000000115,2.447774397912908739
0.255000000000000115,2.145665366777552041
0.256000000000000116,1.853051977317723864
0.257000000000000117,1.569719559983721258
0.258000000000000118,1.295455323539451253
0.259000000000000119,1.030048000120406870
0.260000000000000120,0.773287567124427255
0.261000000000000121,0.524965040497628821
0.262000000000000122,0.284872333742675843
0.263000000000000123,0.052802176843394569
0.264000000000000123,-0.171451910746570041
0.265000000000000124,-0.388095598871794789
0.266000000000000125,-0.597333682924371723
0.267000000000000126,-0.799369983146451246
0.268000000000000127,-0.994407212360198356
0.269000000000000128,-1.182646817263230954
0.270000000000000129,-1.364288798162170302
0.271000000000000130,-1.539531511729206548
0.272000000000000131,-1.708571461061769270
0.273000000000000131,-1.871603077010653537
0.274000000000000132,-2.028818494420871588
0.275000000000000133,-2.180407326607557206
0.276000000000000134,-2.326556441069205672
0.277000000000000135,-2.467449739125883390
0.278000000000000136,-2.603267941864173984
0.279000000000000137,-2.734188384474474542
0.280000000000000138,-2.860384820782545745
0.281000000000000139,-2.982027239507320182
0.282000000000000139,-3.099281693521347858
0.283000000000000140,-3.212310143150515440
0.284000000000000141,-3.321270314325553752
0.285000000000000142,-3.426315572190309133
0.286000000000000143,-3.527594810580312323
0.287000000000000144,-3.625252357609918707
0.288000000000000145,-3.719427897447536768
0.289000000000000146,-3.810256408214265811
0.290000000000000147,-3.897868115813464041
0.291000000000000147,-3.982388463384236132
0.292000000000000148,-4.063938095972365439
0.293000000000000149,-4.142632859924966660
0.294000000000000150,-4.218583816440935053
0.295000000000000151,-4.291897268646905239
0.296000000000000152,-4.362674801516344125
0.297000000000000153,-4.431013333908465412
0.298000000000000154,-4.497005181971230670
0.299000000000000155,-4.560738133129609295
0.300000000000000155,-4.622295529864801189
0.301000000000000156,-4.681756362481770850
0.302000000000000157,-4.739195370060943269
0.303000000000000158,-4.794683148793843941
0.304000000000000159,-4.848286266911959963
0.305000000000000160,-4.900067385431756684
0.306000000000000161,-4.950085383956947638
0.307000000000000162,-4.998395490800391805
0.308000000000000163,-5.045049416712268808
0.309000000000000163,-5.090095491528153104
0.310000000000000164,-5.133578803079456243
0.311000000000000165,-5.175541337739211656
0.312000000000000166,-5.216022122008119766
0.313000000000000167,-5.255057364578421542
0.314000000000000168,-5.292680598346668042
0.315000000000000169,-5.328922821880114569
0.316000000000000170,-5.363812639875469301
0.317000000000000171,-5.397376402182349153
0.318000000000000171,-5.429638340997084534
0.319000000000000172,-5.460620705865808056
0.320000000000000173,-5.490343896167537707
0.321000000000000174,-5.518826590779731589
0.322000000000000175,-5.546085874659209658
0.323000000000000176,-5.572137362100973768
0.324000000000000177,-5.596995316465850578
0.325000000000000178,-5.620672766195118797
0.326000000000000179,-5.643181616956730373
0.327000000000000179,-5.664532759792239247
0.328000000000000180,-5.684736175157295790
0.329000000000000181,-5.703801032771243840
0.330000000000000182,-5.721735787211716939
0.331000000000000183,-5.738548269210769881
0.332000000000000184,-5.754245772626843447
0.333000000000000185,-5.768835137084500353
0.334000000000000186,-5.782322826289899353
0.335000000000000187,-5.794715002044451779
0.336000000000000187,-5.806017593993226811
0.337000000000000188,-5.816236365156505883
0.338000000000000189,-5.825376973304862815
0.339000000000000190,-5.833445028248108066
0.340000000000000191,-5.840446145117508259
0.341000000000000192,-5.846385993729589892
0.342000000000000193,-5.851270344126396239
0.343000000000000194,-5.855105108394214497
0.344000000000000195,-5.857896378867652132
0.345000000000000195,-5.859650462831519135
0.346000000000000196,-5.860373913836201432
0.347000000000000197,-5.860073559746068028
0.348000000000000198,-5.858756527642818845
0.349000000000000199,-5.856430265707691873
0.350000000000000200,-5.853102562207967985
0.351000000000000201,-5.848781561713935595
0.352000000000000202,-5.843475778672903687
0.353000000000000203,-5.837194108466769116
0.354000000000000203,-5.829945836079066801
0.355000000000000204,-5.821740642496423312
0.356000000000000205,-5.812588608968214388
0.357000000000000206,-5.802500219246598867
0.358000000000000207,-5.791486359926869554
0.359000000000000208,-5.779558319006395273
0.360000000000000209,-5.766727782777728351
0.361000000000000210,-5.753006831168777424
0.362000000000000210,-5.738407931640401749
0.363000000000000211,-5.722943931748629254
0.364000000000000212,-5.706628050475777592
0.365000000000000213,-5.689473868431386805
0.366000000000000214,-5.671495317020776028
0.367000000000000215,-5.652706666675491043
0.368000000000000216,-5.633122514236746703
0.369000000000000217,-5.612757769579144629
0.370000000000000218,-5.591627641558896578
0.371000000000000218,-5.569747623366889222
0.372000000000000219,-5.547133477363693999
0.373000000000000220,-5.523801219470112933
0.374000000000000221,-5.499767103183273775
0.375000000000000222,-5.475047603284911801
0.376000000000000223,-5.449659399305245344
0.377000000000000224,-5.423619358802283408
0.378000000000000225,-5.396944520513278221
0.379000000000000226,-5.369652077431712911
0.380000000000000226,-5.341759359860307477
0.381000000000000227,-5.313283818487020582
0.382000000000000228,-5.284243007528509395
0.383000000000000229,-5.254654567982271374
0.384000000000000230,-5.224536211025858634
0.385000000000000231,-5.193905701599146774
0.386000000000000232,-5.162780842202446152
0.387000000000000233,-5.131179456941207917
0.388000000000000234,-5.099119375845114099
0.389000000000000234,-5.066618419487446623
0.390000000000000235,-5.033694383927810989
0.391000000000000236,-5.000365025999526480
0.392000000000000237,-4.966648048960594863
0.393000000000000238,-4.932561088525304172
0.394000000000000239,-4.898121699291436926
0.395000000000000240,-4.863347341576345073
0.396000000000000241,-4.828255368673357140
0.397000000000000242,-4.792863014538179200
0.398000000000000242,-4.757187381913634994
0.399000000000000243,-4.721245430899273288
0.400000000000000244,-4.685053967971154698
0.401000000000000245,-4.648629635455806763
0.402000000000000246,-4.611988901460836843
0.403000000000000247,-4.575148050263765143
0.404000000000000248,-4.538123173159364754
0.405000000000000249,-4.500930159764825689
0.406000000000000250,-4.463584689780980774
0.407000000000000250,-4.426102225207064755
0.408000000000000251,-4.388498003005453896
0.409000000000000252,-4.350787028212255159
0.410000000000000253,-4.312984067488632611
0.411000000000000254,-4.275103643107348361
0.412000000000000255,-4.237160027368166659
0.413000000000000256,-4.199167237435383448
0.414000000000000257,-4.161139030590011778
0.415000000000000258,-4.123088899889001624
0.416000000000000258,-4.085030070223093723
0.417000000000000259,-4.046975494764850190
0.418000000000000260,-4.008937851797859331
0.419000000000000261,-3.970929541917928240
0.420000000000000262,-3.932962685596771646
0.421000000000000263,-3.895049121098566047
0.422000000000000264,-3.857200402739386469
0.423000000000000265,-3.819427799479569785
0.424000000000000266,-3.781742293838907365
0.425000000000000266,-3.744154581124283343
0.426000000000000267,-3.706675068959578656
0.427000000000000268,-3.669313877107428734
0.428000000000000269,-3.632080837572463139
0.429000000000000270,-3.594985494975728280
0.430000000000000271,-3.558037107189858439
0.431000000000000272,-3.521244646224790387
0.432000000000000273,-3.484616799353735583
0.433000000000000274,-3.448161970469313165
0.434000000000000274,-3.411888281659714917
0.435000000000000275,-3.375803574995024370
0.436000000000000276,-3.339915414513854763
0.437000000000000277,-3.304231088400557237
0.438000000000000278,-3.268757611343517944
0.439000000000000279,-3.233501727065154707
0.440000000000000280,-3.198469911014322431
0.441000000000000281,-3.163668373212105589
0.442000000000000282,-3.129103061242187067
0.443000000000000282,-3.094779663376944434
0.444000000000000283,-3.060703611830934090
0.445000000000000284,-3.026880086133372227
0.446000000000000285,-2.993314016611442252
0.447000000000000286,-2.960010087976733040
0.448000000000000287,-2.926972743006819311
0.449000000000000288,-2.894206186314769447
0.450000000000000289,-2.861714388199088521
0.451000000000000290,-2.829501088567136780
0.452000000000000290,-2.797569800925139738
0.453000000000000291,-2.765923816428109028
0.454000000000000292,-2.734566207983290198
0.455000000000000293,-2.703499834400842072
0.456000000000000294,-2.672727344585801301
0.457000000000000295,-2.642251181765471468
0.458000000000000296,-2.612073587746647441
0.459000000000000297,-2.582196607197313476
0.460000000000000298,-2.552622091947551297
0.461000000000000298,-2.523351705304737180
0.462000000000000299,-2.494386926378205693
0.463000000000000300,-2.465729054408736243
0.464000000000000301,-2.437379213098545883
0.465000000000000302,-2.409338354937511362
0.466000000000000303,-2.381607265521572536
0.467000000000000304,-2.354186567859518853
0.468000000000000305,-2.327076726664460971
0.469000000000000306,-2.300278052626477443
0.470000000000000306,-2.273790706663177730
0.471000000000000307,-2.247614704144901943
0.472000000000000308,-2.221749919091725367
0.473000000000000309,-2.196196088339291030
0.474000000000000310,-2.170952815670884828
0.475000000000000311,-2.146019575913172162
0.476000000000000312,-2.121395718993305479
0.477000000000000313,-2.097080473955042379
0.478000000000000314,-2.073072952931877211
0.479000000000000314,-2.049372155075239732
0.480000000000000315,-2.025976970435829916
0.481000000000000316,-2.002886183796538599
0.482000000000000317,-1.980098478455238009
0.483000000000000318,-1.957612439956103900
0.484000000000000319,-1.935426559768044896
0.485000000000000320,-1.913539238909088835
0.486000000000000321,-1.891948791515548844
0.487000000000000322,-1.870653448355001913
0.488000000000000322,-1.849651360282102530
0.489000000000000323,-1.828940601636519947
0.490000000000000324,-1.808519173582183281
0.491000000000000325,-1.788385007387261139
0.492000000000000326,-1.768535967644270901
0.493000000000000327,-1.748969855429943765
0.494000000000000328,-1.729684411404374789
0.495000000000000329,-1.710677318849215922
0.496000000000000330,-1.691946206644623585
0.497000000000000330,-1.673488652184873304
0.498000000000000331,-1.655302184232426699
0.499000000000000332,-1.637384285710564269
0.500000000000000333,-1.619732396434497845
0.501000000000000334,-1.602343915781075934
0.502000000000000335,-1.585216205297258485
0.503000000000000336,-1.568346591247524069
0.504000000000000337,-1.551732367100446153
0.505000000000000338,-1.535370795954746459
0.506000000000000338,-1.519259112905158915
0.507000000000000339,-1.503394527348464127
0.508000000000000340,-1.487774225230113601
0.509000000000000341,-1.472395371231938643
0.510000000000000342,-1.457255110901360506
0.511000000000000343,-1.442350572722695734
0.512000000000000344,-1.427678870131045885
0.513000000000000345,-1.413237103469400235
0.514000000000000346,-1.399022361889566524
0.515000000000000346,-1.385031725197509500
0.516000000000000347,-1.371262265643784950
0.517000000000000348,-1.357711049659816371
0.518000000000000349,-1.344375139540555653
0.519000000000000350,-1.331251595074417260
0.520000000000000351,-1.318337475121095448
0.521000000000000352,-1.305629839138095605
0.522000000000000353,-1.293125748656676066
0.523000000000000353,-1.280822268708019074
0.524000000000000354,-1.268716469200428909
0.525000000000000355,-1.256805426248293944
0.526000000000000356,-1.245086223453669705
0.527000000000000357,-1.233555953141298511
0.528000000000000358,-1.222211717547827758
0.529000000000000359,-1.211050629966121672
0.530000000000000360,-1.200069815845429044
0.531000000000000361,-1.189266413848296899
0.532000000000000361,-1.178637576865005254
0.533000000000000362,-1.168180472986411145
0.534000000000000363,-1.157892286435984186
0.535000000000000364,-1.147770218461913627
0.536000000000000365,-1.137811488190084930
0.537000000000000366,-1.128013333438784072
0.538000000000000367,-1.118373011495910951
0.539000000000000368,-1.108887799859617829
0.540000000000000369,-1.099554996943062468
0.541000000000000369,-1.090371922744232780
0.542000000000000370,-1.081335919481540619
0.543000000000000371,-1.072444352196042283
0.544000000000000372,-1.063694609321105045
0.545000000000000373,-1.055084103220260250
0.546000000000000374,-1.046610270694064093
0.547000000000000375,-1.038270573456724799
0.548000000000000376,-1.030062498583313113
0.549000000000000377,-1.021983558928248659
0.550000000000000377,-1.014031293515866849
0.551000000000000378,-1.006203267903798881
0.552000000000000379,-0.998497074519904992
0.553000000000000380,-0.990910332973483632
0.554000000000000381,-0.983440690341456536
0.555000000000000382,-0.976085821430307865
0.556000000000000383,-0.968843429014358271
0.557000000000000384,-0.961711244051203784
0.558000000000000385,-0.954687025874860984
0.559000000000000385,-0.947768562367397260
0.560000000000000386,-0.940953670109633378
0.561000000000000387,-0.934240194511600341
0.562000000000000388,-0.927626009923372741
0.563000000000000389,-0.921109019726911393
0.564000000000000390,-0.914687156409526358
0.565000000000000391,-0.908358381619568833
0.566000000000000392,-0.902120686204933464
0.567000000000000393,-0.895972090234985807
0.568000000000000393,-0.889910643006431412
0.569000000000000394,-0.883934423033746031
0.570000000000000395,-0.878041538024685986
0.571000000000000396,-0.872230124841399168
0.572000000000000397,-0.866498349447735627
0.573000000000000398,-0.860844406843168763
0.574000000000000399,-0.855266520983955281
0.575000000000000400,-0.849762944691910826
0.576000000000000401,-0.844331959551368749
0.577000000000000401,-0.838971875794790600
0.578000000000000402,-0.833681032177439385
0.579000000000000403,-0.828457795841607725
0.580000000000000404,-0.823300562170868444
0.581000000000000405,-0.818207754634721951
0.582000000000000406,-0.813177824624107592
0.583000000000000407,-0.808209251278175445
0.584000000000000408,-0.803300541302727211
0.585000000000000409,-0.798450228780710924
0.586000000000000409,-0.793656874975159465
0.587000000000000410,-0.788919068124962930
0.588000000000000411,-0.784235423233786699
0.589000000000000412,-0.779604581852573753
0.590000000000000413,-0.775025211855880913
0.591000000000000414,-0.770496007212467693
0.592000000000000415,-0.766015687750422392
0.593000000000000416,-0.761582998917147647
0.594000000000000417,-0.757196711534518840
0.595000000000000417,-0.752855621549549769
0.596000000000000418,-0.748558549780775406
0.597000000000000419,-0.744304341660747548
0.598000000000000420,-0.740091866974807999
0.599000000000000421,-0.735920019596506880
0.600000000000000422,-0.731787717219851364
0.601000000000000423,-0.727693901088675821
0.602000000000000424,-0.723637535723368641
0.603000000000000425,-0.719617608645211848
0.604000000000000425,-0.715633130098512371
0.605000000000000426,-0.711683132770802418
0.606000000000000427,-0.707766671511330880
0.607000000000000428,-0.703882823047945250
0.608000000000000429,-0.700030685702770605
0.609000000000000430,-0.696209379106626614
0.610000000000000431,-0.692418043912621073
0.611000000000000432,-0.688655841508912125
0.612000000000000433,-0.684921953730901922
0.613000000000000433,-0.681215582573052592
