# hydroxyapatite-101-ph5_THYMINE
# h[nm],U(h)[kJ/mol]
0.149999999999999994,142.678960700030927455
0.150999999999999995,139.740764471990985385
0.151999999999999996,137.007258107799600566
0.152999999999999997,134.381835065297110532
0.153999999999999998,131.830508755434522072
0.154999999999999999,129.342771033059335650
0.156000000000000000,126.913956924078163979
0.157000000000000001,124.538780589333413218
0.158000000000000002,122.210137770551426684
0.159000000000000002,119.919968431861050817
0.160000000000000003,117.660569192697153085
0.161000000000000004,115.425651850298393697
0.162000000000000005,113.210930159665352335
0.163000000000000006,111.014253716127967664
0.164000000000000007,108.835403067726431914
0.165000000000000008,106.675680211659511087
0.166000000000000009,104.537412745022407989
0.167000000000000010,102.423460554198342720
0.168000000000000010,100.336782986209158253
0.169000000000000011,98.280097623497027826
0.170000000000000012,96.255641151334501160
0.171000000000000013,94.265028493274968469
0.172000000000000014,92.309197589488803715
0.173000000000000015,90.388422752256502690
0.174000000000000016,88.502378272542813420
0.175000000000000017,86.650234824121611155
0.176000000000000018,84.830773365183375745
0.177000000000000018,83.042504024206692748
0.178000000000000019,81.283780415531893482
0.179000000000000020,79.552902654513417247
0.180000000000000021,77.848204848805437450
0.181000000000000022,76.168124939076477631
0.182000000000000023,74.511256421740839073
0.183000000000000024,72.876382723513557949
0.184000000000000025,71.262495854220617275
0.185000000000000026,69.668801495407123525
0.186000000000000026,68.094712947770801748
0.187000000000000027,66.539836419063163930
0.188000000000000028,65.003950039826392526
0.189000000000000029,63.486978794338028820
0.190000000000000030,61.988967287959972907
0.191000000000000031,60.510051971594542408
0.192000000000000032,59.050434133816906979
0.193000000000000033,57.610354669722298127
0.194000000000000034,56.190071355341046910
0.195000000000000034,54.789839105788757934
0.196000000000000035,53.409893478634515418
0.197000000000000036,52.050437502939779222
0.198000000000000037,50.711631768587196234
0.199000000000000038,49.393587597923257704
0.200000000000000039,48.096363039441236253
0.201000000000000040,46.819961367698020638
0.202000000000000041,45.564331741103295315
0.203000000000000042,44.329371655824601817
0.204000000000000042,43.114930836141169834
0.205000000000000043,41.920816215750470235
0.206000000000000044,40.746797687701580060
0.207000000000000045,39.592614330107515741
0.208000000000000046,38.457980848253747297
0.209000000000000047,37.342594009243470055
0.210000000000000048,36.246138881322039538
0.211000000000000049,35.168294725265852207
0.212000000000000050,34.108740418747515832
0.213000000000000050,33.067159325721000585
0.214000000000000051,32.043243551132654545
0.215000000000000052,31.036697546383855695
0.216000000000000053,30.047241052820066187
0.217000000000000054,29.074611389098453884
0.218000000000000055,28.118565103684552753
0.219000000000000056,27.178879026115389195
0.220000000000000057,26.255350760253453046
0.221000000000000058,25.347798669802074301
0.222000000000000058,24.456061411116841953
0.223000000000000059,23.579997071118189211
0.224000000000000060,22.719481969155019385
0.225000000000000061,21.874409181260194401
0.226000000000000062,21.044686843626980277
0.227000000000000063,20.230236289557446128
0.228000000000000064,19.430990070805698622
0.229000000000000065,18.646889910350818553
0.230000000000000066,17.877884629364643843
0.231000000000000066,17.123928086630218814
0.232000000000000067,16.384977164053744048
0.233000000000000068,15.660989827299195198
0.234000000000000069,14.951923286053855122
0.235000000000000070,14.257732274075431533
0.236000000000000071,13.578367465035697137
0.237000000000000072,12.913774036302692494
0.238000000000000073,12.263890389226128619
0.239000000000000073,11.628647031229260023
0.240000000000000074,11.007965622071543166
0.241000000000000075,10.401758184039852750
0.242000000000000076,9.809926473542825320
0.243000000000000077,9.232361509616564987
0.244000000000000078,8.668943253188416520
0.245000000000000079,8.119540429571117102
0.246000000000000080,7.584010485556099468
0.247000000000000081,7.062199671618772712
0.248000000000000081,6.553943239123370290
0.249000000000000082,6.059065741995641297
0.250000000000000111,5.577381432097916480
0.251000000000000112,5.108694737472576186
0.252000000000000113,4.652800812693314469
0.253000000000000114,4.209486150764471191
0.254000000000000115,3.778529246311035816
0.255000000000000115,3.359701300195840012
0.256000000000000116,2.952766956163830336
0.257000000000000117,2.557485060634495433
0.258000000000000118,2.173609437328474225
0.259000000000000119,1.800889669009333671
0.260000000000000120,1.439071879236982543
0.261000000000000121,1.087899507655563980
0.262000000000000122,0.747114072965595732
0.263000000000000123,0.416455918353057619
0.264000000000000123,0.095664934757479059
0.265000000000000124,-0.215518742045196887
0.266000000000000125,-0.517354063998370473
0.267000000000000126,-0.810098435865993283
0.268000000000000127,-1.094007115268282870
0.269000000000000128,-1.369332649552534198
0.270000000000000129,-1.636324350943307193
0.271000000000000130,-1.895227810992556217
0.272000000000000131,-2.146284454959079824
0.273000000000000131,-2.389731136389199762
0.274000000000000132,-2.625799771845245267
0.275000000000000133,-2.854717015436043503
0.276000000000000134,-3.076703972541860121
0.277000000000000135,-3.291975951894862362
0.278000000000000136,-3.500742254974286372
0.279000000000000137,-3.703206001500605193
0.280000000000000138,-3.899563989664355468
0.281000000000000139,-4.090006589601661524
0.282000000000000139,-4.274717668527189041
0.283000000000000140,-4.453874545855874167
0.284000000000000141,-4.627647976584758460
0.285000000000000142,-4.796202161164509370
0.286000000000000143,-4.959694780065168729
0.287000000000000144,-5.118277051230016639
0.288000000000000145,-5.272093808615406552
0.289000000000000146,-5.421283600028939276
0.290000000000000147,-5.565978802505311407
0.291000000000000147,-5.706305753493735367
0.292000000000000148,-5.842384896175360609
0.293000000000000149,-5.974330937278955034
0.294000000000000150,-6.102253015820250148
0.295000000000000151,-6.226254881251595208
0.296000000000000152,-6.346435079574130889
0.297000000000000153,-6.462887146033287067
0.298000000000000154,-6.575699803089451123
0.299000000000000155,-6.684957162428180943
0.300000000000000155,-6.790738929848044059
0.301000000000000156,-6.893120611937916919
0.302000000000000157,-6.992173723529822027
0.303000000000000158,-7.087965994986187290
0.304000000000000159,-7.180561578453167115
0.305000000000000160,-7.270021252282016455
0.306000000000000161,-7.356402622890233722
0.307000000000000162,-7.439760323401230835
0.308000000000000163,-7.520146208466353066
0.309000000000000163,-7.597609544735942855
0.310000000000000164,-7.672197196506481021
0.311000000000000165,-7.743953806128219597
0.312000000000000166,-7.812921968812998941
0.313000000000000167,-7.879142401533845153
0.314000000000000168,-7.942654105757384286
0.315000000000000169,-8.003494523796685911
0.316000000000000170,-8.061699688615918902
0.317000000000000171,-8.117304366958896011
0.318000000000000171,-8.170342195711967292
0.319000000000000172,-8.220845811447109241
0.320000000000000173,-8.268846973123748612
0.321000000000000174,-8.314376677958103201
0.322000000000000175,-8.357465270496575727
0.323000000000000176,-8.398142544954909638
0.324000000000000177,-8.436437840907789365
0.325000000000000178,-8.472380132434157218
0.326000000000000179,-8.505998110842359239
0.327000000000000179,-8.537320261115279862
0.328000000000000180,-8.566374932230548467
0.329000000000000181,-8.593190401523566280
0.330000000000000182,-8.617794933271811786
0.331000000000000183,-8.640216831688686483
0.332000000000000184,-8.660484488522511626
0.333000000000000185,-8.678626425462914185
0.334000000000000186,-8.694671331561867333
0.335000000000000187,-8.708648095880212381
0.336000000000000187,-8.720585835573510636
0.337000000000000188,-8.730513919631983200
0.338000000000000189,-8.738461988490623611
0.339000000000000190,-8.744459969724660553
0.340000000000000191,-8.748538090044490900
0.341000000000000192,-8.750726883802609990
0.342000000000000193,-8.751057198222035538
0.343000000000000194,-8.749560195552934516
0.344000000000000195,-8.746267352359989644
0.345000000000000195,-8.741210456139413054
0.346000000000000196,-8.734421599459228247
0.347000000000000197,-8.725933171811940170
0.348000000000000198,-8.715777849363188778
0.349000000000000199,-8.703988582774279337
0.350000000000000200,-8.690598583270986666
0.351000000000000201,-8.675641307124704937
0.352000000000000202,-8.659150438706005204
0.353000000000000203,-8.641159872264520203
0.354000000000000203,-8.621703692582610046
0.355000000000000204,-8.600816154643814215
0.356000000000000205,-8.578531662451013062
0.357000000000000206,-8.554884747122624589
0.358000000000000207,-8.529910044388708812
0.359000000000000208,-8.503642271602897651
0.360000000000000209,-8.476116204379611219
0.361000000000000210,-8.447366652959878763
0.362000000000000210,-8.417428438403238289
0.363000000000000211,-8.386336368697053345
0.364000000000000212,-8.354125214869082328
0.365000000000000213,-8.320829687183172396
0.366000000000000214,-8.286484411492795132
0.367000000000000215,-8.251123905821474480
0.368000000000000216,-8.214782557234395099
0.369000000000000217,-8.177494599059976110
0.370000000000000218,-8.139294088515878656
0.371000000000000218,-8.100214884788799807
0.372000000000000219,-8.060290627613261094
0.373000000000000220,-8.019554716390167926
0.374000000000000221,-7.978040289881742630
0.375000000000000222,-7.935780206515500979
0.376000000000000223,-7.892807025326355586
0.377000000000000224,-7.849152987562034056
0.378000000000000225,-7.804849998973816483
0.379000000000000226,-7.759929612811198751
0.380000000000000226,-7.714423013536223728
0.381000000000000227,-7.668361001269905941
0.382000000000000228,-7.621773976980959375
0.383000000000000229,-7.574691928423968434
0.384000000000000230,-7.527144416831918150
0.385000000000000231,-7.479160564365860075
0.386000000000000232,-7.430769042321919926
0.387000000000000233,-7.381998060094382197
0.388000000000000234,-7.332875354891210229
0.389000000000000234,-7.283428182197139833
0.390000000000000235,-7.233683306977360061
0.391000000000000236,-7.183666995613855022
0.392000000000000237,-7.133405008564565719
0.393000000000000238,-7.082922593734869210
0.394000000000000239,-7.032244480549171506
0.395000000000000240,-6.981394874709813791
0.396000000000000241,-6.930397453629382198
0.397000000000000242,-6.879275362521558357
0.398000000000000242,-6.828051211135251819
0.399000000000000243,-6.776747071115669208
0.400000000000000244,-6.725384473975696942
0.401000000000000245,-6.673984409660464578
0.402000000000000246,-6.622567325687310991
0.403000000000000247,-6.571153126843240599
0.404000000000000248,-6.519761175421604271
0.405000000000000249,-6.468410291979473925
0.406000000000000250,-6.417118756597021800
0.407000000000000250,-6.365904310620160267
0.408000000000000251,-6.314784158867515096
0.409000000000000252,-6.263774972282961429
0.410000000000000253,-6.212892891014773156
0.411000000000000254,-6.162153527902698436
0.412000000000000255,-6.111571972354224336
0.413000000000000256,-6.061162794591622216
0.414000000000000257,-6.010940050251237565
0.415000000000000258,-5.960917285317100855
0.416000000000000258,-5.911107541370794749
0.417000000000000259,-5.861523361140007715
0.418000000000000260,-5.812176794328374640
0.419000000000000261,-5.763079403709552295
0.420000000000000262,-5.714242271468783940
0.421000000000000263,-5.665676005775575952
0.422000000000000264,-5.617390747571349152
0.423000000000000265,-5.569396177556437344
0.424000000000000266,-5.521701523361177699
0.425000000000000266,-5.474315566885992190
0.426000000000000267,-5.427246651796096444
0.427000000000000268,-5.380502691156607398
0.428000000000000269,-5.334091175194330070
0.429000000000000270,-5.288019179172957607
0.430000000000000271,-5.242293371368681676
0.431000000000000272,-5.196920021133829337
0.432000000000000273,-5.151905007036339690
0.433000000000000274,-5.107253825063540198
0.434000000000000274,-5.062971596878837133
0.435000000000000275,-5.019063078120614030
0.436000000000000276,-4.975532666732854992
0.437000000000000277,-4.932384411317428885
0.438000000000000278,-4.889622019498522043
0.439000000000000279,-4.847248866289948666
0.440000000000000280,-4.805268002456478449
0.441000000000000281,-4.763682162860818359
0.442000000000000282,-4.722493774788198984
0.443000000000000282,-4.681704966240772592
0.444000000000000283,-4.641317574194693485
0.445000000000000284,-4.601333152812803640
0.446000000000000285,-4.561752981606323587
0.447000000000000286,-4.522578073539484933
0.448000000000000287,-4.483809183070922799
0.449000000000000288,-4.445446814126542634
0.450000000000000289,-4.407491227998386663
0.451000000000000290,-4.369942451164705588
0.452000000000000290,-4.332800283026566390
0.453000000000000291,-4.296064303556649477
0.454000000000000292,-4.259733880856257038
0.455000000000000293,-4.223808178616705433
0.456000000000000294,-4.188286163481683921
0.457000000000000295,-4.153166612307349403
0.458000000000000296,-4.118448119317149825
0.459000000000000297,-4.084129103148766760
0.460000000000000298,-4.050207813790589917
0.461000000000000298,-4.016682339405564406
0.462000000000000299,-3.983550613040402588
0.463000000000000300,-3.950810419218259373
0.464000000000000301,-3.918459400413404126
0.465000000000000302,-3.886495063406431250
0.466000000000000303,-3.854914785518788189
0.467000000000000304,-3.823715820725644310
0.468000000000000305,-3.792895305646238224
0.469000000000000306,-3.762450265411021455
0.470000000000000306,-3.732377619405141012
0.471000000000000307,-3.702674186887764396
0.472000000000000308,-3.673336692487244370
0.473000000000000309,-3.644361771571847264
0.474000000000000310,-3.615745975496257536
0.475000000000000311,-3.587485776723933206
0.476000000000000312,-3.559577573825779329
0.477000000000000313,-3.532017696355370440
0.478000000000000314,-3.504802409601408097
0.479000000000000314,-3.477927919218023245
0.480000000000000315,-3.451390375733584648
0.481000000000000316,-3.425185878938966422
0.482000000000000317,-3.399310482156063351
0.483000000000000318,-3.373760196387645127
0.484000000000000319,-3.348530994349564249
0.485000000000000320,-3.323618814386505083
0.486000000000000321,-3.299019564272445137
0.487000000000000322,-3.274729124897147070
0.488000000000000322,-3.250743353839917749
0.489000000000000323,-3.227058088832174487
0.490000000000000324,-3.203669151110096980
0.491000000000000325,-3.180572348658944115
0.492000000000000326,-3.157763479350475855
0.493000000000000327,-3.135238333975146396
0.494000000000000328,-3.112992699170528343
0.495000000000000329,-3.091022360247719369
0.496000000000000330,-3.069323103917268369
0.497000000000000330,-3.047890720916410778
0.498000000000000331,-3.026721008539169588
0.499000000000000332,-3.005809773071206781
0.500000000000000333,-2.985152832131014566
0.501000000000000334,-2.964746016919242777
0.502000000000000335,-2.944585174377952974
0.503000000000000336,-2.924666169261511683
0.504000000000000337,-2.904984886120918208
0.505000000000000338,-2.885537231203338049
0.506000000000000338,-2.866319134268626279
0.507000000000000339,-2.847326550324601246
0.508000000000000340,-2.828555461282841410
0.509000000000000341,-2.810001877536835391
0.510000000000000342,-2.791661839464147477
0.511000000000000343,-2.773531418854463304
0.512000000000000344,-2.755606720265177501
0.513000000000000345,-2.737883882306332062
0.514000000000000346,-2.720359078856624979
0.515000000000000346,-2.703028520212156671
0.516000000000000347,-2.685888454169659934
0.517000000000000348,-2.668935167045960011
0.518000000000000349,-2.652164984635175582
0.519000000000000350,-2.635574273105519616
0.520000000000000351,-2.619159439837171366
0.521000000000000352,-2.602916934202976762
0.522000000000000353,-2.586843248293468012
0.523000000000000353,-2.570934917587850865
0.524000000000000354,-2.555188521572540061
0.525000000000000355,-2.539600684308714662
0.526000000000000356,-2.524168074950467577
0.527000000000000357,-2.508887408215070725
0.528000000000000358,-2.493755444806736055
0.529000000000000359,-2.478768991795461396
0.530000000000000360,-2.463924902952263629
0.531000000000000361,-2.449220079042303766
0.532000000000000361,-2.434651468077228209
0.533000000000000362,-2.420216065528132177
0.534000000000000363,-2.405910914500430042
0.535000000000000364,-2.391733105872002163
0.536000000000000365,-2.377679778395857646
0.537000000000000366,-2.363748118768620010
0.538000000000000367,-2.349935361666003697
0.539000000000000368,-2.336238789746629685
0.540000000000000369,-2.322655733625183405
0.541000000000000369,-2.309183571816272984
0.542000000000000370,-2.295819730649979906
0.543000000000000371,-2.282561684160298920
0.544000000000000372,-2.269406953947540551
0.545000000000000373,-2.256353109015765579
0.546000000000000374,-2.243397765586276460
0.547000000000000375,-2.230538586888202612
0.548000000000000376,-2.217773282927210765
0.549000000000000377,-2.205099610233240082
0.550000000000000377,-2.192515371588260820
0.551000000000000378,-2.180018415734978010
0.552000000000000379,-2.167606637067380326
0.553000000000000380,-2.155277975304008997
0.554000000000000381,-2.143030415144792311
0.555000000000000382,-2.130861985912349876
0.556000000000000383,-2.118770761178453199
0.557000000000000384,-2.106754858376597372
0.558000000000000385,-2.094812438401289167
0.559000000000000385,-2.082941705194947701
0.560000000000000386,-2.071140905323033632
0.561000000000000387,-2.059408327538201355
0.562000000000000388,-2.047742302334085274
0.563000000000000389,-2.036141201489467534
0.564000000000000390,-2.024603437603409883
0.565000000000000391,-2.013127463622015334
0.566000000000000392,-2.001711772357415597
0.567000000000000393,-1.990354895999608242
0.568000000000000393,-1.979055405621647168
0.569000000000000394,-1.967811910678822329
0.570000000000000395,-1.956623058502325652
0.571000000000000396,-1.945487533787903844
0.572000000000000397,-1.934404058080071209
0.573000000000000398,-1.923371389252282793
0.574000000000000399,-1.912388320983627654
0.575000000000000400,-1.901453682232396414
0.576000000000000401,-1.890566336707059536
0.577000000000000401,-1.879725182335037159
0.578000000000000402,-1.868929150729648381
0.579000000000000403,-1.858177206655655223
0.580000000000000404,-1.847468347493817165
0.581000000000000405,-1.836801602704740688
0.582000000000000406,-1.826176033292457035
0.583000000000000407,-1.815590731268001523
0.584000000000000408,-1.805044819113375443
0.585000000000000409,-1.794537449246152550
0.586000000000000409,-1.784067803485067216
0.587000000000000410,-1.773635092516862910
0.588000000000000411,-1.763238555364642579
0.589000000000000412,-1.752877458858064896
0.590000000000000413,-1.742551097105533575
0.591000000000000414,-1.732258790968706830
0.592000000000000415,-1.721999887539535035
0.593000000000000416,-1.711773759620007995
0.594000000000000417,-1.701579805204864071
0.595000000000000417,-1.691417446967494076
0.596000000000000418,-1.681286131749092139
0.597000000000000419,-1.671185330051436768
0.598000000000000420,-1.661114535533273484
0.599000000000000421,-1.651073264510623417
0.600000000000000422,-1.641061055461059626
0.601000000000000423,-1.631077468532154739
0.602000000000000424,-1.621122085054228945
0.603000000000000425,-1.611194507057524650
0.604000000000000425,-1.601294356793906415
0.605000000000000426,-1.591421276263239815
0.606000000000000427,-1.581574926744568010
0.607000000000000428,-1.571754988332059622
0.608000000000000429,-1.561961159476071836
0.609000000000000430,-1.552193156529090956
0.610000000000000431,-1.542450713296957598
0.611000000000000432,-1.532733580595200706
0.612000000000000433,-1.523041525810661767
