# hydroxyapatite-101-ph5_BSAI8
# h[nm],U(h)[kJ/mol]
0.149999999999999994,122.359243474620981829
0.150999999999999995,120.008287086328365945
0.151999999999999996,118.117299634796538044
0.152999999999999997,116.349106838907090378
0.153999999999999998,114.581988198519894695
0.154999999999999999,112.791911384277767638
0.156000000000000000,110.991131823355459574
0.157000000000000001,109.199001730918823228
0.158000000000000002,107.430289642682510021
0.159000000000000002,105.692327538026546563
0.160000000000000003,103.986058260216779559
0.161000000000000004,102.308345141589995819
0.162000000000000005,100.654258022548773965
0.163000000000000006,99.018814727334515169
0.164000000000000007,97.398062435708453677
0.165000000000000008,95.789575690313597534
0.166000000000000009,94.192519352799337184
0.167000000000000010,92.607432547963568936
0.168000000000000010,91.035867458063023605
0.169000000000000011,89.479984119979278034
0.170000000000000012,87.942169454960406938
0.171000000000000013,86.424720487331256891
0.172000000000000014,84.929609796690343160
0.173000000000000015,83.458335703875420108
0.174000000000000016,82.011849697046969254
0.175000000000000017,80.590548037337526921
0.176000000000000018,79.194312200870712104
0.177000000000000018,77.822582796727985510
0.178000000000000019,76.474453011768403599
0.179000000000000020,75.148769827690628631
0.180000000000000021,73.844233763687526562
0.181000000000000022,72.559490398451075066
0.182000000000000023,71.293209215771270237
0.183000000000000024,70.044147286242264272
0.184000000000000025,68.811196896512157650
0.185000000000000026,67.593417464580625165
0.186000000000000026,66.390052960826508865
0.187000000000000027,65.200536631985386293
0.188000000000000028,64.024485148889709762
0.189000000000000029,62.861684419491780318
0.190000000000000030,61.712069274953023523
0.191000000000000031,60.575699091877616809
0.192000000000000032,59.452731195427418243
0.193000000000000033,58.343393626882232184
0.194000000000000034,57.247958579692124204
0.195000000000000034,56.166717528858100650
0.196000000000000035,55.099958813117986267
0.197000000000000036,54.047948187101802375
0.198000000000000037,53.010912646981616092
0.199000000000000038,51.989027650970172090
0.200000000000000039,50.982407705940488540
0.201000000000000040,49.991100172460605222
0.202000000000000041,49.015082050564593885
0.203000000000000042,48.054259444799200196
0.204000000000000042,47.108469366264131395
0.205000000000000043,46.177483508136887735
0.206000000000000044,45.261013626175724767
0.207000000000000045,44.358718163741890805
0.208000000000000046,43.470209779019327812
0.209000000000000047,42.595063457691104247
0.210000000000000048,41.732824925034975649
0.211000000000000049,40.883019105238830093
0.212000000000000050,40.045158411049769143
0.213000000000000050,39.218750682308183286
0.214000000000000051,38.403306626408138413
0.215000000000000052,37.598346646454785969
0.216000000000000053,36.803406973264429780
0.217000000000000054,36.018045044972048174
0.218000000000000055,35.241844102633756108
0.219000000000000056,34.474416991733662030
0.220000000000000057,33.715409177921493722
0.221000000000000058,32.964501000710527023
0.222000000000000058,32.221409201394365596
0.223000000000000059,31.485887771299672977
0.224000000000000060,30.757728173896545343
0.225000000000000061,30.036758999488320399
0.226000000000000062,29.322845114447847692
0.227000000000000063,28.615886368508899551
0.228000000000000064,27.915815923707430812
0.229000000000000065,27.222598267428519847
0.230000000000000066,26.536226969875031045
0.231000000000000066,25.856722243331137889
0.232000000000000067,25.184128357036321688
0.233000000000000068,24.518510957474603629
0.234000000000000069,23.859954339567188697
0.235000000000000070,23.208558709760630734
0.236000000000000071,22.564437477436207757
0.237000000000000072,21.927714606519522533
0.238000000000000073,21.298522054721203745
0.239000000000000073,20.676997323549620944
0.240000000000000074,20.063281138152088801
0.241000000000000075,19.457515272202712708
0.242000000000000076,18.859840529485349947
0.243000000000000077,18.270394890538504740
0.244000000000000078,17.689311829745452798
0.245000000000000079,17.116718805569085760
0.246000000000000080,16.552735924247226507
0.247000000000000081,15.997474775170001493
0.248000000000000081,15.451037434349970567
0.249000000000000082,14.913515630851907900
0.250000000000000111,14.384990069758453402
0.251000000000000112,13.865529904193362398
0.252000000000000113,13.355192348086580623
0.253000000000000114,12.854022420730505161
0.254000000000000115,12.362052813719509814
0.255000000000000115,11.879303870574165813
0.256000000000000116,11.405783669203310993
0.257000000000000117,10.941488197338191668
0.258000000000000118,10.486401611164959391
0.259000000000000119,10.040496567569315189
0.260000000000000120,9.603734620675362876
0.261000000000000121,9.176066673697622633
0.262000000000000122,8.757433477515295550
0.263000000000000123,8.347766167813276184
0.264000000000000123,7.946986833101139958
0.265000000000000124,7.555009106413459463
0.266000000000000125,7.171738774000968597
0.267000000000000126,6.797074394837506084
0.268000000000000127,6.430907925283467996
0.269000000000000128,6.073125343759643968
0.270000000000000129,5.723607270788655832
0.271000000000000130,5.382229580252113621
0.272000000000000131,5.048863998186624791
0.273000000000000131,4.723378685897328566
0.274000000000000132,4.405638804602862280
0.275000000000000133,4.095507059237309733
0.276000000000000134,3.792844219423056273
0.277000000000000135,3.497509615992245635
0.278000000000000136,3.209361611772271861
0.279000000000000137,2.928258045664107634
0.280000000000000138,2.654056649330330586
0.281000000000000139,2.386615436072295093
0.282000000000000139,2.125793061715369969
0.283000000000000140,1.871449157536079211
0.284000000000000141,1.623444635458118457
0.285000000000000142,1.381641965915010983
0.286000000000000143,1.145905428927731062
0.287000000000000144,0.916101339076641707
0.288000000000000145,0.692098245159048053
0.289000000000000146,0.473767105419750922
0.290000000000000147,0.260981439320166264
0.291000000000000147,0.053617456876655575
0.292000000000000148,-0.148445833351525364
0.293000000000000149,-0.345326536505756010
0.294000000000000150,-0.537139802758370921
0.295000000000000151,-0.723997776568861551
0.296000000000000152,-0.906009562698800730
0.297000000000000153,-1.083281207820293135
0.298000000000000154,-1.255915696562384110
0.299000000000000155,-1.424012960855992382
0.300000000000000155,-1.587669901460079469
0.301000000000000156,-1.746980420578623683
0.302000000000000157,-1.902035464509738372
0.303000000000000158,-2.052923075302888201
0.304000000000000159,-2.199728450438547700
0.305000000000000160,-2.342534009584903210
0.306000000000000161,-2.481419467528767520
0.307000000000000162,-2.616461912421716995
0.308000000000000163,-2.747735888527159442
0.309000000000000163,-2.875313482699674683
0.310000000000000164,-2.999264413873553359
0.311000000000000165,-3.119656124883106951
0.312000000000000166,-3.236553875982670636
0.313000000000000167,-3.350020839478803136
0.314000000000000168,-3.460118194931129043
0.315000000000000169,-3.566905224421068166
0.316000000000000170,-3.670439407429639367
0.317000000000000171,-3.770776514905556098
0.318000000000000171,-3.867970702144223338
0.319000000000000172,-3.962074600135627289
0.320000000000000173,-4.053139405075014245
0.321000000000000174,-4.141214965764672407
0.322000000000000175,-4.226349868667860221
0.323000000000000176,-4.308591520406791275
0.324000000000000177,-4.387986227526129213
0.325000000000000178,-4.464579273370714141
0.326000000000000179,-4.538414991952739896
0.327000000000000179,-4.609536838707327000
0.328000000000000180,-4.677987458058400883
0.329000000000000181,-4.743808747738003539
0.330000000000000182,-4.807041919821188003
0.331000000000000183,-4.867727558457240811
0.332000000000000184,-4.925905674294019931
0.333000000000000185,-4.981615755607657903
0.334000000000000186,-5.034896816163482391
0.335000000000000187,-5.085787439846505720
0.336000000000000187,-5.134325822111255988
0.337000000000000188,-5.180549808310345838
0.338000000000000189,-5.224496928970635778
0.339000000000000190,-5.266204432093394949
0.340000000000000191,-5.305709312561653235
0.341000000000000192,-5.343048338744203818
0.342000000000000193,-5.378258076390392439
0.343000000000000194,-5.411374909914308695
0.344000000000000195,-5.442435061170083799
0.345000000000000195,-5.471474605823194892
0.346000000000000196,-5.498529487424153039
0.347000000000000197,-5.523635529292787893
0.348000000000000198,-5.546828444321999285
0.349000000000000199,-5.568143842810130195
0.350000000000000200,-5.587617238431159095
0.351000000000000201,-5.605284052451007248
0.352000000000000202,-5.621179616297540704
0.353000000000000203,-5.635339172590332346
0.354000000000000203,-5.647797874734706625
0.355000000000000204,-5.658590785182423311
0.356000000000000205,-5.667752872459366209
0.357000000000000206,-5.675319007058211795
0.358000000000000207,-5.681323956291017829
0.359000000000000208,-5.685802378194459550
0.360000000000000209,-5.688788814577128150
0.361000000000000210,-5.690317683295319284
0.362000000000000210,-5.690423269840771958
0.363000000000000211,-5.689139718320380013
0.364000000000000212,-5.686501021904862618
0.365000000000000213,-5.682541012819863013
0.366000000000000214,-5.677293351949805000
0.367000000000000215,-5.670791518121361285
0.368000000000000216,-5.663068797130247134
0.369000000000000217,-5.654158270571481459
0.370000000000000218,-5.644092804530334462
0.371000000000000218,-5.632905038187573155
0.372000000000000219,-5.620627372389735754
0.373000000000000220,-5.607291958231924944
0.374000000000000221,-5.592930685697504956
0.375000000000000222,-5.577575172396066705
0.376000000000000223,-5.561256752438369588
0.377000000000000224,-5.544006465483736434
0.378000000000000225,-5.525855045992919656
0.379000000000000226,-5.506832912716631334
0.380000000000000226,-5.486970158447510570
0.381000000000000227,-5.466296540060518794
0.382000000000000228,-5.444841468864739298
0.383000000000000229,-5.422634001286951388
0.384000000000000230,-5.399702829905176138
0.385000000000000231,-5.376076274848553105
0.386000000000000232,-5.351782275577436465
0.387000000000000233,-5.326848383056101532
0.388000000000000234,-5.301301752328251737
0.389000000000000234,-5.275169135504140350
0.390000000000000235,-5.248476875166073086
0.391000000000000236,-5.221250898197877355
0.392000000000000237,-5.193516710042100470
0.393000000000000238,-5.165299389387642215
0.394000000000000239,-5.136623583288867145
0.395000000000000240,-5.107513502716360065
0.396000000000000241,-5.077992918538107858
0.397000000000000242,-5.048085157928844602
0.398000000000000242,-5.017813101204486870
0.399000000000000243,-4.987199179077394184
0.400000000000000244,-4.956265370327499475
0.401000000000000245,-4.925033199883643853
0.402000000000000246,-4.893523737308449029
0.403000000000000247,-4.861757595679701893
0.404000000000000248,-4.829754930860444162
0.405000000000000249,-4.797535441149521240
0.406000000000000250,-4.765118367303719182
0.407000000000000250,-4.732522492922361046
0.408000000000000251,-4.699766145184696597
0.409000000000000252,-4.666867195930191059
0.410000000000000253,-4.633843063071420687
0.411000000000000254,-4.600710712329138197
0.412000000000000255,-4.567486659278768180
0.413000000000000256,-4.534186971697512725
0.414000000000000257,-4.500827272200974782
0.415000000000000258,-4.467422741158322275
0.416000000000000258,-4.433988119874658018
0.417000000000000259,-4.400537714029506553
0.418000000000000260,-4.367085397360129129
0.419000000000000261,-4.333644615578448267
0.420000000000000262,-4.300228390510409504
0.421000000000000263,-4.266849324446704728
0.422000000000000264,-4.233519604693762872
0.423000000000000265,-4.200251008314070944
0.424000000000000266,-4.167054907045143253
0.425000000000000266,-4.133942272386272876
0.426000000000000267,-4.100923680842694985
0.427000000000000268,-4.068009319316735706
0.428000000000000269,-4.035208990635775095
0.429000000000000270,-4.002532119207071304
0.430000000000000271,-3.969987756789602251
0.431000000000000272,-3.937584588373383099
0.432000000000000273,-3.905330938156882148
0.433000000000000274,-3.873234775613410896
0.434000000000000274,-3.841303721637530089
0.435000000000000275,-3.809545054762859539
0.436000000000000276,-3.777965717442825166
0.437000000000000277,-3.746572322386123144
0.438000000000000278,-3.715371158938974183
0.439000000000000279,-3.684368199506519836
0.440000000000000280,-3.653569106005792211
0.441000000000000281,-3.622979236343130793
0.442000000000000282,-3.592603650909134583
0.443000000000000282,-3.562447119084299452
0.444000000000000283,-3.532514125749059986
0.445000000000000284,-3.502808877791899533
0.446000000000000285,-3.473335310609584781
0.447000000000000286,-3.444097094593922659
0.448000000000000287,-3.415097641599352585
0.449000000000000288,-3.386340111386368701
0.450000000000000289,-3.357827418035561173
0.451000000000000290,-3.329562236327644253
0.452000000000000290,-3.301547008084886325
0.453000000000000291,-3.273783948469573435
0.454000000000000292,-3.246275052235513048
0.455000000000000293,-3.219022099928565694
0.456000000000000294,-3.192026664032653116
0.457000000000000295,-3.165290115057715958
0.458000000000000296,-3.138813627566346298
0.459000000000000297,-3.112598186136099176
0.460000000000000298,-3.086644591254525949
0.461000000000000298,-3.060953465144339525
0.462000000000000299,-3.035525257516138886
0.463000000000000300,-3.010360251246384511
0.464000000000000301,-2.985458567978521494
0.465000000000000302,-2.960820173645239528
0.466000000000000303,-2.936444883910021453
0.467000000000000304,-2.912332369526373643
0.468000000000000305,-2.888482161613216803
0.469000000000000306,-2.864893656845037384
0.470000000000000306,-2.841566122555676976
0.471000000000000307,-2.818498701754541091
0.472000000000000308,-2.795690418054429305
0.473000000000000309,-2.773140180510065278
0.474000000000000310,-2.750846788366672957
0.475000000000000311,-2.728808935717993656
0.476000000000000312,-2.707025216073367879
0.477000000000000313,-2.685494126833380513
0.478000000000000314,-2.664214073673941918
0.479000000000000314,-2.643183374838636190
0.480000000000000315,-2.622400265339196679
0.481000000000000316,-2.601862901064292188
0.482000000000000317,-2.581569362796595435
0.483000000000000318,-2.561517660138454833
0.484000000000000319,-2.541705735346394768
0.485000000000000320,-2.522131467074846700
0.486000000000000321,-2.502792674029500120
0.487000000000000322,-2.483687118530836013
0.488000000000000322,-2.464812509988303368
0.489000000000000323,-2.446166508285905650
0.490000000000000324,-2.427746727079770128
0.491000000000000325,-2.409550737008473220
0.492000000000000326,-2.391576068816898104
0.493000000000000327,-2.373820216394488369
0.494000000000000328,-2.356280639728745463
0.495000000000000329,-2.338954767774898080
0.496000000000000330,-2.321840001242693408
0.497000000000000330,-2.304933715301345831
0.498000000000000331,-2.288233262203580587
0.499000000000000332,-2.271735973829939415
0.500000000000000333,-2.255439164154373621
0.501000000000000334,-2.239340131632190367
0.502000000000000335,-2.223436161511595177
0.503000000000000336,-2.207724528069904490
0.504000000000000337,-2.192202496775618847
0.505000000000000338,-2.176867326377557976
0.506000000000000338,-2.161716270922265259
0.507000000000000339,-2.146746581700885059
0.508000000000000340,-2.131955509126727488
0.509000000000000341,-2.117340304544842233
0.510000000000000342,-2.102898221974714765
0.511000000000000343,-2.088626519787468272
0.512000000000000344,-2.074522462318725502
0.513000000000000345,-2.060583321418454794
0.514000000000000346,-2.046806377939057064
0.515000000000000346,-2.033188923162913220
0.516000000000000347,-2.019728260170682965
0.517000000000000348,-2.006421705151648638
0.518000000000000349,-1.993266588657274907
0.519000000000000350,-1.980260256799325047
0.520000000000000351,-1.967400072393710175
0.521000000000000352,-1.954683416051384182
0.522000000000000353,-1.942107687217433210
0.523000000000000353,-1.929670305159646659
0.524000000000000354,-1.917368709907785185
0.525000000000000355,-1.905200363144716302
0.526000000000000356,-1.893162749050622207
0.527000000000000357,-1.881253375101529457
0.528000000000000358,-1.869469772823210363
0.529000000000000359,-1.857809498501771461
0.530000000000000360,-1.846270133851921402
0.531000000000000361,-1.834849286644198774
0.532000000000000361,-1.823544591292165507
0.533000000000000362,-1.812353709400766677
0.534000000000000363,-1.801274330276875002
0.535000000000000364,-1.790304171403164446
0.536000000000000365,-1.779440978876325685
0.537000000000000366,-1.768682527810716554
0.538000000000000367,-1.758026622708424025
0.539000000000000368,-1.747471097796849504
0.540000000000000369,-1.737013817334692733
0.541000000000000369,-1.726652675887450972
0.542000000000000370,-1.716385598573291205
0.543000000000000371,-1.706210541280320570
0.544000000000000372,-1.696125490856160045
0.545000000000000373,-1.686128465270760213
0.546000000000000374,-1.676217513753315513
0.547000000000000375,-1.666390716904225133
0.548000000000000376,-1.656646186782930297
0.549000000000000377,-1.646982066972486169
0.550000000000000377,-1.637396532621705258
0.551000000000000378,-1.627887790465685658
0.552000000000000379,-1.618454078825546816
0.553000000000000380,-1.609093667588122667
0.554000000000000381,-1.599804858166396837
0.555000000000000382,-1.590585983441461959
0.556000000000000383,-1.581435407686654360
0.557000000000000384,-1.572351526474697669
0.558000000000000385,-1.563332766568442667
0.559000000000000385,-1.554377585795969630
0.560000000000000386,-1.545484472910693574
0.561000000000000387,-1.536651947437124743
0.562000000000000388,-1.527878559502906075
0.563000000000000389,-1.519162889657814874
0.564000000000000390,-1.510503548680241392
0.565000000000000391,-1.501899177371817995
0.566000000000000392,-1.493348446340722724
0.567000000000000393,-1.484850055774264765
0.568000000000000393,-1.476402735201244543
0.569000000000000394,-1.468005243244659752
0.570000000000000395,-1.459656367365290919
0.571000000000000396,-1.451354923596594571
0.572000000000000397,-1.443099756271507772
0.573000000000000398,-1.434889737741519955
0.574000000000000399,-1.426723768088588473
0.575000000000000400,-1.418600774830248712
0.576000000000000401,-1.410519712618411914
0.577000000000000401,-1.402479562932297696
0.578000000000000402,-1.394479333765831219
0.579000000000000403,-1.386518059309959972
0.580000000000000404,-1.378594799630308954
0.581000000000000405,-1.370708640340448481
0.582000000000000406,-1.362858692271247119
0.583000000000000407,-1.355044091136577311
0.584000000000000408,-1.347263997195769392
0.585000000000000409,-1.339517594913116394
0.586000000000000409,-1.331804092614737867
0.587000000000000410,-1.324122722143164621
0.588000000000000411,-1.316472738509846030
0.589000000000000412,-1.308853419545989771
0.590000000000000413,-1.301264065551888116
0.591000000000000414,-1.293703998945081812
0.592000000000000415,-1.286172563907603150
0.593000000000000416,-1.278669126032502046
0.594000000000000417,-1.271193071969943578
0.595000000000000417,-1.263743809073128999
0.596000000000000418,-1.256320765044139032
0.597000000000000419,-1.248923387580090028
0.598000000000000420,-1.241551144019641395
0.599000000000000421,-1.234203520990172498
0.600000000000000422,-1.226880024055740037
0.601000000000000423,-1.219580177366032636
0.602000000000000424,-1.212303523306498487
0.603000000000000425,-1.205049622149791055
0.604000000000000425,-1.197818051708698484
0.605000000000000426,-1.190608406990711021
0.606000000000000427,-1.183420299854413216
0.607000000000000428,-1.176253358667693316
0.608000000000000429,-1.169107227968154916
0.609000000000000430,-1.161981568125549646
0.610000000000000431,-1.154876055006634594
0.611000000000000432,-1.147790379642366743
0.612000000000000433,-1.140724247897624499
0.613000000000000433,-1.133677380143579549
