# hydroxyapatite-101-ph5_BSAI16
# h[nm],U(h)[kJ/mol]
0.149999999999999994,136.441264547029277310
0.150999999999999995,133.310956709761569527
0.151999999999999996,131.282648625765432371
0.152999999999999997,129.528591440094089648
0.153999999999999998,127.747429721964593341
0.154999999999999999,125.880085455972860586
0.156000000000000000,123.959351812726737307
0.157000000000000001,122.036920749240493933
0.158000000000000002,120.153215406608111948
0.159000000000000002,118.329297247453638420
0.160000000000000003,116.568887508288639765
0.161000000000000004,114.863955715199907104
0.162000000000000005,113.200575438912295567
0.163000000000000006,111.563621368279385138
0.164000000000000007,109.939903385662816504
0.165000000000000008,108.319840960141775099
0.166000000000000009,106.697990813072806304
0.167000000000000010,105.072787450523122743
0.168000000000000010,103.445821871701014061
0.169000000000000011,101.820916580401615192
0.170000000000000012,100.203181507191985133
0.171000000000000013,98.598168962118833747
0.172000000000000014,97.011191829228081929
0.173000000000000015,95.446829033561755296
0.174000000000000016,93.908614734903679278
0.175000000000000017,92.398890615775144397
0.176000000000000018,90.918791664701714694
0.177000000000000018,89.468332778393971694
0.178000000000000019,88.046564407804723373
0.179000000000000020,86.651768822382109647
0.180000000000000021,85.281673203993051402
0.181000000000000022,83.933660873801926527
0.182000000000000023,82.604966939415220395
0.183000000000000024,81.292849176279077028
0.184000000000000025,79.994728837138282529
0.185000000000000026,78.708299241710903971
0.186000000000000026,77.431602439192289467
0.187000000000000027,76.163076011936340137
0.188000000000000028,74.901573280938436028
0.189000000000000029,73.646360876412884977
0.190000000000000030,72.397097945571800892
0.191000000000000031,71.153801275376110880
0.192000000000000032,69.916800392079764492
0.193000000000000033,68.686686332105736597
0.194000000000000034,67.464257318582866674
0.195000000000000034,66.250464071554930001
0.196000000000000035,65.046356963618578106
0.197000000000000036,63.853036733293905058
0.198000000000000037,62.671610004472597666
0.199000000000000038,61.503150443854202933
0.200000000000000039,60.348666026051397182
0.201000000000000040,59.209072570534452495
0.202000000000000041,58.085173465190131026
0.203000000000000042,56.977645295149521587
0.204000000000000042,55.887028948344912749
0.205000000000000043,54.813725665732476955
0.206000000000000044,53.757997438551079483
0.207000000000000045,52.719971121575518680
0.208000000000000046,51.699645624418266721
0.209000000000000047,50.696901557234170355
0.210000000000000048,49.711512737844536503
0.211000000000000049,48.743159010006550602
0.212000000000000050,47.791439873545364492
0.213000000000000050,46.855888483142130951
0.214000000000000051,45.935985631054492728
0.215000000000000052,45.031173387770863314
0.216000000000000053,44.140868131847852851
0.217000000000000054,43.264472754642667951
0.218000000000000055,42.401387876373192398
0.219000000000000056,41.551021956269821089
0.220000000000000057,40.712800221124489042
0.221000000000000058,39.886172373121148382
0.222000000000000058,39.070619069421681502
0.223000000000000059,38.265657192717903001
0.224000000000000060,37.470843954054117830
0.225000000000000061,36.685779886981642051
0.226000000000000062,35.910110805868981743
0.227000000000000063,35.143528811339358242
0.228000000000000064,34.385772432734555082
0.229000000000000065,33.636626001602550673
0.230000000000000066,32.895918351866029639
0.231000000000000066,32.163520941916523554
0.232000000000000067,31.439345491745523731
0.233000000000000068,30.723341224690319251
0.234000000000000069,30.015491798734654338
0.235000000000000070,29.315812006827503211
0.236000000000000071,28.624344319603359565
0.237000000000000072,27.941155337411267112
0.238000000000000073,27.266332211866551205
0.239000000000000073,26.599979090382628755
0.240000000000000074,25.942213630444264538
0.241000000000000075,25.293163623859371114
0.242000000000000076,24.652963764952612991
0.243000000000000077,24.021752590710075737
0.244000000000000078,23.399669615298314795
0.245000000000000079,22.786852676197831613
0.246000000000000080,22.183435504434470431
0.247000000000000081,21.589545527070637121
0.248000000000000081,21.005301906238443621
0.249000000000000082,20.430813815550607160
0.250000000000000111,19.866178951702053723
0.251000000000000112,19.311482276460413487
0.252000000000000113,18.766794982014740611
0.253000000000000114,18.232173670790203346
0.254000000000000115,17.707659739311758074
0.255000000000000115,17.193278954492065225
0.256000000000000116,16.689041209796020127
0.257000000000000117,16.194940448073541717
0.258000000000000118,15.710954737425325334
0.259000000000000119,15.237046486247383115
0.260000000000000120,14.773162783564695033
0.261000000000000121,14.319235850889660000
0.262000000000000122,13.875183592102203534
0.263000000000000123,13.440910228227767931
0.264000000000000123,13.016307004464328756
0.265000000000000124,12.601252957364655671
0.266000000000000125,12.195615730697204171
0.267000000000000126,11.799252429174568846
0.268000000000000127,11.412010499937604635
0.269000000000000128,11.033728632406337056
0.270000000000000129,10.664237667842801471
0.271000000000000130,10.303361510707786053
0.272000000000000131,9.950918034625907183
0.273000000000000131,9.606719976492588131
0.274000000000000132,9.270575812958711026
0.275000000000000133,8.942290614207360377
0.276000000000000134,8.621666870589288934
0.277000000000000135,8.308505288306458070
0.278000000000000136,8.002605550922318400
0.279000000000000137,7.703767044033706490
0.280000000000000138,7.411789540960015188
0.281000000000000139,7.126473847789422500
0.282000000000000139,6.847622406570815556
0.283000000000000140,6.575039855852141457
0.284000000000000141,6.308533548142981395
0.285000000000000142,6.047914024220952811
0.286000000000000143,5.792995444509885239
0.287000000000000144,5.543595978033531324
0.288000000000000145,5.299538149692443412
0.289000000000000146,5.060649146826989409
0.290000000000000147,4.826761086215077157
0.291000000000000147,4.597711242813486976
0.292000000000000148,4.373342241685929999
0.293000000000000149,4.153502214672915471
0.294000000000000150,3.938044923447846291
0.295000000000000151,3.726829850673881506
0.296000000000000152,3.519722261027341315
0.297000000000000153,3.316593233888288861
0.298000000000000154,3.117319669518105574
0.299000000000000155,2.921784270549673046
0.300000000000000155,2.729875500608881289
0.301000000000000156,2.541487521868688759
0.302000000000000157,2.356520113309008124
0.303000000000000158,2.174878571420111761
0.304000000000000159,1.996473595043506410
0.305000000000000160,1.821221155994513285
0.306000000000000161,1.649042357055672259
0.307000000000000162,1.479863278870315657
0.308000000000000163,1.313614817202642726
0.309000000000000163,1.150232511964425219
0.310000000000000164,0.989656369340315978
0.311000000000000165,0.831830678274130042
0.312000000000000166,0.676703822507823793
0.313000000000000167,0.524228089294058064
0.314000000000000168,0.374359475832395650
0.315000000000000169,0.227057494408845095
0.316000000000000170,0.082284977149036820
0.317000000000000171,-0.059992118772756522
0.318000000000000171,-0.199804904693311414
0.319000000000000172,-0.337181752078484887
0.320000000000000173,-0.472148481551970867
0.321000000000000174,-0.604728548748239003
0.322000000000000175,-0.734943226461759469
0.323000000000000176,-0.862811782620738987
0.324000000000000177,-0.988351653667664420
0.325000000000000178,-1.111578612979855940
0.326000000000000179,-1.232506934012575384
0.327000000000000179,-1.351149547892752434
0.328000000000000180,-1.467518195235511858
0.329000000000000181,-1.581623571996523925
0.330000000000000182,-1.693475469211561002
0.331000000000000183,-1.803082906511006112
0.332000000000000184,-1.910454259330207183
0.333000000000000185,-2.015597379767938069
0.334000000000000186,-2.118519711074020595
0.335000000000000187,-2.219228395773602980
0.336000000000000187,-2.317730377460138325
0.337000000000000188,-2.414032496310995590
0.338000000000000189,-2.508141578400326921
0.339000000000000190,-2.600064518901752386
0.340000000000000191,-2.689808359289889594
0.341000000000000192,-2.777380358664575777
0.342000000000000193,-2.862788059334464119
0.343000000000000194,-2.946039346808229986
0.344000000000000195,-3.027142504351165275
0.345000000000000195,-3.106106262274070939
0.346000000000000196,-3.182939842127749497
0.347000000000000197,-3.257652995982966537
0.348000000000000198,-3.330256040980096088
0.349000000000000199,-3.400759889336494979
0.350000000000000200,-3.469176074002386478
0.351000000000000201,-3.535516770157594468
0.352000000000000202,-3.599794812742489913
0.353000000000000203,-3.662023710216558037
0.354000000000000203,-3.722217654737454584
0.355000000000000204,-3.780391528951879909
0.356000000000000205,-3.836560909588007995
0.357000000000000206,-3.890742068036773471
0.358000000000000207,-3.942951968105993465
0.359000000000000208,-3.993208261128560199
0.360000000000000209,-4.041529278601815989
0.361000000000000210,-4.087934022531176659
0.362000000000000210,-4.132442153646934457
0.363000000000000211,-4.175073977658295910
0.364000000000000212,-4.215850429704071090
0.365000000000000213,-4.254793057154297564
0.366000000000000214,-4.291924000912006321
0.367000000000000215,-4.327265975358947081
0.368000000000000216,-4.360842247083985157
0.369000000000000217,-4.392676612527033342
0.370000000000000218,-4.422793374666420974
0.371000000000000218,-4.451217318871669271
0.372000000000000219,-4.477973688038521693
0.373000000000000220,-4.503088157117450585
0.374000000000000221,-4.526586807141521618
0.375000000000000222,-4.548496098854005076
0.376000000000000223,-4.568842846031251348
0.377000000000000224,-4.587654188590611248
0.378000000000000225,-4.604957565568512656
0.379000000000000226,-4.620780688048549578
0.380000000000000226,-4.635151512114835448
0.381000000000000227,-4.648098211900683729
0.382000000000000228,-4.659649152798549743
0.383000000000000229,-4.669832864892223157
0.384000000000000230,-4.678678016668122552
0.385000000000000231,-4.686213389058358381
0.386000000000000232,-4.692467849863861673
0.387000000000000233,-4.697470328602295631
0.388000000000000234,-4.701249791821291879
0.389000000000000234,-4.703835218914287353
0.390000000000000235,-4.705255578472336886
0.391000000000000236,-4.705539805202233694
0.392000000000000237,-4.704716777437810471
0.393000000000000238,-4.702815295268456097
0.394000000000000239,-4.699864059305634889
0.395000000000000240,-4.695891650105758153
0.396000000000000241,-4.690926508264833039
0.397000000000000242,-4.684996915197865874
0.398000000000000242,-4.678130974613745607
0.399000000000000243,-4.670356594693808816
0.400000000000000244,-4.661701470980423423
0.401000000000000245,-4.652193069979807305
0.402000000000000246,-4.641858613481302243
0.403000000000000247,-4.630725063593803981
0.404000000000000248,-4.618819108498160908
0.405000000000000249,-4.606167148912951426
0.406000000000000250,-4.592795285269510863
0.407000000000000250,-4.578729305590838905
0.408000000000000251,-4.563994674067688884
0.409000000000000252,-4.548616520324058499
0.410000000000000253,-4.532619629363212610
0.411000000000000254,-4.516028432184429953
0.412000000000000255,-4.498866997059720596
0.413000000000000256,-4.481159021459122371
0.414000000000000257,-4.462927824612156869
0.415000000000000258,-4.444196340692784908
0.416000000000000258,-4.424987112614191531
0.417000000000000259,-4.405322286419570688
0.418000000000000260,-4.385223606254385231
0.419000000000000261,-4.364712409905328272
0.420000000000000262,-4.343809624890770493
0.421000000000000263,-4.322535765087346604
0.422000000000000264,-4.300910927876882894
0.423000000000000265,-4.278954791797863422
0.424000000000000266,-4.256686614685532000
0.425000000000000266,-4.234125232284332796
0.426000000000000267,-4.211289057316728979
0.427000000000000268,-4.188196078992151072
0.428000000000000269,-4.164863862939869321
0.429000000000000270,-4.141309551549840151
0.430000000000000271,-4.117549864705301488
0.431000000000000272,-4.093601100891367750
0.432000000000000273,-4.069479138663703033
0.433000000000000274,-4.045199438461743568
0.434000000000000274,-4.020777044750927232
0.435000000000000275,-3.996226588478704489
0.436000000000000276,-3.971562289829320580
0.437000000000000277,-3.946797961262467513
0.438000000000000278,-3.921947010821320134
0.439000000000000279,-3.897022445695645931
0.440000000000000280,-3.872036876025898522
0.441000000000000281,-3.847002518934592441
0.442000000000000282,-3.821931202771553959
0.443000000000000282,-3.796834371559750565
0.444000000000000283,-3.771723089629047898
0.445000000000000284,-3.746608046425209615
0.446000000000000285,-3.721499561481972584
0.447000000000000286,-3.696407589544427275
0.448000000000000287,-3.671341725831938962
0.449000000000000288,-3.646311211429592358
0.450000000000000289,-3.621324938797121806
0.451000000000000290,-3.596391457384807921
0.452000000000000290,-3.571518979346161693
0.453000000000000291,-3.546715385337383175
0.454000000000000292,-3.521988230394143216
0.455000000000000293,-3.497344749876352132
0.456000000000000294,-3.472791865472046879
0.457000000000000295,-3.448336191251814675
0.458000000000000296,-3.423984039765410436
0.459000000000000297,-3.399741428172714741
0.460000000000000298,-3.375614084401269643
0.461000000000000298,-3.351607453323153241
0.462000000000000299,-3.327726702944128423
0.463000000000000300,-3.303976730598262801
0.464000000000000301,-3.280362169141701312
0.465000000000000302,-3.256887393139344056
0.466000000000000303,-3.233556525038567830
0.467000000000000304,-3.210373441324452237
0.468000000000000305,-3.187341778651101354
0.469000000000000306,-3.164464939944056088
0.470000000000000306,-3.141746100469038350
0.471000000000000307,-3.119188213862317482
0.472000000000000308,-3.096794018118607106
0.473000000000000309,-3.074566041532251326
0.474000000000000310,-3.052506608587990833
0.475000000000000311,-3.030617845797599408
0.476000000000000312,-3.008901687479151654
0.477000000000000313,-2.987359881475593060
0.478000000000000314,-2.965993994809754675
0.479000000000000314,-2.944805419273062164
0.480000000000000315,-2.923795376945276026
0.481000000000000316,-2.902964925643029659
0.482000000000000317,-2.882314964294839577
0.483000000000000318,-2.861846238240678186
0.484000000000000319,-2.841559344454182678
0.485000000000000320,-2.821454736685899523
0.486000000000000321,-2.801532730525969406
0.487000000000000322,-2.781793508384961200
0.488000000000000322,-2.762237124391512033
0.489000000000000323,-2.742863509205882622
0.490000000000000324,-2.723672474748290107
0.491000000000000325,-2.704663718841342934
0.492000000000000326,-2.685836829765785971
0.493000000000000327,-2.667191290729109543
0.494000000000000328,-2.648726484246432200
0.495000000000000329,-2.630441696433437393
0.496000000000000330,-2.612336121211014994
0.497000000000000330,-2.594408864421594352
0.498000000000000331,-2.576658947856957926
0.499000000000000332,-2.559085313197772216
0.500000000000000333,-2.541686825864849730
0.501000000000000334,-2.524462278782338309
0.502000000000000335,-2.507410396053249446
0.503000000000000336,-2.490529836547580977
0.504000000000000337,-2.473819197403538617
0.505000000000000338,-2.457277017442315081
0.506000000000000338,-2.440901780497042761
0.507000000000000339,-2.424691918656504352
0.508000000000000340,-2.408645815424263592
0.509000000000000341,-2.392761808794062528
0.510000000000000342,-2.377038194242090619
0.511000000000000343,-2.361473227637127525
0.512000000000000344,-2.346065128069278138
0.513000000000000345,-2.330812080598306579
0.514000000000000346,-2.315712238922509325
0.515000000000000346,-2.300763727969035166
0.516000000000000347,-2.285964646406710266
0.517000000000000348,-2.271313069082459002
0.518000000000000349,-2.256807049382238972
0.519000000000000350,-2.242444621517756254
0.520000000000000351,-2.228223802739902393
0.521000000000000352,-2.214142595480201425
0.522000000000000353,-2.200198989421262574
0.523000000000000353,-2.186390963497502948
0.524000000000000354,-2.172716487827300202
0.525000000000000355,-2.159173525577711139
0.526000000000000356,-2.145760034762987267
0.527000000000000357,-2.132473969978135653
0.528000000000000358,-2.119313284068610415
0.529000000000000359,-2.106275929737518204
0.530000000000000360,-2.093359861091388829
0.531000000000000361,-2.080563035125866378
0.532000000000000361,-2.067883413152455496
0.533000000000000362,-2.055318962167596464
0.534000000000000363,-2.042867656165246348
0.535000000000000364,-2.030527477394231894
0.536000000000000365,-2.018296417561531886
0.537000000000000366,-2.006172478982758633
0.538000000000000367,-1.994153675680953697
0.539000000000000368,-1.982238034435022112
0.540000000000000369,-1.970423595778842074
0.541000000000000369,-1.958708414952376131
0.542000000000000370,-1.947090562805819491
0.543000000000000371,-1.935568126658055998
0.544000000000000372,-1.924139211110506453
0.545000000000000373,-1.912801938817543457
0.546000000000000374,-1.901554451214566566
0.547000000000000375,-1.890394909204875074
0.548000000000000376,-1.879321493806456189
0.549000000000000377,-1.868332406759742437
0.550000000000000377,-1.857425871097436954
0.551000000000000378,-1.846600131677452294
0.552000000000000379,-1.835853455680046320
0.553000000000000380,-1.825184133070141268
0.554000000000000381,-1.814590477025853854
0.555000000000000382,-1.804070824334311096
0.556000000000000383,-1.793623535755591192
0.557000000000000384,-1.783246996355943637
0.558000000000000385,-1.772939615811073510
0.559000000000000385,-1.762699828680557745
0.560000000000000386,-1.752526094654256905
0.561000000000000387,-1.742416898771641076
0.562000000000000388,-1.732370751614908944
0.563000000000000389,-1.722386189476831975
0.564000000000000390,-1.712461774504099754
0.565000000000000391,-1.702596094817081296
0.566000000000000392,-1.692787764606775713
0.567000000000000393,-1.683035424209835984
0.568000000000000393,-1.673337740162345710
0.569000000000000394,-1.663693405233243494
0.570000000000000395,-1.654101138438104357
0.571000000000000396,-1.644559685033981422
0.572000000000000397,-1.635067816496154292
0.573000000000000398,-1.625624330477355217
0.574000000000000399,-1.616228050750300627
0.575000000000000400,-1.606877827134109094
0.576000000000000401,-1.597572535405318073
0.577000000000000401,-1.588311077194191290
0.578000000000000402,-1.579092379866851248
0.579000000000000403,-1.569915396393922746
0.580000000000000404,-1.560779105206330009
0.581000000000000405,-1.551682510038722373
0.582000000000000406,-1.542624639761227767
0.583000000000000407,-1.533604548199998474
0.584000000000000408,-1.524621313947165158
0.585000000000000409,-1.515674040160683633
0.586000000000000409,-1.506761854354608632
0.587000000000000410,-1.497883908180330348
0.588000000000000411,-1.489039377199181891
0.589000000000000412,-1.480227460647011828
0.590000000000000413,-1.471447381191061776
0.591000000000000414,-1.462698384679693486
0.592000000000000415,-1.453979739885372435
0.593000000000000416,-1.445290738241304274
0.594000000000000417,-1.436630693572163775
0.595000000000000417,-1.427998941819379031
0.596000000000000418,-1.419394840761177612
0.597000000000000419,-1.410817769728015758
0.598000000000000420,-1.402267129313531147
0.599000000000000421,-1.393742341081534830
0.600000000000000422,-1.385242847269289479
0.601000000000000423,-1.376768110487438523
0.602000000000000424,-1.368317613416925482
0.603000000000000425,-1.359890858503180811
0.604000000000000425,-1.351487367647881133
0.605000000000000426,-1.343106681898588173
0.606000000000000427,-1.334748361136571138
0.607000000000000428,-1.326411983762948443
0.608000000000000429,-1.318097146383667484
0.609000000000000430,-1.309803463493243170
0.610000000000000431,-1.301530567157825447
0.611000000000000432,-1.293278106697573815
0.612000000000000433,-1.285045748368694341
0.613000000000000433,-1.276833175045347879
