# hydroxyapatite-101-ph5_BSAI18
# h[nm],U(h)[kJ/mol]
0.149999999999999994,115.907316724122551932
0.150999999999999995,113.412898816202982744
0.151999999999999996,111.163632514153050579
0.152999999999999997,109.003065168792915074
0.153999999999999998,106.879978858141114983
0.154999999999999999,104.787453607859063709
0.156000000000000000,102.732407978601003151
0.157000000000000001,100.722137365165920642
0.158000000000000002,98.759768860075396901
0.159000000000000002,96.843952555473094890
0.160000000000000003,94.970206753391920529
0.161000000000000004,93.132593318948721617
0.162000000000000005,91.325127423391677439
0.163000000000000006,89.542725208603641818
0.164000000000000007,87.781694168982994597
0.165000000000000008,86.039857468057334700
0.166000000000000009,84.316426821958771143
0.167000000000000010,82.611730423415792757
0.168000000000000010,80.926881007878549212
0.169000000000000011,79.263444725588229289
0.170000000000000012,77.623149102299748847
0.171000000000000013,76.007650201971372894
0.172000000000000014,74.418365639036125003
0.173000000000000015,72.856370961890831950
0.174000000000000016,71.322351406267060270
0.175000000000000017,69.816598263575144756
0.176000000000000018,68.339038340631347523
0.177000000000000018,66.889285535054227694
0.178000000000000019,65.466704883883480193
0.179000000000000020,64.070481163476571851
0.180000000000000021,62.699685944938835291
0.181000000000000022,61.353338755304172025
0.182000000000000023,60.030459548863767338
0.183000000000000024,58.730110999077659528
0.184000000000000025,57.451430161955897802
0.185000000000000026,56.193649845105710483
0.186000000000000026,54.956110567058260585
0.187000000000000027,53.738264341636536869
0.188000000000000028,52.539671707728516026
0.189000000000000029,51.359993481154141648
0.190000000000000030,50.198978664956506179
0.191000000000000031,49.056449846075437904
0.192000000000000032,47.932287254190143244
0.193000000000000033,46.826412482222281142
0.194000000000000034,45.738772682983650952
0.195000000000000034,44.669325874279159905
0.196000000000000035,43.618027813653988289
0.197000000000000036,42.584820749336778078
0.198000000000000037,41.569624218941335414
0.199000000000000038,40.572327953548651180
0.200000000000000039,39.592786851959161254
0.201000000000000040,38.630817917267314954
0.202000000000000041,37.686198993904540089
0.203000000000000042,36.758669105940910526
0.204000000000000042,35.847930174544217152
0.205000000000000043,34.953649881819075063
0.206000000000000044,34.075465447588200618
0.207000000000000045,33.212988092965019860
0.208000000000000046,32.365807977908687576
0.209000000000000047,31.533499417666796205
0.210000000000000048,30.715626203636940517
0.211000000000000049,29.911746876476151158
0.212000000000000050,29.121419822230841135
0.213000000000000050,28.344208085026270538
0.214000000000000051,27.579683811795383974
0.215000000000000052,26.827432265163110969
0.216000000000000053,26.087055359587889569
0.217000000000000054,25.358174692976440667
0.218000000000000055,24.640434061106269326
0.219000000000000056,23.933501455272708114
0.220000000000000057,23.237070554644766673
0.221000000000000058,22.550861733945069432
0.222000000000000058,21.874622614368014695
0.223000000000000059,21.208128191262410667
0.224000000000000060,20.551180576177834780
0.225000000000000061,19.903608393576014635
0.226000000000000062,19.265265874004022351
0.227000000000000063,18.636031685981425454
0.228000000000000064,18.015807548426430174
0.229000000000000065,17.404516664287758232
0.230000000000000066,16.802102014299912014
0.231000000000000066,16.208524547566412366
0.232000000000000067,15.623761303115831112
0.233000000000000068,15.047803493770093297
0.234000000000000069,14.480654580705110135
0.235000000000000070,13.922328364047396931
0.236000000000000071,13.372847111803409348
0.237000000000000072,12.832239746415860182
0.238000000000000073,12.300540105328479967
0.239000000000000073,11.777785289155451309
0.240000000000000074,11.264014108416869675
0.241000000000000075,10.759265637344947564
0.242000000000000076,10.263577880994736446
0.243000000000000077,9.776986559820215916
0.244000000000000078,9.299524014004777683
0.245000000000000079,8.831218228163624673
0.246000000000000080,8.372091975562605981
0.247000000000000081,7.922162079714887284
0.248000000000000081,7.481438790118630777
0.249000000000000082,7.049925267973504717
0.250000000000000111,6.627617176950915123
0.251000000000000112,6.214502373481759712
0.252000000000000113,5.810560690551529461
0.253000000000000114,5.415763808647573008
0.254000000000000115,5.030075207269299575
0.255000000000000115,4.653450190282496735
0.256000000000000116,4.285835978357869003
0.257000000000000117,3.927171861771871164
0.258000000000000118,3.577389406954793571
0.259000000000000119,3.236412710334881204
0.260000000000000120,2.904158693239925704
0.261000000000000121,2.580537431871042564
0.262000000000000122,2.265452516647475711
0.263000000000000123,1.958801435531244195
0.264000000000000123,1.660475976267549836
0.265000000000000124,1.370362642817251286
0.266000000000000125,1.088343081604533857
0.267000000000000126,0.814294513553023847
0.268000000000000127,0.548090168231471386
0.269000000000000128,0.289599716774365579
0.270000000000000129,0.038689700578605504
0.271000000000000130,-0.204776046896841868
0.272000000000000131,-0.440935987587138922
0.273000000000000131,-0.669930477592459828
0.274000000000000132,-0.891901379036720732
0.275000000000000133,-1.106991686518014495
0.276000000000000134,-1.315345169401271219
0.277000000000000135,-1.517106030967036334
0.278000000000000136,-1.712418585211312516
0.279000000000000137,-1.901426951888586014
0.280000000000000138,-2.084274770204403548
0.281000000000000139,-2.261104931394791073
0.282000000000000139,-2.432059330276172382
0.283000000000000140,-2.597278635711746553
0.284000000000000141,-2.756902079817031392
0.285000000000000142,-2.911067265618430433
0.286000000000000143,-3.059909992783125254
0.287000000000000144,-3.203564100955626603
0.288000000000000145,-3.342161330165654753
0.289000000000000146,-3.475831197711754861
0.290000000000000147,-3.604700890876007868
0.291000000000000147,-3.728895174784875088
0.292000000000000148,-3.848536314700494732
0.293000000000000149,-3.963744012003269201
0.294000000000000150,-4.074635353111191627
0.295000000000000151,-4.181324770572127036
0.296000000000000152,-4.283924015562234899
0.297000000000000153,-4.382542141025941973
0.298000000000000154,-4.477285494699930091
0.299000000000000155,-4.568257721274770589
0.300000000000000155,-4.655559772962731380
0.301000000000000156,-4.739289927758142618
0.302000000000000157,-4.819543814697626161
0.303000000000000158,-4.896414445450189667
0.304000000000000159,-4.969992251592233679
0.305000000000000160,-5.040365126948588070
0.306000000000000161,-5.107618474408347709
0.307000000000000162,-5.171835256652595803
0.308000000000000163,-5.233096050259872456
0.309000000000000163,-5.291479102684647273
0.310000000000000164,-5.347060391633439380
0.311000000000000165,-5.399913686392327605
0.312000000000000166,-5.450110610688883028
0.313000000000000167,-5.497720706700020443
0.314000000000000168,-5.542811499845305079
0.315000000000000169,-5.585448564032797769
0.316000000000000170,-5.625695587051164459
0.317000000000000171,-5.663614435827460269
0.318000000000000171,-5.699265221295052086
0.319000000000000172,-5.732706362640101361
0.320000000000000173,-5.763994650717880752
0.321000000000000174,-5.793185310452146908
0.322000000000000175,-5.820332062051758015
0.323000000000000176,-5.845487180898329527
0.324000000000000177,-5.868701555977639650
0.325000000000000178,-5.890024746744903617
0.326000000000000179,-5.909505038330945759
0.327000000000000179,-5.927189495011480069
0.328000000000000180,-5.943124011876418145
0.329000000000000181,-5.957353364649727645
0.330000000000000182,-5.969921257622475608
0.331000000000000183,-5.980870369673836784
0.332000000000000184,-5.990242398364923559
0.333000000000000185,-5.998078102100478759
0.334000000000000186,-6.004417340362167899
0.335000000000000187,-6.009299112025352940
0.336000000000000187,-6.012761591778638781
0.337000000000000188,-6.014842164671813762
0.338000000000000189,-6.015577458824038715
0.339000000000000190,-6.015003376329083551
0.340000000000000191,-6.013155122398984531
0.341000000000000192,-6.010067232791724834
0.342000000000000193,-6.005773599571708310
0.343000000000000194,-6.000307495254924461
0.344000000000000195,-5.993701595392898263
0.345000000000000195,-5.985987999651831259
0.346000000000000196,-5.977198251444542976
0.347000000000000197,-5.967363356174240074
0.348000000000000198,-5.956513798149921435
0.349000000000000199,-5.944679556233555040
0.350000000000000200,-5.931890118279631530
0.351000000000000201,-5.918174494427338672
0.352000000000000202,-5.903561229305418934
0.353000000000000203,-5.888078413209246520
0.354000000000000203,-5.871753692308764982
0.355000000000000204,-5.854614277945100476
0.356000000000000205,-5.836686955072488026
0.357000000000000206,-5.817998089901101899
0.358000000000000207,-5.798573636794630559
0.359000000000000208,-5.778439144475422395
0.360000000000000209,-5.757619761588184559
0.361000000000000210,-5.736140241671614959
0.362000000000000210,-5.714024947585771841
0.363000000000000211,-5.691297855441105114
0.364000000000000212,-5.667982558073406452
0.365000000000000213,-5.644102268107010545
0.366000000000000214,-5.619679820646849677
0.367000000000000215,-5.594737675638058683
0.368000000000000216,-5.569297919930071394
0.369000000000000217,-5.543382269080149527
0.370000000000000218,-5.517012068929783908
0.371000000000000218,-5.490208296985153780
0.372000000000000219,-5.462991563631524272
0.373000000000000220,-5.435382113209434429
0.374000000000000221,-5.407399824978892156
0.375000000000000222,-5.379064213996066712
0.376000000000000223,-5.350394431925554528
0.377000000000000224,-5.321409267809388055
0.378000000000000225,-5.292127148812670434
0.379000000000000226,-5.262566140964066719
0.380000000000000226,-5.232743949908148728
0.381000000000000227,-5.202677921684841778
0.382000000000000228,-5.172385043550320027
0.383000000000000229,-5.141881944852048747
0.384000000000000230,-5.111184897969584640
0.385000000000000231,-5.080309819331654708
0.386000000000000232,-5.049272270518686767
0.387000000000000233,-5.018087459459113830
0.388000000000000234,-4.986770241726506292
0.389000000000000234,-4.955335121943951648
0.390000000000000235,-4.923796255300771030
0.391000000000000236,-4.892167449186170636
0.392000000000000237,-4.860462164943295527
0.393000000000000238,-4.828693519746665608
0.394000000000000239,-4.796874288604927372
0.395000000000000240,-4.765016906490508575
0.396000000000000241,-4.733133470596855297
0.397000000000000242,-4.701235742723459232
0.398000000000000242,-4.669335151788386540
0.399000000000000243,-4.637442796467336592
0.400000000000000244,-4.605569447957927665
0.401000000000000245,-4.573725552867487387
0.402000000000000246,-4.541921236222061786
0.403000000000000247,-4.510166304594177333
0.404000000000000248,-4.478470249346434784
0.405000000000000249,-4.446842249987827955
0.406000000000000250,-4.415291177639223186
0.407000000000000250,-4.383825598604445872
0.408000000000000251,-4.352453778042972843
0.409000000000000252,-4.321183683740204451
0.410000000000000253,-4.290022989971029155
0.411000000000000254,-4.258979081452332949
0.412000000000000255,-4.228059057379889296
0.413000000000000256,-4.197269735545114955
0.414000000000000257,-4.166617656526903524
0.415000000000000258,-4.136109087953926178
0.416000000000000258,-4.105750028832509280
0.417000000000000259,-4.075546213935374418
0.418000000000000260,-4.045503118246389640
0.419000000000000261,-4.015625961456540161
0.420000000000000262,-3.985919712506322377
0.421000000000000263,-3.956389094169870724
0.422000000000000264,-3.927038587675979464
0.423000000000000265,-3.897872437361466158
0.424000000000000266,-3.868894655352283163
0.425000000000000266,-3.840109026267746195
0.426000000000000267,-3.811519111943538096
0.427000000000000268,-3.783128256169066894
0.428000000000000269,-3.754939589434903358
0.429000000000000270,-3.726956033686168013
0.430000000000000271,-3.699180307077725161
0.431000000000000272,-3.671614928727280791
0.432000000000000273,-3.644262223462482631
0.433000000000000274,-3.617124326558328384
0.434000000000000274,-3.590203188461204231
0.435000000000000275,-3.563500579496080345
0.436000000000000276,-3.537018094553515457
0.437000000000000277,-3.510757157753121582
0.438000000000000278,-3.484719027080438458
0.439000000000000279,-3.458904798994186791
0.440000000000000280,-3.433315413000984417
0.441000000000000281,-3.407951656194788903
0.442000000000000282,-3.382814167758485979
0.443000000000000282,-3.357903443424978374
0.444000000000000283,-3.333219839895571024
0.445000000000000284,-3.308763579213249706
0.446000000000000285,-3.284534753088730774
0.447000000000000286,-3.260533327177410623
0.448000000000000287,-3.236759145305054375
0.449000000000000288,-3.213211933640723661
0.450000000000000289,-3.189891304815051676
0.451000000000000290,-3.166796761982425323
0.452000000000000290,-3.143927702825637382
0.453000000000000291,-3.121283423501585386
0.454000000000000292,-3.098863122526900327
0.455000000000000293,-3.076665904602280399
0.456000000000000294,-3.054690784374573642
0.457000000000000295,-3.032936690135661362
0.458000000000000296,-3.011402467457282128
0.459000000000000297,-2.990086882761128440
0.460000000000000298,-2.968988626823482413
0.461000000000000298,-2.948106318213906007
0.462000000000000299,-2.927438506667491058
0.463000000000000300,-2.906983676390213045
0.464000000000000301,-2.886740249297180760
0.465000000000000302,-2.866706588183479898
0.466000000000000303,-2.846880999827436476
0.467000000000000304,-2.827261738026246363
0.468000000000000305,-2.807847006563922498
0.469000000000000306,-2.788634962111594895
0.470000000000000306,-2.769623717060307744
0.471000000000000307,-2.750811342286385131
0.472000000000000308,-2.732195869849698866
0.473000000000000309,-2.713775295625023176
0.474000000000000310,-2.695547581866837739
0.475000000000000311,-2.677510659707942331
0.476000000000000312,-2.659662431592350273
0.477000000000000313,-2.642000773642842582
0.478000000000000314,-2.624523537963748154
0.479000000000000314,-2.607228554879528648
0.480000000000000315,-2.590113635109646317
0.481000000000000316,-2.573176571880477326
0.482000000000000317,-2.556415142974783006
0.483000000000000318,-2.539827112719556634
0.484000000000000319,-2.523410233912836809
0.485000000000000320,-2.507162249690340072
0.486000000000000321,-2.491080895332606016
0.487000000000000322,-2.475163900013478191
0.488000000000000322,-2.459408988490688230
0.489000000000000323,-2.443813882739465981
0.490000000000000324,-2.428376303529922176
0.491000000000000325,-2.413093971949143324
0.492000000000000326,-2.397964610868807078
0.493000000000000327,-2.382985946359313267
0.494000000000000328,-2.368155709051220192
0.495000000000000329,-2.353471635444998711
0.496000000000000330,-2.338931469169950095
0.497000000000000330,-2.324532962193302854
0.498000000000000331,-2.310273875980311864
0.499000000000000332,-2.296151982606430497
0.500000000000000333,-2.282165065822430172
0.501000000000000334,-2.268310922073387470
0.502000000000000335,-2.254587361472579321
0.503000000000000336,-2.240992208731167334
0.504000000000000337,-2.227523304044650043
0.505000000000000338,-2.214178503937026754
0.506000000000000338,-2.200955682063627794
0.507000000000000339,-2.187852729973554400
0.508000000000000340,-2.174867557832644405
0.509000000000000341,-2.161998095107977580
0.510000000000000342,-2.149242291214743084
0.511000000000000343,-2.136598116126498415
0.512000000000000344,-2.124063560949654761
0.513000000000000345,-2.111636638463163962
0.514000000000000346,-2.099315383624304143
0.515000000000000346,-2.087097854041410017
0.516000000000000347,-2.074982130414481762
0.517000000000000348,-2.062966316944579770
0.518000000000000349,-2.051048541712781947
0.519000000000000350,-2.039226957029655285
0.520000000000000351,-2.027499739756037478
0.521000000000000352,-2.015865091596005243
0.522000000000000353,-2.004321239362809148
0.523000000000000353,-1.992866435218626275
0.524000000000000354,-1.981498956888947394
0.525000000000000355,-1.970217107852351601
0.526000000000000356,-1.959019217506460908
0.527000000000000357,-1.947903641310889666
0.528000000000000358,-1.936868760907865861
0.529000000000000359,-1.925912984221347823
0.530000000000000360,-1.915034745535298510
0.531000000000000361,-1.904232505551894494
0.532000000000000361,-1.893504751430333588
0.533000000000000362,-1.882849996806955861
0.534000000000000363,-1.872266781797354840
0.535000000000000364,-1.861753672981135255
0.536000000000000365,-1.851309263369983471
0.537000000000000366,-1.840932172359696084
0.538000000000000367,-1.830621045666754210
0.539000000000000368,-1.820374555250139803
0.540000000000000369,-1.810191399218887609
0.541000000000000369,-1.800070301726073962
0.542000000000000370,-1.790010012849719390
0.543000000000000371,-1.780009308461235396
0.544000000000000372,-1.770066990081935687
0.545000000000000373,-1.760181884728160950
0.546000000000000374,-1.750352844745527658
0.547000000000000375,-1.740578747632816725
0.548000000000000376,-1.730858495856030022
0.549000000000000377,-1.721191016653059958
0.550000000000000377,-1.711575261829467731
0.551000000000000378,-1.702010207545832543
0.552000000000000379,-1.692494854097136514
0.553000000000000380,-1.683028225684586987
0.554000000000000381,-1.673609370180333400
0.555000000000000382,-1.664237358885517493
0.556000000000000383,-1.654911286281972149
0.557000000000000384,-1.645630269778092014
0.558000000000000385,-1.636393449449128568
0.559000000000000385,-1.627199987772380840
0.560000000000000386,-1.618049069357579750
0.561000000000000387,-1.608939900672853085
0.562000000000000388,-1.599871709766578443
0.563000000000000389,-1.590843745985493163
0.564000000000000390,-1.581855279689336147
0.565000000000000391,-1.572905601962365285
0.566000000000000392,-1.563994024322028720
0.567000000000000393,-1.555119878425102575
0.568000000000000393,-1.546282515771539856
0.569000000000000394,-1.537481307406330044
0.570000000000000395,-1.528715643619642295
0.571000000000000396,-1.519984933645443181
0.572000000000000397,-1.511288605358928949
0.573000000000000398,-1.502626104972912602
0.574000000000000399,-1.493996896733468471
0.575000000000000400,-1.485400462614993478
0.576000000000000401,-1.476836302014933100
0.577000000000000401,-1.468303931448388777
0.578000000000000402,-1.459802884242749732
0.579000000000000403,-1.451332710232565937
0.580000000000000404,-1.442892975454880711
0.581000000000000405,-1.434483261845115987
0.582000000000000406,-1.426103166933754496
0.583000000000000407,-1.417752303543915904
0.584000000000000408,-1.409430299490038951
0.585000000000000409,-1.401136797277759305
0.586000000000000409,-1.392871453805160753
0.587000000000000410,-1.384633940065530311
0.588000000000000411,-1.376423940851712713
0.589000000000000412,-1.368241154462252362
0.590000000000000413,-1.360085292409342062
0.591000000000000414,-1.351956079128787902
0.592000000000000415,-1.343853251692045614
0.593000000000000416,-1.335776559520403639
0.594000000000000417,-1.327725764101462369
0.595000000000000417,-1.319700638708001028
0.596000000000000418,-1.311700968119210220
0.597000000000000419,-1.303726548344548375
0.598000000000000420,-1.295777186350118626
0.599000000000000421,-1.287852699787767508
0.600000000000000422,-1.279952916726899481
0.601000000000000423,-1.272077675389095219
0.602000000000000424,-1.264226823885593598
0.603000000000000425,-1.256400219957693576
0.604000000000000425,-1.248597730720093946
0.605000000000000426,-1.240819232407266437
0.606000000000000427,-1.233064610122897475
0.607000000000000428,-1.225333757592351525
0.608000000000000429,-1.217626576918376058
0.609000000000000430,-1.209942978339844322
0.610000000000000431,-1.202282879993799014
0.611000000000000432,-1.194646207680644112
0.612000000000000433,-1.187032894632593649
0.613000000000000433,-1.179442881285410749
