# hydroxyapatite-101-ph5_GLN-AC
# h[nm],U(h)[kJ/mol]
0.149999999999999994,146.612985418863644327
0.150999999999999995,143.737212011198835171
0.151999999999999996,141.105648132944025974
0.152999999999999997,138.578811491015272850
0.153999999999999998,136.104677811513056440
0.154999999999999999,133.668936175030296454
0.156000000000000000,131.270349801917092236
0.157000000000000001,128.909881850914558754
0.158000000000000002,126.586907288866456156
0.159000000000000002,124.298720619367344398
0.160000000000000003,122.041298092285160237
0.161000000000000004,119.810300128550721865
0.162000000000000005,117.601878482138360482
0.163000000000000006,115.413159617859406580
0.164000000000000007,113.242423108331195181
0.165000000000000008,111.089051521999095939
0.166000000000000009,108.953338873498978501
0.167000000000000010,106.836233323805828377
0.168000000000000010,104.739070560568762858
0.169000000000000011,102.663334549180078170
0.170000000000000012,100.610465529552826069
0.171000000000000013,98.581722394020601996
0.172000000000000014,96.578097880879525405
0.173000000000000015,94.600279767323542046
0.174000000000000016,92.648648670496029922
0.175000000000000017,90.723302401283604013
0.176000000000000018,88.824097399816977827
0.177000000000000018,86.950699087183394909
0.178000000000000019,85.102634602983897594
0.179000000000000020,83.279343091338517979
0.180000000000000021,81.480220275021125076
0.181000000000000022,79.704655420163945223
0.182000000000000023,77.952059898807107174
0.183000000000000024,76.221887397413752296
0.184000000000000025,74.513646414141277319
0.185000000000000026,72.826906067505163378
0.186000000000000026,71.161296441522921441
0.187000000000000027,69.516504755903710588
0.188000000000000028,67.892268610494582504
0.189000000000000029,66.288367443005185464
0.190000000000000030,64.704613184963733374
0.191000000000000031,63.140840924623333308
0.192000000000000032,61.596900203856023381
0.193000000000000033,60.072647401145289336
0.194000000000000034,58.567939492957847847
0.195000000000000034,57.082629346174485363
0.196000000000000035,55.616562577475669116
0.197000000000000036,54.169575922255909006
0.198000000000000037,52.741496985001546705
0.199000000000000038,51.332145193361007784
0.200000000000000039,49.941333747006922295
0.201000000000000040,48.568872337153344176
0.202000000000000041,47.214570410472177286
0.203000000000000042,45.878240759434348206
0.204000000000000042,44.559703237238274198
0.205000000000000043,43.258788417189677489
0.206000000000000044,41.975341041650139573
0.207000000000000045,40.709223132776848786
0.208000000000000046,39.460316664827033151
0.209000000000000047,38.228525724681745146
0.210000000000000048,37.013778112603333170
0.211000000000000049,35.816026358461783730
0.212000000000000050,34.635248149330365663
0.213000000000000050,33.471446182229847466
0.214000000000000051,32.324647470786196379
0.215000000000000052,31.194902146686427358
0.216000000000000053,30.082281806174790972
0.217000000000000054,28.986877458601970403
0.218000000000000055,27.908797138444384700
0.219000000000000056,26.848163244501801472
0.220000000000000057,25.805109670418964640
0.221000000000000058,24.779778789543538409
0.222000000000000058,23.772318354679292440
0.223000000000000059,22.782878369789962392
0.224000000000000060,21.811607986383183544
0.225000000000000061,20.858652472379603182
0.226000000000000062,19.924150295944453859
0.227000000000000063,19.008230361201878367
0.228000000000000064,18.111009427117572557
0.229000000000000065,17.232589735247533014
0.230000000000000066,16.373056866622093253
0.231000000000000066,15.532477842843908533
0.232000000000000067,14.710899481600176131
0.233000000000000068,13.908347012268063025
0.234000000000000069,13.124822953167148754
0.235000000000000070,12.360306248303716714
0.236000000000000071,11.614751658171149629
0.237000000000000072,10.888089396316660284
0.238000000000000073,10.180225000953555536
0.239000000000000073,9.491039428875065909
0.240000000000000074,8.820389357287876209
0.241000000000000075,8.168107677915253717
0.242000000000000076,7.534004166788234258
0.243000000000000077,6.917866312524159511
0.244000000000000078,6.319460285555734025
0.245000000000000079,5.738532030690221220
0.246000000000000080,5.174808465519562972
0.247000000000000081,4.627998767536812608
0.248000000000000081,4.097795733317972200
0.249000000000000082,3.583877193772109671
0.250000000000000111,3.085907470222337246
0.251000000000000112,2.603538856933728329
0.252000000000000113,2.136413116627436715
0.253000000000000114,1.684162976498627007
0.254000000000000115,1.246413613264838016
0.255000000000000115,0.822784116802254162
0.256000000000000116,0.412888922960772564
0.257000000000000117,0.016339207175394832
0.258000000000000118,-0.367255768499329616
0.259000000000000119,-0.738287361324164282
0.260000000000000120,-1.097146312224689835
0.261000000000000121,-1.444221573093846800
0.262000000000000122,-1.779899200725958863
0.263000000000000123,-2.104561320248160339
0.264000000000000123,-2.418585160156561997
0.265000000000000124,-2.722342160357951180
0.266000000000000125,-3.016197153967444144
0.267000000000000126,-3.300507623016117442
0.268000000000000127,-3.575623027682097277
0.269000000000000128,-3.841884208170623261
0.270000000000000129,-4.099622857934095421
0.271000000000000130,-4.349161066539346088
0.272000000000000131,-4.590810930153840452
0.273000000000000131,-4.824874227334209564
0.274000000000000132,-5.051642157555908064
0.275000000000000133,-5.271395139720096878
0.276000000000000134,-5.484402667710012835
0.277000000000000135,-5.690923219940858147
0.278000000000000136,-5.891204219753779725
0.279000000000000137,-6.085482043440507027
0.280000000000000138,-6.273982072650066577
0.281000000000000139,-6.456918787919212477
0.282000000000000139,-6.634495900081236464
0.283000000000000140,-6.806906516341578950
0.284000000000000141,-6.974333337860319837
0.285000000000000142,-7.136948885749627713
0.286000000000000143,-7.294915752475775506
0.287000000000000144,-7.448386875748623126
0.288000000000000145,-7.597505832085660771
0.289000000000000146,-7.742407147348545848
0.290000000000000147,-7.883216621669478563
0.291000000000000147,-8.020051666307802307
0.292000000000000148,-8.153021650105285900
0.293000000000000149,-8.282228253338285384
0.294000000000000150,-8.407765826896943295
0.295000000000000151,-8.529721754853703430
0.296000000000000152,-8.648176818615148420
0.297000000000000153,-8.763205560981729647
0.298000000000000154,-8.874876648568633897
0.299000000000000155,-8.983253231167120489
0.300000000000000155,-9.088393296748691341
0.301000000000000156,-9.190350020933857778
0.302000000000000157,-9.289172109863141458
0.303000000000000158,-9.384904135518873147
0.304000000000000159,-9.477586862653726740
0.305000000000000160,-9.567257566583629469
0.306000000000000161,-9.653950341200324914
0.307000000000000162,-9.737696396651378095
0.308000000000000163,-9.818524346222396559
0.309000000000000163,-9.896460482039092454
0.310000000000000164,-9.971529039284051876
0.311000000000000165,-10.043752448695205004
0.312000000000000166,-10.113151577181149321
0.313000000000000167,-10.179745956450505062
0.314000000000000168,-10.243553999610949035
0.315000000000000169,-10.304593205746728657
0.316000000000000170,-10.362880352532751971
0.317000000000000171,-10.418431676987712109
0.318000000000000171,-10.471263044509457885
0.319000000000000172,-10.521390106372606965
0.320000000000000173,-10.568828445900880553
0.321000000000000174,-10.613593713556181086
0.322000000000000175,-10.655701751212145467
0.323000000000000176,-10.695168705902409201
0.324000000000000177,-10.732011133353479337
0.325000000000000178,-10.766246091628469017
0.326000000000000179,-10.797891225222254974
0.327000000000000179,-10.826964839959561715
0.328000000000000180,-10.853485969056714922
0.329000000000000181,-10.877474430714787701
0.330000000000000182,-10.898950877616030652
0.331000000000000183,-10.917936838699343838
0.332000000000000184,-10.934454753590554077
0.333000000000000185,-10.948528000063936005
0.334000000000000186,-10.960180914908729477
0.335000000000000187,-10.969438808571648991
0.336000000000000187,-10.976327973942044736
0.337000000000000188,-10.980875689640457793
0.338000000000000189,-10.983110218165631267
0.339000000000000190,-10.983060799247294170
0.340000000000000191,-10.980757638744055527
0.341000000000000192,-10.976231893417573104
0.342000000000000193,-10.969515651904377052
0.343000000000000194,-10.960641912197695902
0.344000000000000195,-10.949644555940830415
0.345000000000000195,-10.936558319824170482
0.346000000000000196,-10.921418764366450205
0.347000000000000197,-10.904262240350572455
0.348000000000000198,-10.885125853173232002
0.349000000000000199,-10.864047425356405441
0.350000000000000200,-10.841065457457961685
0.351000000000000201,-10.816219087607411353
0.352000000000000202,-10.789548049881783953
0.353000000000000203,-10.761092631725990287
0.354000000000000203,-10.730893630610960798
0.355000000000000204,-10.698992310112275916
0.356000000000000205,-10.665430355581694499
0.357000000000000206,-10.630249829573736875
0.358000000000000207,-10.593493127179121061
0.359000000000000208,-10.555202931407572819
0.360000000000000209,-10.515422168752660781
0.361000000000000210,-10.474193965062150724
0.362000000000000210,-10.431561601828367003
0.363000000000000211,-10.387568473004442637
0.364000000000000212,-10.342258042443898347
0.365000000000000213,-10.295673802052849766
0.366000000000000214,-10.247859230736398928
0.367000000000000215,-10.198857754213339177
0.368000000000000216,-10.148712705766060438
0.369000000000000217,-10.097467287985642415
0.370000000000000218,-10.045164535565710651
0.371000000000000218,-9.991847279192173303
0.372000000000000219,-9.937558110570154923
0.373000000000000220,-9.882339348623766284
0.374000000000000221,-9.826233006898895894
0.375000000000000222,-9.769280762194121337
0.376000000000000223,-9.711523924440253808
0.377000000000000224,-9.653003407844153116
0.378000000000000225,-9.593759703308482045
0.379000000000000226,-9.533832852134874969
0.380000000000000226,-9.473262421014425172
0.381000000000000227,-9.412087478305604549
0.382000000000000228,-9.350346571596855227
0.383000000000000229,-9.288077706547680279
0.384000000000000230,-9.225318326999369489
0.385000000000000231,-9.162105296344112304
0.386000000000000232,-9.098474880138393672
0.387000000000000233,-9.034462729944797488
0.388000000000000234,-8.970103868384018853
0.389000000000000234,-8.905432675377296547
0.390000000000000235,-8.840482875557503561
0.391000000000000236,-8.775287526826009099
0.392000000000000237,-8.709879010030698865
0.393000000000000238,-8.644289019739670010
0.394000000000000239,-8.578548556083781307
0.395000000000000240,-8.512687917640562318
0.396000000000000241,-8.446736695331027889
0.397000000000000242,-8.380723767300271021
0.398000000000000242,-8.314677294752321757
0.399000000000000243,-8.248624718709088199
0.400000000000000244,-8.182592757662849436
0.401000000000000245,-8.116607406091855381
0.402000000000000246,-8.050693933807865577
0.403000000000000247,-7.984876886104790294
0.404000000000000248,-7.919180084677497788
0.405000000000000249,-7.853626629279764515
0.406000000000000250,-7.788238900090611594
0.407000000000000250,-7.723038560758456406
0.408000000000000251,-7.658046562092605036
0.409000000000000252,-7.593283146372174386
0.410000000000000253,-7.528767852242562064
0.411000000000000254,-7.464519520170223466
0.412000000000000255,-7.400556298426796964
0.413000000000000256,-7.336895649574193712
0.414000000000000257,-7.273554357422599814
0.415000000000000258,-7.210548534434089163
0.416000000000000258,-7.147893629544877392
0.417000000000000259,-7.085604436379997928
0.418000000000000260,-7.023695101834634968
0.419000000000000261,-6.962179134997093399
0.420000000000000262,-6.901069416388864397
0.421000000000000263,-6.840378207498114094
0.422000000000000264,-6.780117160583229108
0.423000000000000265,-6.720297328724046615
0.424000000000000266,-6.660929176098969506
0.425000000000000266,-6.602022588466598840
0.426000000000000267,-6.543586883831598477
0.427000000000000268,-6.485630823274803447
0.428000000000000269,-6.428162621928487752
0.429000000000000270,-6.371189960078327275
0.430000000000000271,-6.314719994374113909
0.431000000000000272,-6.258759369132244288
0.432000000000000273,-6.203314227713278228
0.433000000000000274,-6.148390223958908329
0.434000000000000274,-6.093992533672958345
0.435000000000000275,-6.040125866131953458
0.436000000000000276,-5.986794475611259436
0.437000000000000277,-5.934002172913440454
0.438000000000000278,-5.881752336886135524
0.439000000000000279,-5.830047925917310359
0.440000000000000280,-5.778891489396298375
0.441000000000000281,-5.728285179129650295
0.442000000000000282,-5.678230760701440616
0.443000000000000282,-5.628729624767982109
0.444000000000000283,-5.579782798277791223
0.445000000000000284,-5.531390955607849769
0.446000000000000285,-5.483554429607795377
0.447000000000000286,-5.436273222544424577
0.448000000000000287,-5.389547016938855073
0.449000000000000288,-5.343375186289746281
0.450000000000000289,-5.297756805675918557
0.451000000000000290,-5.252690662232506469
0.452000000000000290,-5.208175265495039952
0.453000000000000291,-5.164208857606263692
0.454000000000000292,-5.120789423380979422
0.455000000000000293,-5.077914700224469335
0.456000000000000294,-5.035582187900571327
0.457000000000000295,-4.993789158145692575
0.458000000000000296,-4.952532664125472550
0.459000000000000297,-4.911809549731158242
0.460000000000000298,-4.871616458712963116
0.461000000000000298,-4.831949843648160048
0.462000000000000299,-4.792805974741779274
0.463000000000000300,-4.754180948458157197
0.464000000000000301,-4.716070695981883887
0.465000000000000302,-4.678470991506876508
0.466000000000000303,-4.641377460352559936
0.467000000000000304,-4.604785586906467998
0.468000000000000305,-4.568690722392696912
0.469000000000000306,-4.533088092465879626
0.470000000000000306,-4.497972804630689048
0.471000000000000307,-4.463339855486753827
0.472000000000000308,-4.429184137799502707
0.473000000000000309,-4.395500447397197696
0.474000000000000310,-4.362283489894877242
0.475000000000000311,-4.329527887245933293
0.476000000000000312,-4.297228184122338313
0.477000000000000313,-4.265378854124436181
0.478000000000000314,-4.233974305821604389
0.479000000000000314,-4.203008888625149986
0.480000000000000315,-4.172476898494699604
0.481000000000000316,-4.142372583479859927
0.482000000000000317,-4.112690149098598980
0.483000000000000318,-4.083423763554231201
0.484000000000000319,-4.054567562792739110
0.485000000000000320,-4.026115655402448645
0.486000000000000321,-3.998062127357957074
0.487000000000000322,-3.970401046610440687
0.488000000000000322,-3.943126467526366863
0.489000000000000323,-3.916232435176958404
0.490000000000000324,-3.889712989480488936
0.491000000000000325,-3.863562169199775465
0.492000000000000326,-3.837774015797134730
0.493000000000000327,-3.812342577149252065
0.494000000000000328,-3.787261911124276903
0.495000000000000329,-3.762526089023628284
0.496000000000000330,-3.738129198890894678
0.497000000000000330,-3.714065348690427815
0.498000000000000331,-3.690328669357928248
0.499000000000000332,-3.666913317725733812
0.500000000000000333,-3.643813479325196170
0.501000000000000334,-3.621023371068670116
0.502000000000000335,-3.598537243813714870
0.503000000000000336,-3.576349384811966736
0.504000000000000337,-3.554454120045260623
0.505000000000000338,-3.532845816451455789
0.506000000000000338,-3.511518884042561517
0.507000000000000339,-3.490467777917604764
0.508000000000000340,-3.469687000172747560
0.509000000000000341,-3.449171101711189014
0.510000000000000342,-3.428914683955226028
0.511000000000000343,-3.408912400463007142
0.512000000000000344,-3.389158958452341608
0.513000000000000345,-3.369649120234014195
0.514000000000000346,-3.350377704557016667
0.515000000000000346,-3.331339587867972796
0.516000000000000347,-3.312529705487166076
0.517000000000000348,-3.293943052703517615
0.518000000000000349,-3.275574685790664464
0.519000000000000350,-3.257419722946555574
0.520000000000000351,-3.239473345158676132
0.521000000000000352,-3.221730796997174906
0.522000000000000353,-3.204187387338021331
0.523000000000000353,-3.186838490018322201
0.524000000000000354,-3.169679544425967777
0.525000000000000355,-3.152706056025597281
0.526000000000000356,-3.135913596822957228
0.527000000000000357,-3.119297805769708276
0.528000000000000358,-3.102854389110541788
0.529000000000000359,-3.086579120674667998
0.530000000000000360,-3.070467842113473900
0.531000000000000361,-3.054516463086289768
0.532000000000000361,-3.038720961396060183
0.533000000000000362,-3.023077383076736346
0.534000000000000363,-3.007581842434143393
0.535000000000000364,-2.992230522042053309
0.536000000000000365,-2.977019672695150998
0.537000000000000366,-2.961945613320570825
0.538000000000000367,-2.947004730849571708
0.539000000000000368,-2.932193480051048518
0.540000000000000369,-2.917508383328271560
0.541000000000000369,-2.902946030480538120
0.542000000000000370,-2.888503078431100768
0.543000000000000371,-2.874176250922862330
0.544000000000000372,-2.859962338183270170
0.545000000000000373,-2.845858196559766462
0.546000000000000374,-2.831860748127143168
0.547000000000000375,-2.817966980268104216
0.548000000000000376,-2.804173945228379150
0.549000000000000377,-2.790478759647555318
0.550000000000000377,-2.776878604066880918
0.551000000000000378,-2.763370722415227299
0.552000000000000379,-2.749952421474376241
0.553000000000000380,-2.736621070324720240
0.554000000000000381,-2.723374099772469137
0.555000000000000382,-2.710209001759500858
0.556000000000000383,-2.697123328756743987
0.557000000000000384,-2.684114693142255703
0.558000000000000385,-2.671180766564831721
0.559000000000000385,-2.658319279294194981
0.560000000000000386,-2.645528019558609056
0.561000000000000387,-2.632804832870854206
0.562000000000000388,-2.620147621343387634
0.563000000000000389,-2.607554342993572138
0.564000000000000390,-2.595023011039725880
0.565000000000000391,-2.582551693188829489
0.566000000000000392,-2.570138510916609054
0.567000000000000393,-2.557781638740777019
0.568000000000000393,-2.545479303488063838
0.569000000000000394,-2.533229783555811743
0.570000000000000395,-2.521031408168757704
0.571000000000000396,-2.508882556631593985
0.572000000000000397,-2.496781657578048375
0.573000000000000398,-2.484727188216935723
0.574000000000000399,-2.472717673575880681
0.575000000000000400,-2.460751685743165051
0.576000000000000401,-2.448827843108292601
0.577000000000000401,-2.436944809601800710
0.578000000000000402,-2.425101293934731839
0.579000000000000403,-2.413296048838302621
0.580000000000000404,-2.401527870304251966
0.581000000000000405,-2.389795596826204793
0.582000000000000406,-2.378098108642582531
0.583000000000000407,-2.366434326981384118
0.584000000000000408,-2.354803213307271825
0.585000000000000409,-2.343203768571295864
0.586000000000000409,-2.331635032463630353
0.587000000000000410,-2.320096082669676818
0.588000000000000411,-2.308586034129788800
0.589000000000000412,-2.297104038303033668
0.590000000000000413,-2.285649282435159524
0.591000000000000414,-2.274220988831145540
0.592000000000000415,-2.262818414132575562
0.593000000000000416,-2.251440848600032130
0.594000000000000417,-2.240087615400817800
0.595000000000000417,-2.228758069902242234
0.596000000000000418,-2.217451598970565652
0.597000000000000419,-2.206167620275987229
0.598000000000000420,-2.194905581603685540
0.599000000000000421,-2.183664960171241010
0.600000000000000422,-2.172445261952498541
0.601000000000000423,-2.161246021008094154
0.602000000000000424,-2.150066798822771741
0.603000000000000425,-2.138907183649636501
0.604000000000000425,-2.127766789861445407
0.605000000000000426,-2.116645257309086148
0.606000000000000427,-2.105542250687391537
0.607000000000000428,-2.094457458908219660
0.608000000000000429,-2.083390594481202562
0.609000000000000430,-2.072341392901864587
0.610000000000000431,-2.061309612047554474
0.611000000000000432,-2.050295031581001126
