# hydroxyapatite-101-ph5_ACYLSYRINGYL-AC
# h[nm],U(h)[kJ/mol]
0.149999999999999994,145.770422043436553849
0.150999999999999995,142.589391247701826160
0.151999999999999996,140.077898350917223524
0.152999999999999997,137.771961199703696366
0.153999999999999998,135.480365828581682308
0.154999999999999999,133.148733581159632422
0.156000000000000000,130.783040945102413843
0.157000000000000001,128.409117344223659529
0.158000000000000002,126.053199647613382695
0.159000000000000002,123.734250265090935272
0.160000000000000003,121.462400131785557278
0.161000000000000004,119.240212705216933387
0.162000000000000005,117.064926971208166151
0.163000000000000006,114.930729190821281804
0.164000000000000007,112.830628260190636070
0.165000000000000008,110.757803539699622775
0.166000000000000009,108.706445880278010918
0.167000000000000010,106.672180011974958802
0.168000000000000010,104.652176142461939889
0.169000000000000011,102.645053315802812222
0.170000000000000012,100.650660499632920164
0.171000000000000013,98.669801367464131658
0.172000000000000014,96.703949526810916382
0.173000000000000015,94.754984484838615799
0.174000000000000016,92.824965606015695130
0.175000000000000017,90.915951647404398273
0.176000000000000018,89.029866749870436138
0.177000000000000018,87.168409475176943602
0.178000000000000019,85.332999054963551089
0.179000000000000020,83.524751955008838422
0.180000000000000021,81.744481733285496716
0.181000000000000022,79.992715645302041594
0.182000000000000023,78.269722268047217995
0.183000000000000024,76.575545387737761871
0.184000000000000025,74.910040397590478278
0.185000000000000026,73.272910396646324216
0.186000000000000026,71.663740020436677014
0.187000000000000027,70.082025745295368324
0.188000000000000028,68.527201984156690173
0.189000000000000029,66.998662738012029649
0.190000000000000030,65.495778896051248807
0.191000000000000031,64.017911504749775986
0.192000000000000032,62.564421468940807358
0.193000000000000033,61.134676223119711835
0.194000000000000034,59.728053934506377232
0.195000000000000034,58.343945784570415469
0.196000000000000035,56.981756834592957262
0.197000000000000036,55.640905923106608100
0.198000000000000037,54.320824976452648514
0.199000000000000038,53.020958044170939161
0.200000000000000039,51.740760302872914167
0.201000000000000040,50.479697208707932532
0.202000000000000041,49.237243921493600851
0.203000000000000042,48.012885074158106136
0.204000000000000042,46.806114919778259775
0.205000000000000043,45.616437855142251578
0.206000000000000044,44.443369294004718029
0.207000000000000045,43.286436844395147716
0.208000000000000046,42.145181731694684402
0.209000000000000047,41.019160401854712461
0.210000000000000048,39.907946236221157221
0.211000000000000049,38.811131310109665549
0.212000000000000050,37.728328130752842640
0.213000000000000050,36.659171295806878277
0.214000000000000051,35.603319020615934676
0.215000000000000052,34.560454490353876622
0.216000000000000053,33.530287001530950874
0.217000000000000054,32.512552865792336831
0.218000000000000055,31.507016057149051846
0.219000000000000056,30.513468591542618924
0.220000000000000057,29.531730634777925815
0.221000000000000058,28.561650341263952413
0.222000000000000058,27.603103431594075090
0.223000000000000059,26.655992521761731950
0.224000000000000060,25.720246220730302866
0.225000000000000061,24.795818016189748789
0.226000000000000062,23.882684970674219471
0.227000000000000063,22.980846251841679617
0.228000000000000064,22.090321521693280005
0.229000000000000065,21.211149209902934842
0.230000000000000066,20.343384696314615212
0.231000000000000066,19.487098427111202881
0.232000000000000067,18.642373988242081140
0.233000000000000068,17.809306158477927085
0.234000000000000069,16.987998963008532627
0.235000000000000070,16.178563746867336448
0.236000000000000071,15.381117285710597997
0.237000000000000072,14.595779949642983198
0.238000000000000073,13.822673933909888078
0.239000000000000073,13.061921568404883942
0.240000000000000074,12.313643716095080904
0.241000000000000075,11.577958268679889642
0.242000000000000076,10.854978746084649188
0.243000000000000077,10.144813004768362674
0.244000000000000078,9.447562058307408250
0.245000000000000079,8.763319012311830747
0.246000000000000080,8.092168114445595251
0.247000000000000081,7.434183919156819975
0.248000000000000081,6.789430565683437280
0.249000000000000082,6.157961166979508683
0.250000000000000111,5.539817306405820929
0.251000000000000112,4.935028638342322971
0.252000000000000113,4.343612588301114741
0.253000000000000114,3.765574147646874703
0.254000000000000115,3.200905757651903549
0.255000000000000115,2.649587277327468016
0.256000000000000116,2.111586029266731224
0.257000000000000117,1.586856917605103501
0.258000000000000118,1.075342612142398124
0.259000000000000119,0.576973792669302155
0.260000000000000120,0.091669447593069359
0.261000000000000121,-0.380662778942518210
0.262000000000000122,-0.840126197108798323
0.263000000000000123,-1.286834644105732339
0.264000000000000123,-1.720912024824846398
0.265000000000000124,-2.142491825521273263
0.266000000000000125,-2.551716605308908203
0.267000000000000126,-2.948737470031779218
0.268000000000000127,-3.333713532794513323
0.269000000000000128,-3.706811365156236882
0.270000000000000129,-4.068204442711591540
0.271000000000000130,-4.418072588500744580
0.272000000000000131,-4.756601417409881627
0.273000000000000131,-5.083981784448015517
0.274000000000000132,-5.400409239515692406
0.275000000000000133,-5.706083491018882903
0.276000000000000134,-6.001207880427759989
0.277000000000000135,-6.285988869635730225
0.278000000000000136,-6.560635542742043747
0.279000000000000137,-6.825359123659391791
0.280000000000000138,-7.080372510738138558
0.281000000000000139,-7.325889829402255415
0.282000000000000139,-7.562126003606460145
0.283000000000000140,-7.789296346752290212
0.284000000000000141,-8.007616172540505062
0.285000000000000142,-8.217300426089709120
0.286000000000000143,-8.418563335515452550
0.287000000000000144,-8.611618084039637466
0.288000000000000145,-8.796676502588331559
0.289000000000000146,-8.973948782733064178
0.290000000000000147,-9.143643209740698552
0.291000000000000147,-9.305965915414537548
0.292000000000000148,-9.461120650338596505
0.293000000000000149,-9.609308575073026049
0.294000000000000150,-9.750728069795215447
0.295000000000000151,-9.885574561833987417
0.296000000000000152,-10.014040370505602695
0.297000000000000153,-10.136314568627785349
0.298000000000000154,-10.252582860062414483
0.299000000000000155,-10.363027472617440949
0.300000000000000155,-10.467827065624039307
0.301000000000000156,-10.567156651495361430
0.302000000000000157,-10.661187530568312809
0.303000000000000158,-10.750087238528433176
0.304000000000000159,-10.834019505720920762
0.305000000000000160,-10.913144227656211172
0.306000000000000161,-10.987617446027902801
0.307000000000000162,-11.057591339571747113
0.308000000000000163,-11.123214224108126658
0.309000000000000163,-11.184630561126157389
0.310000000000000164,-11.241980974284492945
0.311000000000000165,-11.295402273222824974
0.312000000000000166,-11.345027484097595760
0.313000000000000167,-11.390985886276533634
0.314000000000000168,-11.433403054647595098
0.315000000000000169,-11.472400907020439575
0.316000000000000170,-11.508097756120806210
0.317000000000000171,-11.540608365700677496
0.318000000000000171,-11.570044010310052585
0.319000000000000172,-11.596512538298950901
0.320000000000000173,-11.620118437640673648
0.321000000000000174,-11.640962904189745331
0.322000000000000175,-11.659143912010177857
0.323000000000000176,-11.674756285431103109
0.324000000000000177,-11.687891772508187671
0.325000000000000178,-11.698639119589619995
0.326000000000000179,-11.707084146705970085
0.327000000000000179,-11.713309823522244812
0.328000000000000180,-11.717396345609508046
0.329000000000000181,-11.719421210811706402
0.330000000000000182,-11.719459295500479712
0.331000000000000183,-11.717582930527902008
0.332000000000000184,-11.713861976702796497
0.333000000000000185,-11.708363899631937244
0.334000000000000186,-11.701153843781785469
0.335000000000000187,-11.692294705630541074
0.336000000000000187,-11.681847205793523869
0.337000000000000188,-11.669869960017033250
0.338000000000000189,-11.656419548948260712
0.339000000000000190,-11.641550586599523243
0.340000000000000191,-11.625315787435679837
0.341000000000000192,-11.607766032023633329
0.342000000000000193,-11.588950431191822332
0.343000000000000194,-11.568916388656495187
0.344000000000000195,-11.547709662079190807
0.345000000000000195,-11.525374422527990603
0.346000000000000196,-11.501953312321376188
0.347000000000000197,-11.477487501240407397
0.348000000000000198,-11.452016741100782937
0.349000000000000199,-11.425579418681611088
0.350000000000000200,-11.398212607013086028
0.351000000000000201,-11.369952115029482442
0.352000000000000202,-11.340832535598249109
0.353000000000000203,-11.310887291939810240
0.354000000000000203,-11.280148682455966025
0.355000000000000204,-11.248647923987826758
0.356000000000000205,-11.216415193527151217
0.357000000000000206,-11.183479668407278140
0.358000000000000207,-11.149869565001853999
0.359000000000000208,-11.115612175961620878
0.360000000000000209,-11.080733906021187352
0.361000000000000210,-11.045260306408760442
0.362000000000000210,-11.009216107893390557
0.363000000000000211,-10.972625252504901283
0.364000000000000212,-10.935510923962642238
0.365000000000000213,-10.897895576849693455
0.366000000000000214,-10.859800964569622295
0.367000000000000215,-10.821248166123037748
0.368000000000000216,-10.782257611741624004
0.369000000000000217,-10.742849107416910570
0.370000000000000218,-10.703041858361380889
0.371000000000000218,-10.662854491438903182
0.372000000000000219,-10.622305076601479712
0.373000000000000220,-10.581411147368765313
0.374000000000000221,-10.540189720386370809
0.375000000000000222,-10.498657314098302606
0.376000000000000223,-10.456829966568658818
0.377000000000000224,-10.414723252486597360
0.378000000000000225,-10.372352299388214902
0.379000000000000226,-10.329731803128051837
0.380000000000000226,-10.286876042632417949
0.381000000000000227,-10.243798893965465169
0.382000000000000228,-10.200513843738779229
0.383000000000000229,-10.157034001893748609
0.384000000000000230,-10.113372113885484183
0.385000000000000231,-10.069540572296302727
0.386000000000000232,-10.025551427905423196
0.387000000000000233,-9.981416400241261755
0.388000000000000234,-9.937146887641201687
0.389000000000000234,-9.892753976843525976
0.390000000000000235,-9.848248452134560793
0.391000000000000236,-9.803640804073978643
0.392000000000000237,-9.758941237819646730
0.393000000000000238,-9.714159681073184061
0.394000000000000239,-9.669305791666015892
0.395000000000000240,-9.624388964805323354
0.396000000000000241,-9.579418339998222010
0.397000000000000242,-9.534402807671737534
0.398000000000000242,-9.489351015505578246
0.399000000000000243,-9.444271374493631299
0.400000000000000244,-9.399172064749597766
0.401000000000000245,-9.354061041071556559
0.402000000000000246,-9.308946038279112045
0.403000000000000247,-9.263834576336671844
0.404000000000000248,-9.218733965275305309
0.405000000000000249,-9.173651309925254793
0.406000000000000250,-9.128593514470392023
0.407000000000000250,-9.083567286835471322
0.408000000000000251,-9.038579142916313813
0.409000000000000252,-8.993635410662609075
0.410000000000000253,-8.948742234022450504
0.411000000000000254,-8.903905576757221496
0.412000000000000255,-8.859131226134881132
0.413000000000000256,-8.814424796509436888
0.414000000000000257,-8.769791732793606798
0.415000000000000258,-8.725237313831618380
0.416000000000000258,-8.680766655678363364
0.417000000000000259,-8.636384714790896311
0.418000000000000260,-8.592096291137881536
0.419000000000000261,-8.547906031232153978
0.420000000000000262,-8.503818431091255903
0.421000000000000263,-8.459837839130589288
0.422000000000000264,-8.415968458993246415
0.423000000000000265,-8.372214352320565212
0.424000000000000266,-8.328579441467111266
0.425000000000000266,-8.285067512163292847
0.426000000000000267,-8.241682216128921823
0.427000000000000268,-8.198427073640527141
0.428000000000000269,-8.155305476055101366
0.429000000000000270,-8.112320688292768978
0.430000000000000271,-8.069475851280579093
0.431000000000000272,-8.026773984359580894
0.432000000000000273,-7.984217987656937687
0.433000000000000274,-7.941810644424978527
0.434000000000000274,-7.899554623348589821
0.435000000000000275,-7.857452480822469276
0.436000000000000276,-7.815506663199514037
0.437000000000000277,-7.773719509011466577
0.438000000000000278,-7.732093251162856617
0.439000000000000279,-7.690630019099264914
0.440000000000000280,-7.649331840950542194
0.441000000000000281,-7.608200645649901617
0.442000000000000282,-7.567238265029450517
0.443000000000000282,-7.526446435892633069
0.444000000000000283,-7.485826802064240226
0.445000000000000284,-7.445380916418282702
0.446000000000000285,-7.405110242884016536
0.447000000000000286,-7.365016158430657711
0.448000000000000287,-7.325099955030689003
0.449000000000000288,-7.285362841602287531
0.450000000000000289,-7.245805945930728242
0.451000000000000290,-7.206430316569059968
0.452000000000000290,-7.167236924718092261
0.453000000000000291,-7.128226666085637930
0.454000000000000292,-7.089400362725179150
0.455000000000000293,-7.050758764853789273
0.456000000000000294,-7.012302552649430254
0.457000000000000295,-6.974032338027440048
0.458000000000000296,-6.935948666396233087
0.459000000000000297,-6.898052018392131224
0.460000000000000298,-6.860342811593161727
0.461000000000000298,-6.822821402211824982
0.462000000000000299,-6.785488086766679139
0.463000000000000300,-6.748343103732594273
0.464000000000000301,-6.711386635169661830
0.465000000000000302,-6.674618808330579967
0.466000000000000303,-6.638039697246389537
0.467000000000000304,-6.601649324290519871
0.468000000000000305,-6.565447661720975603
0.469000000000000306,-6.529434633200563276
0.470000000000000306,-6.493610115295171070
0.471000000000000307,-6.457973938949763237
0.472000000000000308,-6.422525890942333504
0.473000000000000309,-6.387265715315430192
0.474000000000000310,-6.352193114785394279
0.475000000000000311,-6.317307752129108778
0.476000000000000312,-6.282609251548369578
0.477000000000000313,-6.248097200011631713
0.478000000000000314,-6.213771148573234093
0.479000000000000314,-6.179630613670100026
0.480000000000000315,-6.145675078395739455
0.481000000000000316,-6.111903993751772290
0.482000000000000317,-6.078316779876764109
0.483000000000000318,-6.044912827252558962
0.484000000000000319,-6.011691497888015157
0.485000000000000320,-5.978652126480290541
0.486000000000000321,-5.945794021553639119
0.487000000000000322,-5.913116466575838892
0.488000000000000322,-5.880618721052226938
0.489000000000000323,-5.848300021597596654
0.490000000000000324,-5.816159582985865661
0.491000000000000325,-5.784196599177722220
0.492000000000000326,-5.752410244326280342
0.493000000000000327,-5.720799673761003845
0.494000000000000328,-5.689364024949822074
0.495000000000000329,-5.658102418439797887
0.496000000000000330,-5.627013958776278635
0.497000000000000330,-5.596097735400896944
0.498000000000000331,-5.565352823528362691
0.499000000000000332,-5.534778285002436959
0.500000000000000333,-5.504373169131111077
0.501000000000000334,-5.474136513501210111
0.502000000000000335,-5.444067344772655304
0.503000000000000336,-5.414164679452572848
0.504000000000000337,-5.384427524649400887
0.505000000000000338,-5.354854878807276286
0.506000000000000338,-5.325445732420878819
0.507000000000000339,-5.296199068730965465
0.508000000000000340,-5.267113864400795542
0.509000000000000341,-5.238189090173775320
0.510000000000000342,-5.209423711512415345
0.511000000000000343,-5.180816689218955773
0.512000000000000344,-5.152366980037850652
0.513000000000000345,-5.124073537240364296
0.514000000000000346,-5.095935311191596817
0.515000000000000346,-5.067951249900056965
0.516000000000000347,-5.040120299550162386
0.517000000000000348,-5.012441405017925788
0.518000000000000349,-4.984913510369966438
0.519000000000000350,-4.957535559346266218
0.520000000000000351,-4.930306495826814128
0.521000000000000352,-4.903225264282514040
0.522000000000000353,-4.876290810210518245
0.523000000000000353,-4.849502080554299432
0.524000000000000354,-4.822858024108808372
0.525000000000000355,-4.796357591910835438
0.526000000000000356,-4.769999737614964097
0.527000000000000357,-4.743783417855373941
0.528000000000000358,-4.717707592593682442
0.529000000000000359,-4.691771225453230443
0.530000000000000360,-4.665973284039929503
0.531000000000000361,-4.640312740250078782
0.532000000000000361,-4.614788570565321990
0.533000000000000362,-4.589399756335064140
0.534000000000000363,-4.564145284046587037
0.535000000000000364,-4.539024145583151260
0.536000000000000365,-4.514035338470316461
0.537000000000000366,-4.489177866110791726
0.538000000000000367,-4.464450738007997188
0.539000000000000368,-4.439852969978701935
0.540000000000000369,-4.415383584354861668
0.541000000000000369,-4.391041610175070886
0.542000000000000370,-4.366826083365703326
0.543000000000000371,-4.342736046912141212
0.544000000000000372,-4.318770551020242543
0.545000000000000373,-4.294928653268366148
0.546000000000000374,-4.271209418750087750
0.547000000000000375,-4.247611920207980951
0.548000000000000376,-4.224135238158593708
0.549000000000000377,-4.200778461008923159
0.550000000000000377,-4.177540685164535361
0.551000000000000378,-4.154421015129661221
0.552000000000000379,-4.131418563599409843
0.553000000000000380,-4.108532451544382624
0.554000000000000381,-4.085761808287814212
0.555000000000000382,-4.063105771575612479
0.556000000000000383,-4.040563487639301066
0.557000000000000384,-4.018134111252290808
0.558000000000000385,-3.995816805779490721
0.559000000000000385,-3.973610743220617358
0.560000000000000386,-3.951515104247298016
0.561000000000000387,-3.929529078234205830
0.562000000000000388,-3.907651863284407057
0.563000000000000389,-3.885882666249139028
0.564000000000000390,-3.864220702742144908
0.565000000000000391,-3.842665197148802836
0.566000000000000392,-3.821215382630202217
0.567000000000000393,-3.799870501122363464
0.568000000000000393,-3.778629803330724624
0.569000000000000394,-3.757492548720118286
0.570000000000000395,-3.736458005500404855
0.571000000000000396,-3.715525450607834124
0.572000000000000397,-3.694694169682457563
0.573000000000000398,-3.673963457041559799
0.574000000000000399,-3.653332615649426796
0.575000000000000400,-3.632800957083479609
0.576000000000000401,-3.612367801496964681
0.577000000000000401,-3.592032477578412930
0.578000000000000402,-3.571794322507844122
0.579000000000000403,-3.551652681910003828
0.580000000000000404,-3.531606909804728023
0.581000000000000405,-3.511656368554487706
0.582000000000000406,-3.491800428809366252
0.583000000000000407,-3.472038469449473475
0.584000000000000408,-3.452369877525015340
0.585000000000000409,-3.432794048194073522
0.586000000000000409,-3.413310384658228003
0.587000000000000410,-3.393918298096161745
0.588000000000000411,-3.374617207595294044
0.589000000000000412,-3.355406540081646405
0.590000000000000413,-3.336285730247921855
0.591000000000000414,-3.317254220480003735
0.592000000000000415,-3.298311460781949478
0.593000000000000416,-3.279456908699496687
0.594000000000000417,-3.260690029242281351
0.595000000000000417,-3.242010294804842374
0.596000000000000418,-3.223417185086368875
0.597000000000000419,-3.204910187009512690
0.598000000000000420,-3.186488794638088873
0.599000000000000421,-3.168152509093963065
0.600000000000000422,-3.149900838473061349
0.601000000000000423,-3.131733297760641133
0.602000000000000424,-3.113649408745890135
0.603000000000000425,-3.095648699935912074
0.604000000000000425,-3.077730706469174127
0.605000000000000426,-3.059894970028472994
0.606000000000000427,-3.042141038753547466
0.607000000000000428,-3.024468467153225593
0.608000000000000429,-3.006876816017463483
0.609000000000000430,-2.989365652328971112
0.610000000000000431,-2.971934549174829243
