# hydroxyapatite-101-ph5_BUT2ENOIC-AC
# h[nm],U(h)[kJ/mol]
0.149999999999999994,91.540153087606114468
0.150999999999999995,89.534225922095828309
0.151999999999999996,87.825969710402006285
0.152999999999999997,86.206814586099554276
0.153999999999999998,84.603088714463439146
0.154999999999999999,83.001395423756434866
0.156000000000000000,81.409980989655267081
0.157000000000000001,79.840594441747583687
0.158000000000000002,78.301429525656232045
0.159000000000000002,76.795605662161321447
0.160000000000000003,75.322053948887500496
0.161000000000000004,73.877139479359314578
0.162000000000000005,72.456214432046792240
0.163000000000000006,71.054782840343051475
0.164000000000000007,69.669214373460178535
0.165000000000000008,68.297064900119025310
0.166000000000000009,66.937105276159954315
0.167000000000000010,65.589163076194438418
0.168000000000000010,64.253866530634539345
0.169000000000000011,62.932358046429953902
0.170000000000000012,61.626022909117338600
0.171000000000000013,60.336260133816743689
0.172000000000000014,59.064308000186848346
0.173000000000000015,57.811126539570224736
0.174000000000000016,56.577332593964044349
0.175000000000000017,55.363179300781382608
0.176000000000000018,54.168570232635808281
0.177000000000000018,52.993098278723593353
0.178000000000000019,51.836100153736502705
0.179000000000000020,50.696718745406819551
0.180000000000000021,49.573967059663438306
0.181000000000000022,48.466789085232527157
0.182000000000000023,47.374114345594541930
0.183000000000000024,46.294904161353031213
0.184000000000000025,45.228188677771541393
0.185000000000000026,44.173094516534838760
0.186000000000000026,43.128863502004811892
0.187000000000000027,42.094863315212684540
0.188000000000000028,41.070591173344325853
0.189000000000000029,40.055671749389105685
0.190000000000000030,39.049850565361126087
0.191000000000000031,38.052984039557273377
0.192000000000000032,37.065027266502788450
0.193000000000000033,36.086020476431507120
0.194000000000000034,35.116074974414047460
0.195000000000000034,34.155359209116163299
0.196000000000000035,33.204085476080877015
0.197000000000000036,32.262497626194161171
0.198000000000000037,31.330860030267551508
0.199000000000000038,30.409447947395221945
0.200000000000000039,29.498539358542171129
0.201000000000000040,28.598408257351046302
0.202000000000000041,27.709319336395527245
0.203000000000000042,26.831523967597536995
0.204000000000000042,25.965257348548000493
0.205000000000000043,25.110736670212066457
0.206000000000000044,24.268160154142314866
0.207000000000000045,23.437706807137534071
0.208000000000000046,22.619536746670181770
0.209000000000000047,21.813791959928259701
0.210000000000000048,21.020597371725209257
0.211000000000000049,20.240062110756454672
0.212000000000000050,19.472280878833807094
0.213000000000000050,18.717335343094511302
0.214000000000000051,17.975295486191534167
0.215000000000000052,17.246220863704575521
0.216000000000000053,16.530161731159001448
0.217000000000000054,15.827160014900584883
0.218000000000000055,15.137250111529851893
0.219000000000000056,14.460459509605225747
0.220000000000000057,13.796809234882669415
0.221000000000000058,13.146314126529608401
0.222000000000000058,12.508982956604821624
0.223000000000000059,11.884818408748506258
0.224000000000000060,11.273816934588124283
0.225000000000000061,10.675968507967009913
0.226000000000000062,10.091256297869801273
0.227000000000000063,9.519656280978825436
0.228000000000000064,8.961136814270153295
0.229000000000000065,8.415658187059204209
0.230000000000000066,7.883172170541136836
0.231000000000000066,7.363621581232780322
0.232000000000000067,6.856939872897480193
0.233000000000000068,6.363050769593671774
0.234000000000000069,5.881867950497531972
0.235000000000000070,5.413294795161899486
0.236000000000000071,4.957224195933581434
0.237000000000000072,4.513538442392476036
0.238000000000000073,4.082109180928961578
0.239000000000000073,3.662797450960748158
0.240000000000000074,3.255453797818976369
0.241000000000000075,2.859918461019497649
0.242000000000000076,2.476021635479485283
0.243000000000000077,2.103583802243926826
0.244000000000000078,1.742416124449146508
0.245000000000000079,1.392320903564465695
0.246000000000000080,1.053092090413020321
0.247000000000000081,0.724515845067065456
0.248000000000000081,0.406371139434959616
0.249000000000000082,0.098430396192957306
0.250000000000000111,-0.199539842345132890
0.251000000000000112,-0.487778221794306965
0.252000000000000113,-0.766527865961995625
0.253000000000000114,-1.036035655884948836
0.254000000000000115,-1.296551503473515776
0.255000000000000115,-1.548327625303926203
0.256000000000000116,-1.791617821767223173
0.257000000000000117,-2.026676766420110631
0.258000000000000118,-2.253759309996232751
0.259000000000000119,-2.473119803134924410
0.260000000000000120,-2.685011441473720506
0.261000000000000121,-2.889685636336867702
0.262000000000000122,-3.087391413841033661
0.263000000000000123,-3.278374844834149648
0.264000000000000123,-3.462878507689596486
0.265000000000000124,-3.641140985597207447
0.266000000000000125,-3.813396399629085831
0.267000000000000126,-3.979873978512701083
0.268000000000000127,-4.140797665719427201
0.269000000000000128,-4.296385764172987010
0.270000000000000129,-4.446850618601713379
0.271000000000000130,-4.592398335300686085
0.272000000000000131,-4.733228538834902466
0.273000000000000131,-4.869534165002882276
0.274000000000000132,-5.001501289190959376
0.275000000000000133,-5.129308989081643233
0.276000000000000134,-5.253129240533923827
0.277000000000000135,-5.373126845328326517
0.278000000000000136,-5.489459389364718334
0.279000000000000137,-5.602277229814207615
0.280000000000000138,-5.711723509657497644
0.281000000000000139,-5.817934197989962364
0.282000000000000139,-5.921038154436283563
0.283000000000000140,-6.021157215994811907
0.284000000000000141,-6.118406304621623271
0.285000000000000142,-6.212893553866228658
0.286000000000000143,-6.304720452883421089
0.287000000000000144,-6.393982006167677312
0.288000000000000145,-6.480766907387642384
0.289000000000000146,-6.565157725735796035
0.290000000000000147,-6.647231103253695039
0.291000000000000147,-6.727057961643085449
0.292000000000000148,-6.804703717128643525
0.293000000000000149,-6.880228501996835000
0.294000000000000150,-6.953687391497806125
0.295000000000000151,-7.025130634861874057
0.296000000000000152,-7.094603889248723760
0.297000000000000153,-7.162148455515195522
0.298000000000000154,-7.227801514756043488
0.299000000000000155,-7.291596364640762218
0.300000000000000155,-7.353562654637975982
0.301000000000000156,-7.413726619286646446
0.302000000000000157,-7.472111308740430502
0.303000000000000158,-7.528736815876731825
0.304000000000000159,-7.583620499326245934
0.305000000000000160,-7.636777201840786233
0.306000000000000161,-7.688219463477506288
0.307000000000000162,-7.737957729135644058
0.308000000000000163,-7.786000550037593726
0.309000000000000163,-7.832354778799555106
0.310000000000000164,-7.877025757787926352
0.311000000000000165,-7.920017500505759145
0.312000000000000166,-7.961332865799694680
0.313000000000000167,-8.000973724720697788
0.314000000000000168,-8.038941119912715649
0.315000000000000169,-8.075235417441271935
0.316000000000000170,-8.109856451009736844
0.317000000000000171,-8.142803658543710910
0.318000000000000171,-8.174076211154723381
0.319000000000000172,-8.203673134522563970
0.320000000000000173,-8.231593422761328327
0.321000000000000174,-8.257836144857860106
0.322000000000000175,-8.282400543792682868
0.323000000000000176,-8.305286128472918250
0.324000000000000177,-8.326492758623862400
0.325000000000000178,-8.346020722801309688
0.326000000000000179,-8.363870809700518549
0.327000000000000179,-8.380044372949223330
0.328000000000000180,-8.394543389582533877
0.329000000000000181,-8.407370512406298957
0.330000000000000182,-8.418529116462369899
0.331000000000000183,-8.428023339815565507
0.332000000000000184,-8.435858118886168100
0.333000000000000185,-8.442039218555571267
0.334000000000000186,-8.446573257274796021
0.335000000000000187,-8.449467727406752005
0.336000000000000187,-8.450731011033726148
0.337000000000000188,-8.450372391460529542
0.338000000000000189,-8.448402060642916211
0.339000000000000190,-8.444831122768391651
0.340000000000000191,-8.439671594213860928
0.341000000000000192,-8.432936400101420205
0.342000000000000193,-8.424639367669445988
0.343000000000000194,-8.414795216672047218
0.344000000000000195,-8.403419547014847168
0.345000000000000195,-8.390528823830388561
0.346000000000000196,-8.376140360190531098
0.347000000000000197,-8.360272297647824757
0.348000000000000198,-8.342943584791690625
0.349000000000000199,-8.324173953999242315
0.350000000000000200,-8.303983896554203881
0.351000000000000201,-8.282394636301015467
0.352000000000000202,-8.259428101994643612
0.353000000000000203,-8.235106898500269779
0.354000000000000203,-8.209454276990260979
0.355000000000000204,-8.182494104279314229
0.356000000000000205,-8.154250831432197089
0.357000000000000206,-8.124749461771997971
0.358000000000000207,-8.094015518410175858
0.359000000000000208,-8.062075011413647019
0.360000000000000209,-8.028954404717635995
0.361000000000000210,-7.994680582886978470
0.362000000000000210,-7.959280817822522280
0.363000000000000211,-7.922782735503306917
0.364000000000000212,-7.885214282849633882
0.365000000000000213,-7.846603694786224992
0.366000000000000214,-7.806979461579532931
0.367000000000000215,-7.766370296517725258
0.368000000000000216,-7.724805103996994937
0.369000000000000217,-7.682312948072555159
0.370000000000000218,-7.638923021528301938
0.371000000000000218,-7.594664615514162165
0.372000000000000219,-7.549567089795942820
0.373000000000000220,-7.503659843658158302
0.374000000000000221,-7.456972287496304475
0.375000000000000222,-7.409533815130933121
0.376000000000000223,-7.361373776872537356
0.377000000000000224,-7.312521453362317736
0.378000000000000225,-7.263006030210755526
0.379000000000000226,-7.212856573452566700
0.380000000000000226,-7.162102005833761886
0.381000000000000227,-7.110771083943282278
0.382000000000000228,-7.058892376199398022
0.383000000000000229,-7.006494241698140613
0.384000000000000230,-6.953604809928668473
0.385000000000000231,-6.900251961358430997
0.386000000000000232,-6.846463308888462329
0.387000000000000233,-6.792266180177501056
0.388000000000000234,-6.737687600831445245
0.389000000000000234,-6.682754278453293395
0.390000000000000235,-6.627492587546616853
0.391000000000000236,-6.571928555264638483
0.392000000000000237,-6.516087847995163607
0.393000000000000238,-6.459995758770679330
0.394000000000000239,-6.403677195491509266
0.395000000000000240,-6.347156669949077568
0.396000000000000241,-6.290458287635236623
0.397000000000000242,-6.233605738322702372
0.398000000000000242,-6.176622287401088762
0.399000000000000243,-6.119530767952050532
0.400000000000000244,-6.062353573546571894
0.401000000000000245,-6.005112651747007035
0.402000000000000246,-5.947829498295751804
0.403000000000000247,-5.890525151972216378
0.404000000000000248,-5.833220190099442704
0.405000000000000249,-5.775934724681328625
0.406000000000000250,-5.718688399151250934
0.407000000000000250,-5.661500385712812111
0.408000000000000251,-5.604389383253126411
0.409000000000000252,-5.547373615809273240
0.410000000000000253,-5.490470831568213583
0.411000000000000254,-5.433698302380797429
0.412000000000000255,-5.377072823770320475
0.413000000000000256,-5.320610715416352221
0.414000000000000257,-5.264327822094520215
0.415000000000000258,-5.208239515053340263
0.416000000000000258,-5.152360693809105996
0.417000000000000259,-5.096705788340282872
0.418000000000000260,-5.041288761663016871
0.419000000000000261,-4.986123112769546672
0.420000000000000262,-4.931221879911795725
0.421000000000000263,-4.876597644212540494
0.422000000000000264,-4.822262533586950894
0.423000000000000265,-4.768228226957566207
0.424000000000000266,-4.714505958746343595
0.425000000000000266,-4.661106523627352338
0.426000000000000267,-4.608040281524512949
0.427000000000000268,-4.555317162838829148
0.428000000000000269,-4.502946673890087403
0.429000000000000270,-4.450937902558400161
0.430000000000000271,-4.399299524111244253
0.431000000000000272,-4.348039807202175311
0.432000000000000273,-4.297166620027725870
0.433000000000000274,-4.246687436629414059
0.434000000000000274,-4.196609343328162822
0.435000000000000275,-4.146939045278871916
0.436000000000000276,-4.097682873133313031
0.437000000000000277,-4.048846789799739554
0.438000000000000278,-4.000436397288273938
0.439000000000000279,-3.952456943631310615
0.440000000000000280,-3.904913329868610727
0.441000000000000281,-3.857810117087209001
0.442000000000000282,-3.811151533506625277
0.443000000000000282,-3.764941481600102779
0.444000000000000283,-3.719183545243235578
0.445000000000000284,-3.673880996881440097
0.446000000000000285,-3.629036804708190012
0.447000000000000286,-3.584653639846449913
0.448000000000000287,-3.540733883525708503
0.449000000000000288,-3.497279634247778546
0.450000000000000289,-3.454292714934510400
0.451000000000000290,-3.411774680051118391
0.452000000000000290,-3.369726822699036894
0.453000000000000291,-3.328150181672515195
0.454000000000000292,-3.287045548473575884
0.455000000000000293,-3.246413474280051226
0.456000000000000294,-3.206254276861953745
0.457000000000000295,-3.166568047441503442
0.458000000000000296,-3.127354657492486201
0.459000000000000297,-3.088613765474936379
0.460000000000000298,-3.050344823501262681
0.461000000000000298,-3.012547083930310787
0.462000000000000299,-2.975219605886028962
0.463000000000000300,-2.938361261697614246
0.464000000000000301,-2.901970743258322383
0.465000000000000302,-2.866046568300295583
0.466000000000000303,-2.830587086582903922
0.467000000000000304,-2.795590485992443419
0.468000000000000305,-2.761054798551126233
0.469000000000000306,-2.726977906333475588
0.470000000000000306,-2.693357547288546705
0.471000000000000307,-2.660191320966343032
0.472000000000000308,-2.627476694147261149
0.473000000000000309,-2.595211006373241425
0.474000000000000310,-2.563391475379746431
0.475000000000000311,-2.532015202427580380
0.476000000000000312,-2.501079177533983344
0.477000000000000313,-2.470580284602224896
0.478000000000000314,-2.440515306449392519
0.479000000000000314,-2.410880929732003075
0.480000000000000315,-2.381673749769153581
0.481000000000000316,-2.352890275263245456
0.482000000000000317,-2.324526932918139277
0.483000000000000318,-2.296580071954982039
0.484000000000000319,-2.269045968525797541
0.485000000000000320,-2.241920830025255995
0.486000000000000321,-2.215200799300899082
0.487000000000000322,-2.188881958762377344
0.488000000000000322,-2.162960334390152450
0.489000000000000323,-2.137431899644406386
0.490000000000000324,-2.112292579274732685
0.491000000000000325,-2.087538253031448576
0.492000000000000326,-2.063164759279264793
0.493000000000000327,-2.039167898514281152
0.494000000000000328,-2.015543436785150355
0.495000000000000329,-1.992287109019452940
0.496000000000000330,-1.969394622256250615
0.497000000000000330,-1.946861658785945748
0.498000000000000331,-1.924683879198489267
0.499000000000000332,-1.902856925341156025
0.500000000000000333,-1.881376423187006264
0.501000000000000334,-1.860237985615257994
0.502000000000000335,-1.839437215104834156
0.503000000000000336,-1.818969706342326020
0.504000000000000337,-1.798831048745656913
0.505000000000000338,-1.779016828904770309
0.506000000000000338,-1.759522632940665021
0.507000000000000339,-1.740344048784099540
0.508000000000000340,-1.721476668375347741
0.509000000000000341,-1.702916089786377984
0.510000000000000342,-1.684657919266795645
0.511000000000000343,-1.666697773214987022
0.512000000000000344,-1.649031280075804462
0.513000000000000345,-1.631654082166227537
0.514000000000000346,-1.614561837430408486
0.515000000000000346,-1.597750221125458170
0.516000000000000347,-1.581214927439390294
0.517000000000000348,-1.564951671042695169
0.518000000000000349,-1.548956188574798665
0.519000000000000350,-1.533224240066942468
0.520000000000000351,-1.517751610302779719
0.521000000000000352,-1.502534110118119992
0.522000000000000353,-1.487567577641169425
0.523000000000000353,-1.472847879474632027
0.524000000000000354,-1.458370911821069260
0.525000000000000355,-1.444132601552808426
0.526000000000000356,-1.430128907227766977
0.527000000000000357,-1.416355820052541903
0.528000000000000358,-1.402809364793996982
0.529000000000000359,-1.389485600640758101
0.530000000000000360,-1.376380622015790589
0.531000000000000361,-1.363490559341418162
0.532000000000000361,-1.350811579757983605
0.533000000000000362,-1.338339887797427741
0.534000000000000363,-1.326071726012984175
0.535000000000000364,-1.314003375566225484
0.536000000000000365,-1.302131156772630804
0.537000000000000366,-1.290451429606877198
0.538000000000000367,-1.278960594168971010
0.539000000000000368,-1.267655091112436683
0.540000000000000369,-1.256531402035582445
0.541000000000000369,-1.245586049837058784
0.542000000000000370,-1.234815599036721112
0.543000000000000371,-1.224216656062885100
0.544000000000000372,-1.213785869507062687
0.545000000000000373,-1.203519930347169531
0.546000000000000374,-1.193415572140229086
0.547000000000000375,-1.183469571185577607
0.548000000000000376,-1.173678746659572170
0.549000000000000377,-1.164039960722711653
0.550000000000000377,-1.154550118600137010
0.551000000000000378,-1.145206168636453858
0.552000000000000379,-1.136005102325748028
0.553000000000000380,-1.126943954317705998
0.554000000000000381,-1.118019802400678664
0.555000000000000382,-1.109229767462594385
0.556000000000000383,-1.100571013430462042
0.557000000000000384,-1.092040747189389371
0.558000000000000385,-1.083636218481801805
0.559000000000000385,-1.075354719787734892
0.560000000000000386,-1.067193586186883980
0.561000000000000387,-1.059150195203209410
0.562000000000000388,-1.051221966632786664
0.563000000000000389,-1.043406362355636663
0.564000000000000390,-1.035700886132199017
0.565000000000000391,-1.028103083385150773
0.566000000000000392,-1.020610540967206159
0.567000000000000393,-1.013220886915563224
0.568000000000000393,-1.005931790193583364
0.569000000000000394,-0.998740960420359647
0.570000000000000395,-0.991646147588743032
0.571000000000000396,-0.984645141772381827
0.572000000000000397,-0.977735772822404536
0.573000000000000398,-0.970915910054207076
0.574000000000000399,-0.964183461924960516
0.575000000000000400,-0.957536375702282783
0.576000000000000401,-0.950972637124628539
0.577000000000000401,-0.944490270053884196
0.578000000000000402,-0.938087336120610238
0.579000000000000403,-0.931761934362407396
0.580000000000000404,-0.925512200855891032
0.581000000000000405,-0.919336308342644570
0.582000000000000406,-0.913232465849627362
0.583000000000000407,-0.907198918304416901
0.584000000000000408,-0.901233946145694076
0.585000000000000409,-0.895335864929351133
0.586000000000000409,-0.889503024930598407
0.587000000000000410,-0.883733810742428183
0.588000000000000411,-0.878026640870779751
0.589000000000000412,-0.872379967326760264
0.590000000000000413,-0.866792275216220931
0.591000000000000414,-0.861262082327024503
0.592000000000000415,-0.855787938714314356
0.593000000000000416,-0.850368426284050072
0.594000000000000417,-0.845002158375119050
0.595000000000000417,-0.839687779340312468
0.596000000000000418,-0.834423964126363771
0.597000000000000419,-0.829209417853406405
0.598000000000000420,-0.824042875393989904
0.599000000000000421,-0.818923100951978733
0.600000000000000422,-0.813848887641500651
0.601000000000000423,-0.808819057066201275
0.602000000000000424,-0.803832458898992797
0.603000000000000425,-0.798887970462516472
0.604000000000000425,-0.793984496310494947
0.605000000000000426,-0.789120967810169938
0.606000000000000427,-0.784296342726033879
0.607000000000000428,-0.779509604804925038
0.608000000000000429,-0.774759763362829257
0.609000000000000430,-0.770045852873317616
0.610000000000000431,-0.765366932557994484
0.611000000000000432,-0.760722085978934759
0.612000000000000433,-0.756110420633310576
0.613000000000000433,-0.751531067550369136
