# hydroxyapatite-101-ph5_PYRIDINE-AC
# h[nm],U(h)[kJ/mol]
0.149999999999999994,122.223807395883071081
0.150999999999999995,120.186735384342725297
0.151999999999999996,118.045635807568061182
0.152999999999999997,115.925227995425643712
0.153999999999999998,113.867148510442660836
0.154999999999999999,111.873820334394025622
0.156000000000000000,109.932514053402840659
0.157000000000000001,108.027584293801808712
0.158000000000000002,106.145911675407575103
0.159000000000000002,104.278649849519609916
0.160000000000000003,102.421132723228268446
0.161000000000000004,100.572008761798073806
0.162000000000000005,98.732180968823783473
0.163000000000000006,96.903837311752752726
0.164000000000000007,95.089686495325963733
0.165000000000000008,93.292421472575313146
0.166000000000000009,91.514387495984379939
0.167000000000000010,89.757413306553331722
0.168000000000000010,88.022760934184759662
0.169000000000000011,86.311153998668913800
0.170000000000000012,84.622851900092641131
0.171000000000000013,82.957745374483494061
0.172000000000000014,81.315456284678248267
0.173000000000000015,79.695430667171621053
0.174000000000000016,78.097018829756123637
0.175000000000000017,76.519539779823546155
0.176000000000000018,74.962329648250516811
0.177000000000000018,73.424775279060668254
0.178000000000000019,71.906334993594583693
0.179000000000000020,70.406548896787043645
0.180000000000000021,68.925041126427728955
0.181000000000000022,67.461516274638341883
0.182000000000000023,66.015751924629427094
0.183000000000000024,64.587588909792430059
0.184000000000000025,63.176920560267788574
0.185000000000000026,61.783681882154304787
0.186000000000000026,60.407839332340472538
0.187000000000000027,59.049381614800687146
0.188000000000000028,57.708311733488599771
0.189000000000000029,56.384640390283422562
0.190000000000000030,55.078380709192572340
0.191000000000000031,53.789544194489415929
0.192000000000000032,52.518137784672560997
0.193000000000000033,51.264161840263909653
0.194000000000000034,50.027608896239001979
0.195000000000000034,48.808463014682793357
0.196000000000000035,47.606699586214361375
0.197000000000000036,46.422285446674671050
0.198000000000000037,45.255179196050320911
0.199000000000000038,44.105331627749400525
0.200000000000000039,42.972686196805874204
0.201000000000000040,41.857179474452841816
0.202000000000000041,40.758741553207229913
0.203000000000000042,39.677296380860468616
0.204000000000000042,38.612762013485756540
0.205000000000000043,37.565050786821856832
0.206000000000000044,36.534069412343924910
0.207000000000000045,35.519719009222889383
0.208000000000000046,34.521895086475112180
0.209000000000000047,33.540487491200323689
0.210000000000000048,32.575380339177598898
0.211000000000000049,31.626451943504019226
0.212000000000000050,30.693574755657426323
0.213000000000000050,29.776615331563686340
0.214000000000000051,28.875434333129209818
0.215000000000000052,27.989886573420939442
0.216000000000000053,27.119821111363744848
0.217000000000000054,26.265081399577571375
0.218000000000000055,25.425505486871575300
0.219000000000000056,24.600926275004006527
0.220000000000000057,23.791171827635789526
0.221000000000000058,22.996065727983364013
0.222000000000000058,22.215427480505582025
0.223000000000000059,21.449072951052492897
0.224000000000000060,20.696814839238623307
0.225000000000000061,19.958463176369981795
0.226000000000000062,19.233825842030245923
0.227000000000000063,18.522709092393224495
0.228000000000000064,17.824918093454179768
0.229000000000000065,17.140257452632855717
0.230000000000000066,16.468531742577326327
0.231000000000000066,15.809546011460474446
0.232000000000000067,15.163106274593985745
0.233000000000000068,14.529019982763543339
0.234000000000000069,13.907096463298454836
0.235000000000000070,13.297147330511339902
0.236000000000000071,12.698986862766435735
0.237000000000000072,12.112432344044654187
0.238000000000000073,11.537304368461963833
0.239000000000000073,10.973427106757107197
0.240000000000000074,10.420628534285217626
0.241000000000000075,9.878740620537024952
0.242000000000000076,9.347599480640326419
0.243000000000000077,8.827045489692201485
0.244000000000000078,8.316923361115701852
0.245000000000000079,7.817082190532524066
0.246000000000000080,7.327375466896763889
0.247000000000000081,6.847661052841557350
0.248000000000000081,6.377801136357303946
0.249000000000000082,5.917662156045764732
0.250000000000000111,5.467114702282908745
0.251000000000000112,5.026033396678305287
0.252000000000000113,4.594296752241088910
0.253000000000000114,4.171787016659354919
0.254000000000000115,3.758390001068279584
0.255000000000000115,3.353994896631911526
0.256000000000000116,2.958494081192105440
0.257000000000000117,2.571782918151362285
0.258000000000000118,2.193759549656737029
0.259000000000000119,1.824324686040467158
0.260000000000000120,1.463381393353468951
0.261000000000000121,1.110834880702559646
0.262000000000000122,0.766592288971556401
0.263000000000000123,0.430562482374439448
0.264000000000000123,0.102655844154676948
0.265000000000000124,-0.217215922387718224
0.266000000000000125,-0.529139986491303116
0.267000000000000126,-0.833202575228444653
0.268000000000000127,-1.129489150703693934
0.269000000000000128,-1.418084578477704971
0.270000000000000129,-1.699073286654213533
0.271000000000000130,-1.972539415176871369
0.272000000000000131,-2.238566954985335311
0.273000000000000131,-2.497239876777039402
0.274000000000000132,-2.748642249210796695
0.275000000000000133,-2.992858346472083486
0.276000000000000134,-3.229972745196579176
0.277000000000000135,-3.460070410818047115
0.278000000000000136,-3.683236773470910386
0.279000000000000137,-3.899557793634458314
0.280000000000000138,-4.109120017756312748
0.281000000000000139,-4.312010624138144621
0.282000000000000139,-4.508317459405016159
0.283000000000000140,-4.698129065913809299
0.284000000000000141,-4.881534700484129630
0.285000000000000142,-5.058624344858702493
0.286000000000000143,-5.229488708319104617
0.287000000000000144,-5.394219222896841082
0.288000000000000145,-5.552908031630974683
0.289000000000000146,-5.705647970329427388
0.290000000000000147,-5.852532543295554390
0.291000000000000147,-5.993655893481038888
0.292000000000000148,-6.129112767524606653
0.293000000000000149,-6.258998476130500421
0.294000000000000150,-6.383408850233890597
0.295000000000000151,-6.502440193391228362
0.296000000000000152,-6.616189230822612899
0.297000000000000153,-6.724753055520889866
0.298000000000000154,-6.828229071828682883
0.299000000000000155,-6.926714936869663219
0.300000000000000155,-7.020308500204838431
0.301000000000000156,-7.109107742068163205
0.302000000000000157,-7.193210710519065465
0.303000000000000158,-7.272715457831930408
0.304000000000000159,-7.347719976425230115
0.305000000000000160,-7.418322134614962593
0.306000000000000161,-7.484619612459598947
0.307000000000000162,-7.546709837945892119
0.308000000000000163,-7.604689923747284475
0.309000000000000163,-7.658656604769532805
0.310000000000000164,-7.708706176681109135
0.311000000000000165,-7.754934435609264654
0.312000000000000166,-7.797436619166633776
0.313000000000000167,-7.836307348957438634
0.314000000000000168,-7.871640574697188697
0.315000000000000169,-7.903529520065180058
0.316000000000000170,-7.932066630395138596
0.317000000000000171,-7.957343522295632354
0.318000000000000171,-7.979450935279312596
0.319000000000000172,-7.998478685467662608
0.320000000000000173,-8.014515621426431480
0.321000000000000174,-8.027649582175730103
0.322000000000000175,-8.037967357408822622
0.323000000000000176,-8.045554649943481351
0.324000000000000177,-8.050496040421016630
0.325000000000000178,-8.052874954259248597
0.326000000000000179,-8.052773630858210296
0.327000000000000179,-8.050273095049529815
0.328000000000000180,-8.045453130773969619
0.329000000000000181,-8.038392256965455118
0.330000000000000182,-8.029167705613769357
0.331000000000000183,-8.017855401973436713
0.332000000000000184,-8.004529946881207891
0.333000000000000185,-7.989264601140452449
0.334000000000000186,-7.972131271927032969
0.335000000000000187,-7.953200501167655645
0.336000000000000187,-7.932541455839087874
0.337000000000000188,-7.910221920133480467
0.338000000000000189,-7.886308289433481278
0.339000000000000190,-7.860865566038478747
0.340000000000000191,-7.833957356581782605
0.341000000000000192,-7.805645871077726561
0.342000000000000193,-7.775991923536049732
0.343000000000000194,-7.745054934080954467
0.344000000000000195,-7.712892932511003607
0.345000000000000195,-7.679562563236598471
0.346000000000000196,-7.645119091531098476
0.347000000000000197,-7.609616411032223304
0.348000000000000198,-7.573107052430648523
0.349000000000000199,-7.535642193283138113
0.350000000000000200,-7.497271668888458862
0.351000000000000201,-7.458043984164892670
0.352000000000000202,-7.418006326469236633
0.353000000000000203,-7.377204579298320297
0.354000000000000203,-7.335683336815034927
0.355000000000000204,-7.293485919142172591
0.356000000000000205,-7.250654388368808156
0.357000000000000206,-7.207229565215229172
0.358000000000000207,-7.163251046303789948
0.359000000000000208,-7.118757221984742145
0.360000000000000209,-7.073785294667520596
0.361000000000000210,-7.028371297609457891
0.362000000000000210,-6.982550114115649187
0.363000000000000211,-6.936355497105116008
0.364000000000000212,-6.889820089000221692
0.365000000000000213,-6.842975441897718447
0.366000000000000214,-6.795852037981623184
0.367000000000000215,-6.748479310139512855
0.368000000000000216,-6.700885662745750260
0.369000000000000217,-6.653098492576397405
0.370000000000000218,-6.605144209822500834
0.371000000000000218,-6.557048259169631521
0.372000000000000219,-6.508835140913501682
0.373000000000000220,-6.460528432082663031
0.374000000000000221,-6.412150807541010522
0.375000000000000222,-6.363724061044029767
0.376000000000000223,-6.315269126224498208
0.377000000000000224,-6.266806097484386662
0.378000000000000225,-6.218354250771319869
0.379000000000000226,-6.169932064219105783
0.380000000000000226,-6.121557238633361209
0.381000000000000227,-6.073246717804137162
0.382000000000000228,-6.025016708629104656
0.383000000000000229,-5.976882701031717815
0.384000000000000230,-5.928859487659899230
0.385000000000000231,-5.880961183352249932
0.386000000000000232,-5.833201244359302429
0.387000000000000233,-5.785592487308849563
0.388000000000000234,-5.738147107904969957
0.389000000000000234,-5.690876699351674617
0.390000000000000235,-5.643792270492611785
0.391000000000000236,-5.596904263659522982
0.392000000000000237,-5.550222572222621054
0.393000000000000238,-5.503756557837157892
0.394000000000000239,-5.457515067380912299
0.395000000000000240,-5.411506449578331157
0.396000000000000241,-5.365738571307538507
0.397000000000000242,-5.320218833587108342
0.398000000000000242,-5.274954187240295411
0.399000000000000243,-5.229951148234716740
0.400000000000000244,-5.185215812696218229
0.401000000000000245,-5.140753871596274394
0.402000000000000246,-5.096570625112449626
0.403000000000000247,-5.052670996662222080
0.404000000000000248,-5.009059546610795444
0.405000000000000249,-4.965740485653912017
0.406000000000000250,-4.922717687877070425
0.407000000000000250,-4.879994703493003350
0.408000000000000251,-4.837574771259469664
0.409000000000000252,-4.795460830579853173
0.410000000000000253,-4.753655533289284030
0.411000000000000254,-4.712161255129266202
0.412000000000000255,-4.670980106914097263
0.413000000000000256,-4.630113945392571040
0.414000000000000257,-4.589564383808580672
0.415000000000000258,-4.549332802164638423
0.416000000000000258,-4.509420357192256645
0.417000000000000259,-4.469827992033481578
0.418000000000000260,-4.430556445637946261
0.419000000000000261,-4.391606261879882567
0.420000000000000262,-4.352977798399765064
0.421000000000000263,-4.314671235175296715
0.422000000000000264,-4.276686582826466854
0.423000000000000265,-4.239023690659582400
0.424000000000000266,-4.201682254455304744
0.425000000000000266,-4.164661824005497337
0.426000000000000267,-4.127961810404085163
0.427000000000000268,-4.091581493096871469
0.428000000000000269,-4.055520026695456970
0.429000000000000270,-4.019776447560366783
0.430000000000000271,-3.984349680158410401
0.431000000000000272,-3.949238543199490525
0.432000000000000273,-3.914441755557859892
0.433000000000000274,-3.879957941982964176
0.434000000000000274,-3.845785638604878987
0.435000000000000275,-3.811923298239408897
0.436000000000000276,-3.778369295497832958
0.437000000000000277,-3.745121931706216323
0.438000000000000278,-3.712179439639242240
0.439000000000000279,-3.679539988073437407
0.440000000000000280,-3.647201686164540213
0.441000000000000281,-3.615162587653810711
0.442000000000000282,-3.583420694908050930
0.443000000000000282,-3.551973962797783546
0.444000000000000283,-3.520820302418387282
0.445000000000000284,-3.489957584658552214
0.446000000000000285,-3.459383643620463911
0.447000000000000286,-3.429096279896279409
0.448000000000000287,-3.399093263704922041
0.449000000000000288,-3.369372337893644875
0.450000000000000289,-3.339931220808359136
0.451000000000000290,-3.310767609036846970
0.452000000000000290,-3.281879180028890008
0.453000000000000291,-3.253263594597116004
0.454000000000000292,-3.224918499302520392
0.455000000000000293,-3.196841528728313619
0.456000000000000294,-3.169030307645830824
0.457000000000000295,-3.141482453076075210
0.458000000000000296,-3.114195576250393227
0.459000000000000297,-3.087167284473752993
0.460000000000000298,-3.060395182893933530
0.461000000000000298,-3.033876876179939508
0.462000000000000299,-3.007609970112830489
0.463000000000000300,-2.981592073092032003
0.464000000000000301,-2.955820797560256619
0.465000000000000302,-2.930293761349932247
0.466000000000000303,-2.905008588954026916
0.467000000000000304,-2.879962912724115753
0.468000000000000305,-2.855154373998398221
0.469000000000000306,-2.830580624162318149
0.470000000000000306,-2.806239325644448002
0.471000000000000307,-2.782128152850014136
0.472000000000000308,-2.758244793034673403
0.473000000000000309,-2.734586947120789979
0.474000000000000310,-2.711152330458598048
0.475000000000000311,-2.687938673534407741
0.476000000000000312,-2.664943722628183131
0.477000000000000313,-2.642165240422391204
0.478000000000000314,-2.619601006564325818
0.479000000000000314,-2.597248818183853558
0.480000000000000315,-2.575106490368433310
0.481000000000000316,-2.553171856597382217
0.482000000000000317,-2.531442769137072446
0.483000000000000318,-2.509917099398897733
0.484000000000000319,-2.488592738261613757
0.485000000000000320,-2.467467596359774973
0.486000000000000321,-2.446539604339749818
0.487000000000000322,-2.425806713084913024
0.488000000000000322,-2.405266893911412129
0.489000000000000323,-2.384918138736022986
0.490000000000000324,-2.364758460217390557
0.491000000000000325,-2.344785891872015693
0.492000000000000326,-2.324998488166226451
0.493000000000000327,-2.305394324585438248
0.494000000000000328,-2.285971497681813069
0.495000000000000329,-2.266728125101511448
0.496000000000000330,-2.247662345592603028
0.497000000000000330,-2.228772318994767687
0.498000000000000331,-2.210056226211666530
0.499000000000000332,-2.191512269167151139
0.500000000000000333,-2.173138670746117995
0.501000000000000334,-2.154933674720935777
0.502000000000000335,-2.136895545664383000
0.503000000000000336,-2.119022568849877164
0.504000000000000337,-2.101313050139807626
0.505000000000000338,-2.083765315862757816
0.506000000000000338,-2.066377712680361078
0.507000000000000339,-2.049148607444477577
0.508000000000000340,-2.032076387045374410
0.509000000000000341,-2.015159458251623459
0.510000000000000342,-1.998396247542226334
0.511000000000000343,-1.981785200931679203
0.512000000000000344,-1.965324783788458207
0.513000000000000345,-1.949013480647524332
0.514000000000000346,-1.932849795017386629
0.515000000000000346,-1.916832249182131021
0.516000000000000347,-1.900959383998983565
0.517000000000000348,-1.885229758691852719
0.518000000000000349,-1.869641950641192096
0.519000000000000350,-1.854194555170721515
0.520000000000000351,-1.838886185331298107
0.521000000000000352,-1.823715471682381351
0.522000000000000353,-1.808681062071385126
0.523000000000000353,-1.793781621411289606
0.524000000000000354,-1.779015831456850716
0.525000000000000355,-1.764382390579644078
0.526000000000000356,-1.749880013542290724
0.527000000000000357,-1.735507431272141243
0.528000000000000358,-1.721263390634589552
0.529000000000000359,-1.707146654206389558
0.530000000000000360,-1.693156000049073073
0.531000000000000361,-1.679290221482796941
0.532000000000000361,-1.665548126860730394
0.533000000000000362,-1.651928539344249103
0.534000000000000363,-1.638430296679060039
0.535000000000000364,-1.625052250972456536
0.536000000000000365,-1.611793268471851892
0.537000000000000366,-1.598652229344753373
0.538000000000000367,-1.585628027460254774
0.539000000000000368,-1.572719570172299353
0.540000000000000369,-1.559925778104668925
0.541000000000000369,-1.547245584937976925
0.542000000000000370,-1.534677937198623887
0.543000000000000371,-1.522221794049902099
0.544000000000000372,-1.509876127085310937
0.545000000000000373,-1.497639920124151258
0.546000000000000374,-1.485512169009471473
0.547000000000000375,-1.473491881408442561
0.548000000000000376,-1.461578076615240196
0.549000000000000377,-1.449769785356436635
0.550000000000000377,-1.438066049598992979
0.551000000000000378,-1.426465922360882432
0.552000000000000379,-1.414968467524376106
0.553000000000000380,-1.403572759652043533
0.554000000000000381,-1.392277883805446148
0.555000000000000382,-1.381082935366641173
0.556000000000000383,-1.369987019862386468
0.557000000000000384,-1.358989252791192204
0.558000000000000385,-1.348088759453131891
0.559000000000000385,-1.337284674782476035
0.560000000000000386,-1.326576143183130885
0.561000000000000387,-1.315962318366888706
0.562000000000000388,-1.305442363194484479
0.563000000000000389,-1.295015449519469009
0.564000000000000390,-1.284680758034864478
0.565000000000000391,-1.274437478122615763
0.566000000000000392,-1.264284807705813085
0.567000000000000393,-1.254221953103691112
0.568000000000000393,-1.244248128889347216
0.569000000000000394,-1.234362557750201539
0.570000000000000395,-1.224564470351170664
0.571000000000000396,-1.214853105200493166
0.572000000000000397,-1.205227708518265883
0.573000000000000398,-1.195687534107559902
0.574000000000000399,-1.186231843228198857
0.575000000000000400,-1.176859904473069651
0.576000000000000401,-1.167570993647011335
0.577000000000000401,-1.158364393648240842
0.578000000000000402,-1.149239394352240318
0.579000000000000403,-1.140195292498107360
0.580000000000000404,-1.131231391577367962
0.581000000000000405,-1.122347001725139570
0.582000000000000406,-1.113541439613685569
0.583000000000000407,-1.104814028348277688
0.584000000000000408,-1.096164097365364354
0.585000000000000409,-1.087590982332982348
0.586000000000000409,-1.079094025053393580
0.587000000000000410,-1.070672573367915215
0.588000000000000411,-1.062325981063875435
0.589000000000000412,-1.054053607783714375
0.590000000000000413,-1.045854818936122088
0.591000000000000414,-1.037728985609235988
0.592000000000000415,-1.029675484485850001
0.593000000000000416,-1.021693697760557962
0.594000000000000417,-1.013783013058838334
0.595000000000000417,-1.005942823358056293
0.596000000000000418,-0.998172526910259150
0.597000000000000419,-0.990471527166859600
0.598000000000000420,-0.982839232705040144
0.599000000000000421,-0.975275057155940539
0.600000000000000422,-0.967778419134534551
0.601000000000000423,-0.960348742171186820
0.602000000000000424,-0.952985454644842078
0.603000000000000425,-0.945687989717828081
0.604000000000000425,-0.938455785272207188
0.605000000000000426,-0.931288283847663600
0.606000000000000427,-0.924184932580928931
0.607000000000000428,-0.917145183146574672
0.608000000000000429,-0.910168491699373972
0.609000000000000430,-0.903254318817910518
0.610000000000000431,-0.896402129449677232
0.611000000000000432,-0.889611392857437289
0.612000000000000433,-0.882881582566887979
0.613000000000000433,-0.876212176315632418
