# Hydroxyapatite-001_ALASCA-JS
# h[nm],U(h)[kJ/mol]
0.200000000000000011,46.418392877582441258
0.201000000000000012,44.184753221745914686
0.202000000000000013,42.903498679978440578
0.203000000000000014,42.068441712324265325
0.204000000000000015,41.392496897473151307
0.205000000000000016,40.727691413810973131
0.206000000000000016,40.010731086066492423
0.207000000000000017,39.226766208173401651
0.208000000000000018,38.385952989248288247
0.209000000000000019,37.508872098004161444
0.210000000000000020,36.617960637684767278
0.211000000000000021,35.732926890500323225
0.212000000000000022,34.868716775027600363
0.213000000000000023,34.035039706405136428
0.214000000000000024,33.236779652243498617
0.215000000000000024,32.474845312731424940
0.216000000000000025,31.747174833696295337
0.217000000000000026,31.049722928813871192
0.218000000000000027,30.377335030598533905
0.219000000000000028,29.724464065498874987
0.220000000000000029,29.085718070344274366
0.221000000000000030,28.456246617599930460
0.222000000000000031,27.831984915732874697
0.223000000000000032,27.209779418275282126
0.224000000000000032,26.587419906747641107
0.225000000000000033,25.963601791421201170
0.226000000000000034,25.337839830409141229
0.227000000000000035,24.710351301117864153
0.228000000000000036,24.081923328251203742
0.229000000000000037,23.453775867580276326
0.230000000000000038,22.827428932287610053
0.231000000000000039,22.204580113563132215
0.232000000000000040,21.586996318341288514
0.233000000000000040,20.976421917853720345
0.234000000000000041,20.374504142516236982
0.235000000000000042,19.782735531182705557
0.236000000000000043,19.202412500453483801
0.237000000000000044,18.634608596331950991
0.238000000000000045,18.080160682043626252
0.239000000000000046,17.539666162052920839
0.240000000000000047,17.013489307674063866
0.241000000000000048,16.501774803569563943
0.242000000000000048,16.004466751133815450
0.243000000000000049,15.521331523119524576
0.244000000000000050,15.051983046886112660
0.245000000000000051,14.595909287992679282
0.246000000000000052,14.152498901351673766
0.247000000000000053,13.721067206294071283
0.248000000000000054,13.300880819383044340
0.249000000000000055,12.891180441162438441
0.250000000000000056,12.491201438187603756
0.251000000000000056,12.100191988734637860
0.252000000000000057,11.717428669447111034
0.253000000000000058,11.342229451418736730
0.254000000000000059,10.973964148830903653
0.255000000000000060,10.612062422570094355
0.256000000000000061,10.256019486720896694
0.257000000000000062,9.905399699031372407
0.258000000000000063,9.559838238955610024
0.259000000000000064,9.219041090232277469
0.260000000000000064,8.882783550618471580
0.261000000000000065,8.550907490723824722
0.262000000000000066,8.223317578119571536
0.263000000000000067,7.899976673145973294
0.264000000000000068,7.580900590092437774
0.265000000000000069,7.266152402535860588
0.266000000000000070,6.955836455331528612
0.267000000000000071,6.650092228677960016
0.268000000000000071,6.349088182341334097
0.269000000000000072,6.053015690946674354
0.270000000000000073,5.762083164558756465
0.271000000000000074,5.476510432845864251
0.272000000000000075,5.196523456137781771
0.273000000000000076,4.922349412794210011
0.274000000000000077,4.654212199578572573
0.275000000000000078,4.392328370234479529
0.276000000000000079,4.136903527201771347
0.277000000000000079,3.888129172373159470
0.278000000000000080,3.646180014948317449
0.279000000000000081,3.411211727736415789
0.280000000000000082,3.183359137629575120
0.281000000000000083,2.962734831344256303
0.282000000000000084,2.749428153828373578
0.283000000000000085,2.543504573877266584
0.284000000000000086,2.345005389408932217
0.285000000000000087,2.153947743437496065
0.286000000000000087,1.970324920973140381
0.287000000000000088,1.794106896790882200
0.288000000000000089,1.625241104177027607
0.289000000000000090,1.463653395312363603
0.290000000000000091,1.309249164822791744
0.291000000000000092,1.161914609161759149
0.292000000000000093,1.021518095832936179
0.293000000000000094,0.887911617966967492
0.294000000000000095,0.760932311390892679
0.295000000000000095,0.640404013034201469
0.296000000000000096,0.526138841268862567
0.297000000000000097,0.417938780552335243
0.298000000000000098,0.315597254508212910
0.299000000000000099,0.218900673317080352
0.300000000000000100,0.127629942983361916
0.301000000000000101,0.041561925677262315
0.302000000000000102,-0.039529158086537300
0.303000000000000103,-0.115870393189884610
0.304000000000000103,-0.187688905932593186
0.305000000000000104,-0.255210677391654595
0.306000000000000105,-0.318659437966124393
0.307000000000000106,-0.378255645842218879
0.308000000000000107,-0.434215551095796237
0.309000000000000108,-0.486750346226672459
0.310000000000000109,-0.536065403089629022
0.311000000000000110,-0.582359595447059397
0.312000000000000111,-0.625824705715412710
0.313000000000000111,-0.666644913907045833
0.314000000000000112,-0.704996366277407027
0.315000000000000113,-0.741046820769418746
0.316000000000000114,-0.774955365998263201
0.317000000000000115,-0.806872210235257348
0.318000000000000116,-0.836938536624632468
0.319000000000000117,-0.865286420696737779
0.320000000000000118,-0.892038806120806216
0.321000000000000119,-0.917309534565298512
0.322000000000000119,-0.941203425499537394
0.323000000000000120,-0.963816401772299214
0.324000000000000121,-0.985235656837634144
0.325000000000000122,-1.005539859560939053
0.326000000000000123,-1.024799392625874717
0.327000000000000124,-1.043076620671603560
0.328000000000000125,-1.060426184416848994
0.329000000000000126,-1.076895317169080268
0.330000000000000127,-1.092524180271534862
0.331000000000000127,-1.107346214204844914
0.332000000000000128,-1.121388502231428941
0.333000000000000129,-1.134672143647769582
0.334000000000000130,-1.147212633889828970
0.335000000000000131,-1.159020248919045537
0.336000000000000132,-1.170100431498376947
0.337000000000000133,-1.180454177149120154
0.338000000000000134,-1.190078417757915563
0.339000000000000135,-1.198966400978833446
0.340000000000000135,-1.207108063746656912
0.341000000000000136,-1.214490398383697878
0.342000000000000137,-1.221097809943171075
0.343000000000000138,-1.226912463586590896
0.344000000000000139,-1.231914620940731009
0.345000000000000140,-1.236082964520779148
0.346000000000000141,-1.239394909440328707
0.347000000000000142,-1.241826901755667123
0.348000000000000143,-1.243354702911301235
0.349000000000000143,-1.243953659865642880
0.350000000000000144,-1.243598960580615254
0.351000000000000145,-1.242265874656293123
0.352000000000000146,-1.239929978982051484
0.353000000000000147,-1.236567368358900243
0.354000000000000148,-1.232154851124177330
0.355000000000000149,-1.226670129879498639
0.356000000000000150,-1.220091967486293338
0.357000000000000151,-1.212400338550444490
0.358000000000000151,-1.203576566668861592
0.359000000000000152,-1.193603447756411917
0.360000000000000153,-1.182465359812016059
0.361000000000000154,-1.170148359517759307
0.362000000000000155,-1.156640266095312786
0.363000000000000156,-1.141930732869747001
0.364000000000000157,-1.126011307012304119
0.365000000000000158,-1.108875477951420940
0.366000000000000159,-1.090518714954942681
0.367000000000000159,-1.070938494396991736
0.368000000000000160,-1.050134317230145609
0.369000000000000161,-1.028107717187750847
0.370000000000000162,-1.004862260242805450
0.371000000000000163,-0.980403535848954122
0.372000000000000164,-0.954739140485829862
0.373000000000000165,-0.927878654025931837
0.374000000000000166,-0.899833609433055570
0.375000000000000167,-0.870617456293651948
0.376000000000000167,-0.840245518672384506
0.377000000000000168,-0.808734947771665325
0.378000000000000169,-0.776104669862428653
0.379000000000000170,-0.742375329939962803
0.380000000000000171,-0.707569231544130317
0.381000000000000172,-0.671710273168466987
0.382000000000000173,-0.634823881666888412
0.383000000000000174,-0.596936943050864310
0.384000000000000175,-0.558077731053400194
0.385000000000000175,-0.518275833819646148
0.386000000000000176,-0.477562079067146983
0.387000000000000177,-0.435968458041886830
0.388000000000000178,-0.393528048579554646
0.389000000000000179,-0.350274937564541644
0.390000000000000180,-0.306244143062778751
0.391000000000000181,-0.261471536387881731
0.392000000000000182,-0.215993764344159400
0.393000000000000183,-0.169848171873895393
0.394000000000000183,-0.123072725320995030
0.395000000000000184,-0.075705936507796737
0.396000000000000185,-0.027786787807023438
0.397000000000000186,0.020645341623373524
0.398000000000000187,0.069550748288808389
0.399000000000000188,0.118889475349821666
0.400000000000000189,0.168621382029668088
0.401000000000000190,0.218706211323110022
0.402000000000000191,0.269103655903486561
0.403000000000000191,0.319773422137023589
0.404000000000000192,0.370675292124069133
0.405000000000000193,0.421769183697642991
0.406000000000000194,0.473015208319639835
0.407000000000000195,0.524373726824521103
0.408000000000000196,0.575805402969478797
0.409000000000000197,0.627271254758496211
0.410000000000000198,0.678732703515805391
0.411000000000000199,0.730151620691952274
0.412000000000000199,0.781490372392711685
0.413000000000000200,0.832711861627824512
0.414000000000000201,0.883779568282802130
0.415000000000000202,0.934657586822931430
0.416000000000000203,0.985310661743849847
0.417000000000000204,1.035704220788385310
0.418000000000000205,1.085804405953684437
0.419000000000000206,1.135578102317103433
0.420000000000000207,1.184992964713280417
0.421000000000000207,1.234017442298141143
0.422000000000000208,1.282620801039161318
0.423000000000000209,1.330773144173802880
0.424000000000000210,1.378445430680887096
0.425000000000000211,1.425609491811919316
0.426000000000000212,1.472238045731387279
0.427000000000000213,1.518304710316977335
0.428000000000000214,1.563784014172034498
0.429000000000000214,1.608651405904089504
0.430000000000000215,1.652883261724239272
0.431000000000000216,1.696456891423047564
0.432000000000000217,1.739350542779469766
0.433000000000000218,1.781543404459607682
0.434000000000000219,1.823015607462583842
0.435000000000000220,1.863748225170908768
0.436000000000000221,1.903723272062771255
0.437000000000000222,1.942923701143567383
0.438000000000000222,1.981333400153656665
0.439000000000000223,2.018937186609054191
0.440000000000000224,2.055720801731215630
0.441000000000000225,2.091670903321537711
0.442000000000000226,2.126775057635390542
0.443000000000000227,2.161021730309915512
0.444000000000000228,2.194400276398813077
0.445000000000000229,2.226900929566488330
0.446000000000000230,2.258514790492944790
0.447000000000000230,2.289233814539774592
0.448000000000000231,2.319050798726469687
0.449000000000000232,2.347959368065193786
0.450000000000000233,2.375953961300939721
0.451000000000000234,2.403029816102812521
0.452000000000000235,2.429182953750930185
0.453000000000000236,2.454410163362207520
0.454000000000000237,2.478708985696941536
0.455000000000000238,2.502077696586927580
0.456000000000000238,2.524515290024413883
0.457000000000000239,2.546021460950029791
0.458000000000000240,2.566596587776355243
0.459000000000000241,2.586241714682661730
0.460000000000000242,2.604958533714857971
0.461000000000000243,2.622749366723561071
0.462000000000000244,2.639617147171734679
0.463000000000000245,2.655565401842235218
0.464000000000000246,2.670598232474164835
0.465000000000000246,2.684720297355783547
0.466000000000000247,2.697936792900476277
0.467000000000000248,2.710253435231017693
0.468000000000000249,2.721676441796180512
0.469000000000000250,2.732212513042598268
0.470000000000000251,2.741868814163569645
0.471000000000000252,2.750652956945424332
0.472000000000000253,2.758572981730892160
0.473000000000000254,2.765637339517875493
0.474000000000000254,2.771854874210987862
0.475000000000000255,2.777234805042092969
0.476000000000000256,2.781786709175204209
0.477000000000000257,2.785520504510003548
0.478000000000000258,2.788446432697369026
0.479000000000000259,2.790575042379341841
0.480000000000000260,2.791917172665074887
0.481000000000000261,2.792483936853446203
0.482000000000000262,2.792286706412132169
0.483000000000000262,2.791337095222234499
0.484000000000000263,2.789646944096616288
0.485000000000000264,2.787228305579512178
0.486000000000000265,2.784093429034089517
0.487000000000000266,2.780254746024060530
0.488000000000000267,2.775724855994722962
0.489000000000000268,2.770516512258109465
0.490000000000000269,2.764642608286421499
0.491000000000000270,2.758116164317192087
0.492000000000000270,2.750950314273158614
0.493000000000000271,2.743158292999209991
0.494000000000000272,2.734753423818315543
0.495000000000000273,2.725749106407747036
0.496000000000000274,2.716158804996548159
0.497000000000000275,2.705996036884684930
0.498000000000000276,2.695274361283845899
0.499000000000000277,2.684007368479586653
0.500000000000000222,2.672208669313946405
0.501000000000000334,2.659891884987472199
0.502000000000000224,2.647070637179115060
0.503000000000000336,2.633758538482191103
0.504000000000000226,2.619969183154307490
0.505000000000000338,2.605716138178808983
0.506000000000000227,2.591012934635095633
0.507000000000000339,2.575873059374846008
0.508000000000000229,2.560309947001024433
0.509000000000000341,2.544336972146199916
0.510000000000000231,2.527967442046680446
0.511000000000000343,2.511214589408569786
0.512000000000000233,2.494091565561904922
0.513000000000000345,2.476611433898622039
0.514000000000000234,2.458787163590197888
0.515000000000000346,2.440631623580463039
0.516000000000000236,2.422157576849165661
0.517000000000000348,2.403377674941508779
0.518000000000000238,2.384304452759102411
0.519000000000000350,2.364950323607305727
0.520000000000000240,2.345327574494258549
0.521000000000000352,2.325448361676445419
0.522000000000000242,2.305324706445952110
0.523000000000000353,2.284968491154141024
0.524000000000000243,2.264391455466830738
0.525000000000000355,2.243605192845659069
0.526000000000000245,2.222621147250612772
0.527000000000000357,2.201450610058388158
0.528000000000000247,2.180104717191537311
0.529000000000000359,2.158594446453084625
0.530000000000000249,2.136930615061503058
0.531000000000000361,2.115123877380807649
0.532000000000000250,2.093184722840676582
0.533000000000000362,2.071123474041350221
0.534000000000000252,2.048950285038356967
0.535000000000000364,2.026675139801746628
0.536000000000000254,2.004307850845065797
0.537000000000000366,1.981858058018793445
0.538000000000000256,1.959335227463508744
0.539000000000000368,1.936748650717678544
0.540000000000000258,1.914107443975383349
0.541000000000000369,1.891420547488980031
0.542000000000000259,1.868696725112169332
0.543000000000000371,1.845944563978552777
0.544000000000000261,1.823172474311232749
0.545000000000000373,1.800388689358763727
0.546000000000000263,1.777601265453086388
0.547000000000000375,1.754818082184825823
0.548000000000000265,1.732046842691854938
0.549000000000000377,1.709295074056558006
0.550000000000000266,1.686570127807846431
0.551000000000000378,1.663879180523560208
0.552000000000000268,1.641229234529379966
0.553000000000000380,1.618627118690119771
0.554000000000000270,1.596079489289619291
0.555000000000000382,1.573592830995278025
0.556000000000000272,1.551173457903612496
0.557000000000000384,1.528827514663042120
0.558000000000000274,1.506560977670413415
0.559000000000000385,1.484379656337660558
0.560000000000000275,1.462289194425252958
0.561000000000000387,1.440295071438977059
0.562000000000000277,1.418402604086898444
0.563000000000000389,1.396616947793161145
0.564000000000000279,1.374943098265656305
0.565000000000000391,1.353385893114368965
0.566000000000000281,1.331950013517597231
0.567000000000000393,1.310639985932991136
0.568000000000000282,1.289460183850766883
0.569000000000000394,1.268414829586195447
0.570000000000000284,1.247507996108897510
0.571000000000000396,1.226743608906145200
0.572000000000000286,1.206125447877864687
0.573000000000000398,1.185657149260740173
0.574000000000000288,1.165342207579187939
0.575000000000000400,1.145183977620761961
0.576000000000000290,1.125185676433938742
0.577000000000000401,1.105350385345940767
0.578000000000000291,1.085681051998676372
0.579000000000000403,1.066180492400654822
0.580000000000000293,1.046851392993020768
0.581000000000000405,1.027696312727693684
0.582000000000000295,1.008717685155966048
0.583000000000000407,0.989917820525588410
0.584000000000000297,0.971298907884847851
0.585000000000000409,0.952863017191803108
0.586000000000000298,0.934612101427293895
0.587000000000000410,0.916547998709994483
0.588000000000000300,0.898672434412261412
0.589000000000000412,0.880987023275152881
0.590000000000000302,0.863493271521465600
0.591000000000000414,0.846192578965306863
0.592000000000000304,0.829086241117112599
0.593000000000000416,0.812175451282787231
0.594000000000000306,0.795461302655912084
0.595000000000000417,0.778944790401840725
0.596000000000000307,0.762626813732737552
0.597000000000000419,0.746508177972433518
0.598000000000000309,0.730589596610233927
0.599000000000000421,0.714871693342736703
0.600000000000000311,0.699355004102784727
0.601000000000000423,0.684039979074703930
0.602000000000000313,0.668926984695128013
0.603000000000000425,0.654016305638523421
0.604000000000000314,0.639308146786867204
0.605000000000000426,0.624802635182652222
0.606000000000000316,0.610499821964735068
0.607000000000000428,0.596399684286303855
0.608000000000000318,0.582502127214501009
0.609000000000000430,0.568806985611095439
0.610000000000000320,0.555314025993800420
0.611000000000000432,0.542022948377657521
0.612000000000000322,0.528933388096189061
0.613000000000000433,0.516044917601796493
0.614000000000000323,0.503357048245117733
0.615000000000000435,0.490869232032939196
0.616000000000000325,0.478580863364420517
0.617000000000000437,0.466491280745237713
0.618000000000000327,0.454599768479489519
0.619000000000000439,0.442905558339045213
0.620000000000000329,0.431407831210163573
0.621000000000000441,0.420105718717168508
0.622000000000000330,0.408998304823030623
0.623000000000000442,0.398084627406662617
0.624000000000000332,0.387363679816886075
0.625000000000000444,0.376834412402839269
0.626000000000000334,0.366495734020867325
0.627000000000000446,0.356346513517712626
0.628000000000000336,0.346385581190036818
0.629000000000000448,0.336611730220171768
0.630000000000000338,0.327023718088158888
0.631000000000000449,0.317620267959965841
0.632000000000000339,0.308400070052016251
0.633000000000000451,0.299361782971951929
0.634000000000000341,0.290504035035755170
0.635000000000000453,0.281825425561190057
0.636000000000000343,0.273324526137754986
0.637000000000000455,0.264999881873078824
0.638000000000000345,0.256850012616000267
0.639000000000000457,0.248873414156296657
0.640000000000000346,0.241068559401293403
0.641000000000000458,0.233433899529372990
0.642000000000000348,0.225967865120609707
0.643000000000000460,0.218668867264586675
0.644000000000000350,0.211535298645625536
0.645000000000000462,0.204565534605510274
0.646000000000000352,0.197757934183951822
0.647000000000000464,0.191110841136877513
0.648000000000000353,0.184622584932827183
0.649000000000000465,0.178291481727539530
0.650000000000000355,0.172115835317020238
0.651000000000000467,0.166093938069213187
0.652000000000000357,0.160224071834524778
0.653000000000000469,0.154504508835402843
0.654000000000000359,0.148933512535173257
0.655000000000000471,0.143509338486362631
0.656000000000000361,0.138230235158743803
0.657000000000000473,0.133094444747294649
0.658000000000000362,0.128100203960346493
0.659000000000000474,0.123245744788118963
0.660000000000000364,0.118529295251909444
0.661000000000000476,0.113949080134138264
0.662000000000000366,0.109503321689540467
0.663000000000000478,0.105190240337704521
0.664000000000000368,0.101008055337238556
0.665000000000000480,0.096954985441776526
0.666000000000000369,0.093029249538117836
0.667000000000000481,0.089229067266703030
0.668000000000000371,0.085552659624728342
0.669000000000000483,0.081998249552099139
0.670000000000000373,0.078564062500521253
