# Hydroxyapatite-001_LEUSCA-JS
# h[nm],U(h)[kJ/mol]
0.200000000000000011,116.857635286697671972
0.201000000000000012,114.615058648578127531
0.202000000000000013,112.740708637775156831
0.203000000000000014,111.053409666011560830
0.204000000000000015,109.441066838214098311
0.205000000000000016,107.839548574589500163
0.206000000000000016,106.216984903376740590
0.207000000000000017,104.562287940271090747
0.208000000000000018,102.876927822642670662
0.209000000000000019,101.169188144757669079
0.210000000000000020,99.450283853517007060
0.211000000000000021,97.731855699758554579
0.212000000000000022,96.024462583139779781
0.213000000000000023,94.336780058325970799
0.214000000000000024,92.675283108118165387
0.215000000000000024,91.044246882214324046
0.216000000000000025,89.445942927265178923
0.217000000000000026,87.880942625961878889
0.218000000000000027,86.348465932395896516
0.219000000000000028,84.846733563954188639
0.220000000000000029,83.373295859989269729
0.221000000000000030,81.925322597998047058
0.222000000000000031,80.499846033534680600
0.223000000000000032,79.093955004109758988
0.224000000000000032,77.704941677740890782
0.225000000000000033,76.330404888043659639
0.226000000000000034,74.968315340159392690
0.227000000000000035,73.617048578423521121
0.228000000000000036,72.275391697341987651
0.229000000000000037,70.942529520884235694
0.230000000000000038,69.618015498945936770
0.231000000000000039,68.301731968992939414
0.232000000000000040,66.993843774440222205
0.233000000000000040,65.694748568150458823
0.234000000000000041,64.405026492864280385
0.235000000000000042,63.125391341835758396
0.236000000000000043,61.856644774958738253
0.237000000000000044,60.599634704198976465
0.238000000000000045,59.355218568440534455
0.239000000000000046,58.124231889906674553
0.240000000000000047,56.907462237941160765
0.241000000000000048,55.705628515651582688
0.242000000000000048,54.519365324522013339
0.243000000000000049,53.349212045173999286
0.244000000000000050,52.195606192649769639
0.245000000000000051,51.058880555864185169
0.246000000000000052,49.939263607641109388
0.247000000000000053,48.836882668944404884
0.248000000000000054,47.751769324044857967
0.249000000000000055,46.683866608509276830
0.250000000000000056,45.633037525692500935
0.251000000000000056,44.599074487016615365
0.252000000000000057,43.581709314381029685
0.253000000000000058,42.580623487641915403
0.254000000000000059,41.595458364701315190
0.255000000000000060,40.625825145166366781
0.256000000000000061,39.671314389882880391
0.257000000000000062,38.731504947269833394
0.258000000000000063,37.805972172848797186
0.259000000000000064,36.894295360413153162
0.260000000000000064,35.996064331797548164
0.261000000000000065,35.110885157180995009
0.262000000000000066,34.238384999366303418
0.263000000000000067,33.378216093675419529
0.264000000000000068,32.530058890174913699
0.265000000000000069,31.693624397130037096
0.266000000000000070,30.868655774128729519
0.267000000000000071,30.054929230475288193
0.268000000000000071,29.252254289492555017
0.269000000000000072,28.460473482546113644
0.270000000000000073,27.679461538164446210
0.271000000000000074,26.909124131810234104
0.272000000000000075,26.149396260881292875
0.273000000000000076,25.400240307588699551
0.274000000000000077,24.661643849660077166
0.275000000000000078,23.933617275516837708
0.276000000000000079,23.216191256824288303
0.277000000000000079,22.509414127244962600
0.278000000000000080,21.813349211956342799
0.279000000000000081,21.128072148119770191
0.280000000000000082,20.453668232096966051
0.281000000000000083,19.790229824871921949
0.282000000000000084,19.137853842909848368
0.283000000000000085,18.496639357617873145
0.284000000000000086,17.866685322700330829
0.285000000000000087,17.248088445056094287
0.286000000000000087,16.640941211462980220
0.287000000000000088,16.045330080151064323
0.288000000000000089,15.461333843489290629
0.289000000000000090,14.889022165399627085
0.290000000000000091,14.328454294771086452
0.291000000000000092,13.779677954062742984
0.292000000000000093,13.242728400456741156
0.293000000000000094,12.717627655335610015
0.294000000000000095,12.204383896502582374
0.295000000000000095,11.702991006423795639
0.296000000000000096,11.213428268835965440
0.297000000000000097,10.735660205313662274
0.298000000000000098,10.269636542814765789
0.299000000000000099,9.815292302803758417
0.300000000000000100,9.372548002276852586
0.301000000000000101,8.941309956863847219
0.302000000000000102,8.521470676148251044
0.303000000000000103,8.112909341411333131
0.304000000000000103,7.715492356160180698
0.305000000000000104,7.329073960027201906
0.306000000000000105,6.953496896920981385
0.307000000000000106,6.588593128654165021
0.308000000000000107,6.234184585662950084
0.309000000000000108,5.890083946857467723
0.310000000000000109,5.556095441092117504
0.311000000000000110,5.232015663216374790
0.312000000000000111,4.917634398147738395
0.313000000000000111,4.612735446899540293
0.314000000000000112,4.317097448986628727
0.315000000000000113,4.030494696120586084
0.316000000000000114,3.752697932587332197
0.317000000000000115,3.483475138171001184
0.318000000000000116,3.222592289945688471
0.319000000000000117,2.969814099698712795
0.320000000000000118,2.724904724173694781
0.321000000000000119,2.487628445726542736
0.322000000000000119,2.257750321372716140
0.323000000000000120,2.035036798567495531
0.324000000000000121,1.819256296402271378
0.325000000000000122,1.610179751219471544
0.326000000000000123,1.407581125945584599
0.327000000000000124,1.211237882716357017
0.328000000000000125,1.020931418620644404
0.329000000000000126,0.836447464620765802
0.330000000000000127,0.657576447916650819
0.331000000000000127,0.484113818210874292
0.332000000000000128,0.315860338501192217
0.333000000000000129,0.152622341178013349
0.334000000000000130,-0.005788049662742978
0.335000000000000131,-0.159552728665908472
0.336000000000000132,-0.308847451296833941
0.337000000000000133,-0.453841706345622597
0.338000000000000134,-0.594698617576912225
0.339000000000000135,-0.731574873189575592
0.340000000000000135,-0.864620681707515049
0.341000000000000136,-0.993979752889837420
0.342000000000000137,-1.119789302227292227
0.343000000000000138,-1.242180077579631003
0.344000000000000139,-1.361276406505832259
0.345000000000000140,-1.477196262843741392
0.346000000000000141,-1.590051351108183741
0.347000000000000142,-1.699947207295160467
0.348000000000000143,-1.806983314704584842
0.349000000000000143,-1.911253233423389375
0.350000000000000144,-2.012844742145337484
0.351000000000000145,-2.111839991041519760
0.352000000000000146,-2.208315664437272563
0.353000000000000147,-2.302343152095021495
0.354000000000000148,-2.393988727949213136
0.355000000000000149,-2.483313735187590687
0.356000000000000150,-2.570374776622744495
0.357000000000000151,-2.655223909348586098
0.358000000000000151,-2.737908842727625025
0.359000000000000152,-2.818473138806634193
0.360000000000000153,-2.896956414310206895
0.361000000000000154,-2.973394543412765767
0.362000000000000155,-3.047819860541183257
0.363000000000000156,-3.120261362510185599
0.364000000000000157,-3.190744909342264624
0.365000000000000158,-3.259293423172803017
0.366000000000000159,-3.325927084687703594
0.367000000000000159,-3.390663526587676557
0.368000000000000160,-3.453518023617522914
0.369000000000000161,-3.514503678742156190
0.370000000000000162,-3.573631605092789876
0.371000000000000163,-3.630911103346692759
0.372000000000000164,-3.686349834242365286
0.373000000000000165,-3.739953985968692329
0.374000000000000166,-3.791728436201815100
0.375000000000000167,-3.841676908596319606
0.376000000000000167,-3.889802123569524817
0.377000000000000168,-3.936105943247110162
0.378000000000000169,-3.980589510466580716
0.379000000000000170,-4.023253381761741743
0.380000000000000171,-4.064097654276092264
0.381000000000000172,-4.103122086576242999
0.382000000000000173,-4.140326213358306084
0.383000000000000174,-4.175709454060221759
0.384000000000000175,-4.209271215411688694
0.385000000000000175,-4.241010987970414092
0.386000000000000176,-4.270928436709558795
0.387000000000000177,-4.299023485735130379
0.388000000000000178,-4.325296397225904421
0.389000000000000179,-4.349747844699698440
0.390000000000000180,-4.372378980721043362
0.391000000000000181,-4.393191499174633918
0.392000000000000182,-4.412187692237425907
0.393000000000000183,-4.429370502189813763
0.394000000000000183,-4.444743568212722096
0.395000000000000184,-4.458311268323075005
0.396000000000000185,-4.470078756604694448
0.397000000000000186,-4.480051995895614425
0.398000000000000187,-4.488237786095909065
0.399000000000000188,-4.494643788262438378
0.400000000000000189,-4.499278544658546153
0.401000000000000190,-4.502151494928001263
0.402000000000000191,-4.503272988562754264
0.403000000000000191,-4.502654293834001287
0.404000000000000192,-4.500307603355672370
0.405000000000000193,-4.496246036448100725
0.406000000000000194,-4.490483638468456107
0.407000000000000195,-4.483035377272537758
0.408000000000000196,-4.473917136970184671
0.409000000000000197,-4.463145709134295203
0.410000000000000198,-4.450738781620453111
0.411000000000000199,-4.436714925150988087
0.412000000000000199,-4.421093577814277253
0.413000000000000200,-4.403895027626253622
0.414000000000000201,-4.385140393297666250
0.415000000000000202,-4.364851603346544984
0.416000000000000203,-4.343051373691594108
0.417000000000000204,-4.319763183857939559
0.418000000000000205,-4.295011251922605133
0.419000000000000206,-4.268820508322862750
0.420000000000000207,-4.241216568646120955
0.421000000000000207,-4.212225705516038587
0.422000000000000208,-4.181874819684691325
0.423000000000000209,-4.150191410436835149
0.424000000000000210,-4.117203545407472021
0.425000000000000211,-4.082939829909775220
0.426000000000000212,-4.047429375866308909
0.427000000000000213,-4.010701770431714053
0.428000000000000214,-3.972787044391441924
0.429000000000000214,-3.933715640416339365
0.430000000000000215,-3.893518381249235549
0.431000000000000216,-3.852226437895454048
0.432000000000000217,-3.809871297885172314
0.433000000000000218,-3.766484733671775498
0.434000000000000219,-3.722098771226543867
0.435000000000000220,-3.676745658886312551
0.436000000000000221,-3.630457836507039904
0.437000000000000222,-3.583267904972839979
0.438000000000000222,-3.535208596106594658
0.439000000000000223,-3.486312743024883698
0.440000000000000224,-3.436613250976845446
0.441000000000000225,-3.386143068703344916
0.442000000000000226,-3.334935160350128935
0.443000000000000227,-3.283022477965269470
0.444000000000000228,-3.230437934608944239
0.445000000000000229,-3.177214378100489789
0.446000000000000230,-3.123384565425282311
0.447000000000000230,-3.068981137821579441
0.448000000000000231,-3.014036596564932058
0.449000000000000232,-2.958583279465489380
0.450000000000000233,-2.902653338091671031
0.451000000000000234,-2.846278715731065834
0.452000000000000235,-2.789491126098035956
0.453000000000000236,-2.732322032795056366
0.454000000000000237,-2.674802629533592047
0.455000000000000238,-2.616963821118095446
0.456000000000000238,-2.558836205195521352
0.457000000000000239,-2.500450054770960939
0.458000000000000240,-2.441835301488795906
0.459000000000000241,-2.383021519677092304
0.460000000000000242,-2.324037911152180946
0.461000000000000243,-2.264913290778598487
0.462000000000000244,-2.205676072779072960
0.463000000000000245,-2.146354257787467024
0.464000000000000246,-2.086975420637468215
0.465000000000000246,-2.027566698878167983
0.466000000000000247,-1.968154782007265569
0.467000000000000248,-1.908765901411706212
0.468000000000000249,-1.849425821004985426
0.469000000000000250,-1.790159828549469978
0.470000000000000251,-1.730992727651774477
0.471000000000000252,-1.671948830418402476
0.472000000000000253,-1.613051950758746855
0.473000000000000254,-1.554325398321644069
0.474000000000000254,-1.495791973051754153
0.475000000000000255,-1.437473960351332014
0.476000000000000256,-1.379393126832887839
0.477000000000000257,-1.321570716647907373
0.478000000000000258,-1.264027448376492835
0.479000000000000259,-1.206783512462806796
0.480000000000000260,-1.149858569180877366
0.481000000000000261,-1.093271747115247328
0.482000000000000262,-1.037041642141010023
0.483000000000000262,-0.981186316887558307
0.484000000000000263,-0.925723300670380667
0.485000000000000264,-0.870669589875406102
0.486000000000000265,-0.816041648780204354
0.487000000000000266,-0.761855410796560495
0.488000000000000267,-0.708126280118979823
0.489000000000000268,-0.654869133763797295
0.490000000000000269,-0.602098323983593309
0.491000000000000270,-0.549827681041953786
0.492000000000000270,-0.498070516333487923
0.493000000000000271,-0.446839625834493159
0.494000000000000272,-0.396147293869609674
0.495000000000000273,-0.346005297180042859
0.496000000000000274,-0.296424909279339233
0.497000000000000275,-0.247416905082582961
0.498000000000000276,-0.198991565795435504
0.499000000000000277,-0.151158684049497699
0.500000000000000222,-0.103927569270706094
0.501000000000000334,-0.057307053267889818
0.502000000000000224,-0.011305496028751073
0.503000000000000336,0.034069208289283573
0.504000000000000226,0.078809625185289417
0.505000000000000338,0.122908773470344207
0.506000000000000227,0.166360118763556608
0.507000000000000339,0.209157566840335735
0.508000000000000229,0.251295456843606657
0.509000000000000341,0.292768554369049194
0.510000000000000231,0.333572044434473913
0.511000000000000343,0.373701524343921510
0.512000000000000233,0.413152996456032873
0.513000000000000345,0.451922860866575404
0.514000000000000234,0.490007908014145954
0.515000000000000346,0.527405311218479000
0.516000000000000236,0.564112619159705675
0.517000000000000348,0.600127748307348829
0.518000000000000238,0.635448975307013053
0.519000000000000350,0.670074929332893032
0.520000000000000240,0.704004584413546852
0.521000000000000352,0.737237251738410704
0.522000000000000242,0.769772571952115792
0.523000000000000353,0.801610507443462850
0.524000000000000243,0.832751334635583818
0.525000000000000355,0.863195636283649370
0.526000000000000245,0.892944293786114729
0.527000000000000357,0.921998479515438008
0.528000000000000247,0.950359649173655008
0.529000000000000359,0.978029534178341819
0.530000000000000249,1.005010134083862861
0.531000000000000361,1.031303709042918904
0.532000000000000250,1.056912772312893267
0.533000000000000362,1.081840082811538872
0.534000000000000252,1.106088637726082791
0.535000000000000364,1.129661665179815699
0.536000000000000254,1.152562616959848185
0.537000000000000366,1.174795161309757363
0.538000000000000256,1.196363175790299493
0.539000000000000368,1.217270740211572333
0.540000000000000258,1.237522129639439417
0.541000000000000369,1.257121807479216979
0.542000000000000259,1.276074418639067565
0.543000000000000371,1.294384782775734655
0.544000000000000261,1.312057887624806574
0.545000000000000373,1.329098882417682370
0.546000000000000263,1.345513071387211212
0.547000000000000375,1.361305907363873136
0.548000000000000265,1.376482985464046571
0.549000000000000377,1.391050036872088835
0.550000000000000266,1.405012922717433499
0.551000000000000378,1.418377628048091976
0.552000000000000268,1.431150255901639579
0.553000000000000380,1.443337021474684123
0.554000000000000270,1.454944246391703944
0.555000000000000382,1.465978353074065765
0.556000000000000272,1.476445859209769562
0.557000000000000384,1.486353372324624278
0.558000000000000274,1.495707584455103767
0.559000000000000385,1.504515266923421191
0.560000000000000275,1.512783265214894257
0.561000000000000387,1.520518493957865758
0.562000000000000277,1.527727932006212930
0.563000000000000389,1.534418617624390135
0.564000000000000279,1.540597643774945347
0.565000000000000391,1.546272153508303493
0.566000000000000281,1.551449335454589962
0.567000000000000393,1.556136419417126993
0.568000000000000282,1.560340672067231482
0.569000000000000394,1.564069392739866116
0.570000000000000284,1.567329909329620019
0.571000000000000396,1.570129574286406093
0.572000000000000286,1.572475760710269510
0.573000000000000398,1.574375858544655671
0.574000000000000288,1.575837270867341156
0.575000000000000400,1.576867410278236958
0.576000000000000290,1.577473695383337704
0.577000000000000401,1.577663547373810538
0.578000000000000291,1.577444386699424550
0.579000000000000403,1.576823629835314655
0.580000000000000293,1.575808686141135340
0.581000000000000405,1.574406954811543802
0.582000000000000295,1.572625821917039257
0.583000000000000407,1.570472657534013994
0.584000000000000297,1.567954812963004319
0.585000000000000409,1.565079618033903497
0.586000000000000298,1.561854378497155915
0.587000000000000410,1.558286373499576882
0.588000000000000300,1.554382853143808862
0.589000000000000412,1.550151036130073878
0.590000000000000302,1.545598107479110750
0.591000000000000414,1.540731216334947806
0.592000000000000304,1.535557473846452137
0.593000000000000416,1.530083951126242292
0.594000000000000306,1.524317677285782491
0.595000000000000417,1.518265637545396007
0.596000000000000307,1.511934771417948742
0.597000000000000419,1.505331970964838728
0.598000000000000309,1.498464079123100090
0.599000000000000421,1.491337888102349574
0.600000000000000311,1.483960137850199867
0.601000000000000423,1.476337514584950217
0.602000000000000313,1.468476649394221401
0.603000000000000425,1.460384116898300277
0.604000000000000314,1.452066433976839432
0.605000000000000426,1.443530058557726203
0.606000000000000316,1.434781388466801477
0.607000000000000428,1.425826760337158827
0.608000000000000318,1.416672448576799415
0.609000000000000430,1.407324664393349467
0.610000000000000320,1.397789554874644846
0.611000000000000432,1.388073202123878191
0.612000000000000322,1.378181622448173993
0.613000000000000433,1.368120765599260213
0.614000000000000323,1.357896514065134896
0.615000000000000435,1.347514682411427911
0.616000000000000325,1.336981016671380473
0.617000000000000437,1.326301193783151033
0.618000000000000327,1.315480821073355067
0.619000000000000439,1.304525435785671927
0.620000000000000329,1.293440504653370127
0.621000000000000441,1.282231423514584412
0.622000000000000330,1.270903516969334124
0.623000000000000442,1.259462038077026058
0.624000000000000332,1.247912168093531893
0.625000000000000444,1.236259016246573417
0.626000000000000334,1.224507619548541371
0.627000000000000446,1.212662942645533981
0.628000000000000336,1.200729877701720572
0.629000000000000448,1.188713244317896045
0.630000000000000338,1.176617789483337395
0.631000000000000449,1.164448187559830261
0.632000000000000339,1.152209040297071052
0.633000000000000451,1.139904876878298223
0.634000000000000341,1.127540153995384653
0.635000000000000453,1.115119255952270461
0.636000000000000343,1.102646494796070353
0.637000000000000455,1.090126110474669119
0.638000000000000345,1.077562271020190421
0.639000000000000457,1.064959072757268865
0.640000000000000346,1.052320540535419013
0.641000000000000458,1.039650627984538556
0.642000000000000348,1.026953217792854200
0.643000000000000460,1.014232122006365033
0.644000000000000350,1.001491082349138750
0.645000000000000462,0.988733770563526404
0.646000000000000352,0.975963788769706353
0.647000000000000464,0.963184669843637153
0.648000000000000353,0.950399877812850180
0.649000000000000465,0.937612808269208009
0.650000000000000355,0.924826788798095101
0.651000000000000467,0.912045079423191019
0.652000000000000357,0.899270873066276399
0.653000000000000469,0.886507296021333602
0.654000000000000359,0.873757408442352501
0.655000000000000471,0.861024204844178520
0.656000000000000361,0.848310614615804481
0.657000000000000473,0.835619502545478121
0.658000000000000362,0.822953669357080253
0.659000000000000474,0.810315852257156854
0.660000000000000364,0.797708725492079163
0.661000000000000476,0.785134900914727263
0.662000000000000366,0.772596928560264851
0.663000000000000478,0.760097297230339919
0.664000000000000368,0.747638435085365205
0.665000000000000480,0.735222710244214261
0.666000000000000369,0.722852431391009187
0.667000000000000481,0.710529848388385621
