# Hydroxyapatite-001_PRO
# h[nm],U(h)[kJ/mol]
0.200000000000000011,74.258694997641242708
0.201000000000000012,72.555938307150725564
0.202000000000000013,70.885175892262822117
0.203000000000000014,69.221893559240129434
0.204000000000000015,67.557053275318736496
0.205000000000000016,65.890539560199641755
0.206000000000000016,64.226807604091149528
0.207000000000000017,62.572099288873310741
0.208000000000000018,60.932756835587369437
0.209000000000000019,59.314288380213568530
0.210000000000000020,57.720934146105982165
0.211000000000000021,56.155552907144269170
0.212000000000000022,54.619701501106774799
0.213000000000000023,53.113819459907858800
0.214000000000000024,51.637459644331400455
0.215000000000000024,50.189526645707701391
0.216000000000000025,48.768499610234883335
0.217000000000000026,47.372626566875410958
0.218000000000000027,46.000084457717996145
0.219000000000000028,44.649103766068904520
0.220000000000000029,43.318059584152948105
0.221000000000000030,42.005532665337995013
0.222000000000000031,40.710344843614052479
0.223000000000000032,39.431573455834737274
0.224000000000000032,38.168549275115850605
0.225000000000000033,36.920842104916587800
0.226000000000000034,35.688237697813697480
0.227000000000000035,34.470709123721441358
0.228000000000000036,33.268385168312896383
0.229000000000000037,32.081517825154875823
0.230000000000000038,30.910450473402654836
0.231000000000000039,29.755587916641626833
0.232000000000000040,28.617369101202037029
0.233000000000000040,27.496243033409861312
0.234000000000000041,26.392648171487007147
0.235000000000000042,25.306995374302520219
0.236000000000000043,24.239654340212435812
0.237000000000000044,23.190943358852411649
0.238000000000000045,22.161122121092695636
0.239000000000000046,21.150387281899377001
0.240000000000000047,20.158870442492929698
0.241000000000000048,19.186638207437390236
0.242000000000000048,18.233693975164818823
0.243000000000000049,17.299981133539382938
0.244000000000000050,16.385387352525928151
0.245000000000000051,15.489749691455177327
0.246000000000000052,14.612860266837515155
0.247000000000000053,13.754472256603003544
0.248000000000000054,12.914306046822412455
0.249000000000000055,12.092055356460591042
0.250000000000000056,11.287393203841677547
0.251000000000000056,10.499977604783406804
0.252000000000000057,9.729456916465370142
0.253000000000000058,8.975474762854371846
0.254000000000000059,8.237674496838009119
0.255000000000000060,7.515703171126240534
0.256000000000000061,6.809215004535339233
0.257000000000000062,6.117874342586722136
0.258000000000000063,5.441358121579003004
0.259000000000000064,4.779357853594004446
0.260000000000000064,4.131581156453488113
0.261000000000000065,3.497752857637804080
0.262000000000000066,2.877615704788190065
0.263000000000000067,2.270930717822357447
0.264000000000000068,1.677477219061308089
0.265000000000000069,1.097052578252638799
0.266000000000000070,0.529471709128726764
0.267000000000000071,-0.025433646714349223
0.268000000000000071,-0.567815814166038657
0.269000000000000072,-1.097812224441156115
0.270000000000000073,-1.615546569669433552
0.271000000000000074,-2.121130043691795919
0.272000000000000075,-2.614662642849730823
0.273000000000000076,-3.096234502952601719
0.274000000000000077,-3.565927251026337785
0.275000000000000078,-4.023815352842255777
0.276000000000000079,-4.469967439562317679
0.277000000000000079,-4.904447599091075638
0.278000000000000080,-5.327316619870475556
0.279000000000000081,-5.738633176879536890
0.280000000000000082,-6.138454951491818079
0.281000000000000083,-6.526839678595067085
0.282000000000000084,-6.903846115983377274
0.283000000000000085,-7.269534932493144197
0.284000000000000086,-7.623969512671204818
0.285000000000000087,-7.967216676938302378
0.286000000000000087,-8.299347317251140055
0.287000000000000088,-8.620436949174941077
0.288000000000000089,-8.930566182063902403
0.289000000000000090,-9.229821109716985106
0.290000000000000091,-9.518293624436958922
0.291000000000000092,-9.796081657882956151
0.292000000000000093,-10.063289352475639049
0.293000000000000094,-10.320027167400130708
0.294000000000000095,-10.566411923461657807
0.295000000000000095,-10.802566791191264173
0.296000000000000096,-11.028621226679927503
0.297000000000000097,-11.244710859647625512
0.298000000000000098,-11.450977338234627823
0.299000000000000099,-11.647568134943099949
0.300000000000000100,-11.834636318062292659
0.301000000000000101,-12.012340292787479612
0.302000000000000102,-12.180843516093977641
0.303000000000000103,-12.340314189260546129
0.304000000000000103,-12.490924931751745675
0.305000000000000104,-12.632852439973813574
0.306000000000000105,-12.766277134213920519
0.307000000000000106,-12.891382796862334459
0.308000000000000107,-13.008356204803988021
0.309000000000000108,-13.117386758651614187
0.310000000000000109,-13.218666111280072073
0.311000000000000110,-13.312387797910863796
0.312000000000000111,-13.398746869791150260
0.313000000000000111,-13.477939533310813403
0.314000000000000112,-13.550162796208365279
0.315000000000000113,-13.615614122330333302
0.316000000000000114,-13.674491096231443876
0.317000000000000115,-13.726991098733481778
0.318000000000000116,-13.773310994400921103
0.319000000000000117,-13.813646831740541643
0.320000000000000118,-13.848193556790482361
0.321000000000000119,-13.877144740632626707
0.322000000000000119,-13.900692321238778959
0.323000000000000120,-13.919026359947869409
0.324000000000000121,-13.932334812766873355
0.325000000000000122,-13.940803316592052852
0.326000000000000123,-13.944614990360145512
0.327000000000000124,-13.943950251059712642
0.328000000000000125,-13.938986644461991204
0.329000000000000126,-13.929898690366560032
0.330000000000000127,-13.916857742100608775
0.331000000000000127,-13.900031859960938263
0.332000000000000128,-13.879585698244103042
0.333000000000000129,-13.855680405472886818
0.334000000000000130,-13.828473537395073123
0.335000000000000131,-13.798118982304377056
0.336000000000000132,-13.764766898210918811
0.337000000000000133,-13.728563661371874005
0.338000000000000134,-13.689651825679387542
0.339000000000000135,-13.648170092393623776
0.340000000000000135,-13.604253289702793239
0.341000000000000136,-13.558032361589273052
0.342000000000000137,-13.509634365480923890
0.343000000000000138,-13.459182478169385178
0.344000000000000139,-13.406796009482011556
0.345000000000000140,-13.352590423201158742
0.346000000000000141,-13.296677364733167082
0.347000000000000142,-13.239164695039736586
0.348000000000000143,-13.180156530356276434
0.349000000000000143,-13.119753287234413364
0.350000000000000144,-13.058051732459944105
0.351000000000000145,-12.995145037412058286
0.352000000000000146,-12.931122836445135604
0.353000000000000147,-12.866071288890182700
0.354000000000000148,-12.800073144289481064
0.355000000000000149,-12.733207810494253209
0.356000000000000150,-12.665551424272248227
0.357000000000000151,-12.597176924088774541
0.358000000000000151,-12.528154124741462283
0.359000000000000152,-12.458549793545881101
0.360000000000000153,-12.388427727785684240
0.361000000000000154,-12.317848833157126975
0.362000000000000155,-12.246871202954066504
0.363000000000000156,-12.175550197755073967
0.364000000000000157,-12.103938525389740022
0.365000000000000158,-12.032086320976379312
0.366000000000000159,-11.960041226837478945
0.367000000000000159,-11.887848472113649478
0.368000000000000160,-11.815550951910392286
0.369000000000000161,-11.743189305824881075
0.370000000000000162,-11.670801995712823285
0.371000000000000163,-11.598425382567544517
0.372000000000000164,-11.526093802394708376
0.373000000000000165,-11.453839640977738767
0.374000000000000166,-11.381693407438939758
0.375000000000000167,-11.309683806511808157
0.376000000000000167,-11.237837809449407800
0.377000000000000168,-11.166180723502680650
0.378000000000000169,-11.094736259911165632
0.379000000000000170,-11.023526600356746030
0.380000000000000171,-10.952572461838432361
0.381000000000000172,-10.881893159933602178
0.382000000000000173,-10.811506670417511344
0.383000000000000174,-10.741429689219472721
0.384000000000000175,-10.671677690699642227
0.385000000000000175,-10.602264984236011713
0.386000000000000176,-10.533204769116162325
0.387000000000000177,-10.464509187732939921
0.388000000000000178,-10.396189377087800665
0.389000000000000179,-10.328255518609131158
0.390000000000000180,-10.260716886296931349
0.391000000000000181,-10.193581893208232714
0.392000000000000182,-10.126858136300919355
0.393000000000000183,-10.060552439656147428
0.394000000000000183,-9.994670896102217483
0.395000000000000184,-9.929218907264926841
0.396000000000000185,-9.864201222071315556
0.397000000000000186,-9.799621973735645142
0.398000000000000187,-9.735484715257886279
0.399000000000000188,-9.671792453466332873
0.400000000000000189,-9.608547681637155335
0.401000000000000190,-9.545752410724649195
0.402000000000000191,-9.483408199236809111
0.403000000000000191,-9.421516181791371736
0.404000000000000192,-9.360077096388151219
0.405000000000000193,-9.299091310433693636
0.406000000000000194,-9.238558845554752708
0.407000000000000195,-9.178479401236947055
0.408000000000000196,-9.118852377325241676
0.409000000000000197,-9.059676895422635212
0.410000000000000198,-9.000951819223505623
0.411000000000000199,-8.942675773817498452
0.412000000000000199,-8.884847163999879172
0.413000000000000200,-8.827464191623652923
0.414000000000000201,-8.770524872028477859
0.415000000000000202,-8.714027049580659323
0.416000000000000203,-8.657968412358339805
0.417000000000000204,-8.602346506015026151
0.418000000000000205,-8.547158746854238487
0.419000000000000206,-8.492402434147324541
0.420000000000000207,-8.438074761725644635
0.421000000000000207,-8.384172828878023509
0.422000000000000208,-8.330693650583018695
0.423000000000000209,-8.277634167105476948
0.424000000000000210,-8.224991252985550005
0.425000000000000211,-8.172761725447829306
0.426000000000000212,-8.120942352257497276
0.427000000000000213,-8.069529859049366038
0.428000000000000214,-8.018520936155233869
0.429000000000000214,-7.967912244953849310
0.430000000000000215,-7.917700423767229267
0.431000000000000216,-7.867882093326228343
0.432000000000000217,-7.818453861827398654
0.433000000000000218,-7.769412329602438660
0.434000000000000219,-7.720754093420912234
0.435000000000000220,-7.672475750445950204
0.436000000000000221,-7.624573901862009784
0.437000000000000222,-7.577045156193039865
0.438000000000000222,-7.529886132328657666
0.439000000000000223,-7.483093462275313357
0.440000000000000224,-7.436663793648529364
0.441000000000000225,-7.390593791921871158
0.442000000000000226,-7.344880142447566485
0.443000000000000227,-7.299519552262826672
0.444000000000000228,-7.254508751695775359
0.445000000000000229,-7.209844495783745977
0.446000000000000230,-7.165523565516474847
0.447000000000000230,-7.121542768916026667
0.448000000000000231,-7.077898941964733126
0.449000000000000232,-7.034588949391817891
0.450000000000000233,-6.991609685329045476
0.451000000000000234,-6.948958073844940131
0.452000000000000235,-6.906631069366989450
0.453000000000000236,-6.864625657000293479
0.454000000000000237,-6.822938852751282646
0.455000000000000238,-6.781567703664030944
0.456000000000000238,-6.740509287876773392
0.457000000000000239,-6.699760714605547562
0.458000000000000240,-6.659319124061633843
0.459000000000000241,-6.619181687308906881
0.460000000000000242,-6.579345606067148466
0.461000000000000243,-6.539808112466642953
0.462000000000000244,-6.500566468759456207
0.463000000000000245,-6.461617966992001527
0.464000000000000246,-6.422959928643729555
0.465000000000000246,-6.384589704236023344
0.466000000000000247,-6.346504672915340706
0.467000000000000248,-6.308702242014330608
0.468000000000000249,-6.271179846594387541
0.469000000000000250,-6.233934948972871481
0.470000000000000251,-6.196965038237957302
0.471000000000000252,-6.160267629753874985
0.472000000000000253,-6.123840264659212274
0.473000000000000254,-6.087680509360461123
0.474000000000000254,-6.051785955023142094
0.475000000000000255,-6.016154217062412712
0.476000000000000256,-5.980782934634999215
0.477000000000000257,-5.945669770134154319
0.478000000000000258,-5.910812408689111841
0.479000000000000259,-5.876208557670407728
0.480000000000000260,-5.841855946202356265
0.481000000000000261,-5.807752324683707279
0.482000000000000262,-5.773895464317532422
0.483000000000000262,-5.740283156651221574
0.484000000000000263,-5.706913213127291051
0.485000000000000264,-5.673783464645739016
0.486000000000000265,-5.640891761138524529
0.487000000000000266,-5.608235971156604549
0.488000000000000267,-5.575813981469969427
0.489000000000000268,-5.543623696681072133
0.490000000000000269,-5.511663038851765783
0.491000000000000270,-5.479929947144116298
0.492000000000000270,-5.448422377475084843
0.493000000000000271,-5.417138302185269261
0.494000000000000272,-5.386075709721657390
0.495000000000000273,-5.355232604334386082
0.496000000000000274,-5.324607005787513003
0.497000000000000275,-5.294196949083564974
0.498000000000000276,-5.264000484201865504
0.499000000000000277,-5.234015675850364424
0.500000000000000222,-5.204240603230806173
0.501000000000000334,-5.174673359817001383
0.502000000000000224,-5.145312053145969955
0.503000000000000336,-5.116154804621581675
0.504000000000000226,-5.087199749330570064
0.505000000000000338,-5.058445035870392736
0.506000000000000227,-5.029888826188811279
0.507000000000000339,-5.001529295434675504
0.508000000000000229,-4.973364631819707782
0.509000000000000341,-4.945393036490747463
0.510000000000000231,-4.917612723412348785
0.511000000000000343,-4.890021919259023520
0.512000000000000233,-4.862618863317054618
0.513000000000000345,-4.835401807395245832
0.514000000000000234,-4.808369015744485608
0.515000000000000346,-4.781518764985406733
0.516000000000000236,-4.754849344044112414
0.517000000000000348,-4.728359054095270686
0.518000000000000238,-4.702046208512451031
0.519000000000000350,-4.675909132825102787
0.520000000000000240,-4.649946164681966643
0.521000000000000352,-4.624155653820483103
0.522000000000000242,-4.598535962041792935
0.523000000000000353,-4.573085463191057798
0.524000000000000243,-4.547802543142669407
0.525000000000000355,-4.522685599790039923
0.526000000000000245,-4.497733043039649381
0.527000000000000357,-4.472943294808940706
0.528000000000000247,-4.448314789027872251
0.529000000000000359,-4.423845971643651787
0.530000000000000249,-4.399535300628500067
0.531000000000000361,-4.375381245990011436
0.532000000000000250,-4.351382289783947144
0.533000000000000362,-4.327536926129061712
0.534000000000000252,-4.303843661223782036
0.535000000000000364,-4.280301013364431029
0.536000000000000254,-4.256907512964792417
0.537000000000000366,-4.233661702576642760
0.538000000000000256,-4.210562136911250697
0.539000000000000368,-4.187607382861337157
0.540000000000000258,-4.164796019523556048
0.541000000000000369,-4.142126638221037993
0.542000000000000259,-4.119597842526024678
0.543000000000000371,-4.097208248282210086
0.544000000000000261,-4.074956483626775317
0.545000000000000373,-4.052841189011812340
0.546000000000000263,-4.030861017225101151
0.547000000000000375,-4.009014633409917039
0.548000000000000265,-3.987300715083969660
0.549000000000000377,-3.965717952157047588
0.550000000000000266,-3.944265046947509568
0.551000000000000378,-3.922940714197294731
0.552000000000000268,-3.901743681085477533
0.553000000000000380,-3.880672687240172447
0.554000000000000270,-3.859726484748777331
0.555000000000000382,-3.838903838166332516
0.556000000000000272,-3.818203524522117309
0.557000000000000384,-3.797624333324129964
0.558000000000000274,-3.777165066561702922
0.559000000000000385,-3.756824538705865191
0.560000000000000275,-3.736601576707690775
0.561000000000000387,-3.716495019994333404
0.562000000000000277,-3.696503720462873677
0.563000000000000389,-3.676626542471852499
0.564000000000000279,-3.656862362830490376
0.565000000000000391,-3.637210070785543703
0.566000000000000281,-3.617668568005785623
0.567000000000000393,-3.598236768564073262
0.568000000000000282,-3.578913598917051964
0.569000000000000394,-3.559697997882352638
0.570000000000000284,-3.540588916613439885
0.571000000000000396,-3.521585318571966550
0.572000000000000286,-3.502686179497759955
0.573000000000000398,-3.483890487376299028
0.574000000000000288,-3.465197242403853295
0.575000000000000400,-3.446605456950175839
0.576000000000000290,-3.428114155518822148
0.577000000000000401,-3.409722374705079773
0.578000000000000291,-3.391429163151586490
0.579000000000000403,-3.373233581501576595
0.580000000000000293,-3.355134702349881870
0.581000000000000405,-3.337131610191602427
0.582000000000000295,-3.319223401368613047
0.583000000000000407,-3.301409184013802012
0.584000000000000297,-3.283688077993183185
0.585000000000000409,-3.266059214845843606
0.586000000000000298,-3.248521737721856706
0.587000000000000410,-3.231074801318072787
0.588000000000000300,-3.213717571811976370
0.589000000000000412,-3.196449226793512288
0.590000000000000302,-3.179268955195040824
0.591000000000000414,-3.162175957219400146
0.592000000000000304,-3.145169444266168401
0.593000000000000416,-3.128248638856091279
0.594000000000000306,-3.111412774553858007
0.595000000000000417,-3.094661095889144953
0.596000000000000307,-3.077992858276054289
0.597000000000000419,-3.061407327930960598
0.598000000000000309,-3.044903781788870667
0.599000000000000421,-3.028481507418250285
0.600000000000000311,-3.012139802934495236
0.601000000000000423,-2.995877976911974994
0.602000000000000313,-2.979695348294824075
0.603000000000000425,-2.963591246306386928
0.604000000000000314,-2.947565010357562798
0.605000000000000426,-2.931615989953874735
0.606000000000000316,-2.915743544601543391
0.607000000000000428,-2.899947043712408412
0.608000000000000318,-2.884225866507950986
0.609000000000000430,-2.868579401922275007
0.610000000000000320,-2.853007048504272447
0.611000000000000432,-2.837508214318875677
0.612000000000000322,-2.822082316847580152
0.613000000000000433,-2.806728782888165519
0.614000000000000323,-2.791447048453781221
0.615000000000000435,-2.776236558671340227
0.616000000000000325,-2.761096767679355857
0.617000000000000437,-2.746027138525207967
0.618000000000000327,-2.731027143061941498
0.619000000000000439,-2.716096261844575199
0.620000000000000329,-2.701233984026048418
0.621000000000000441,-2.686439807252784640
0.622000000000000330,-2.671713237559961485
0.623000000000000442,-2.657053789266492494
0.624000000000000332,-2.642460984869808627
0.625000000000000444,-2.627934354940443917
0.626000000000000334,-2.613473438016495898
0.627000000000000446,-2.599077780497975887
0.628000000000000336,-2.584746936541116646
0.629000000000000448,-2.570480467952653836
0.630000000000000338,-2.556277944084151432
0.631000000000000449,-2.542138941726347134
0.632000000000000339,-2.528063045003659859
0.633000000000000451,-2.514049845268763406
0.634000000000000341,-2.500098940997384833
0.635000000000000453,-2.486209937683287130
0.636000000000000343,-2.472382447733489919
0.637000000000000455,-2.458616090363769047
0.638000000000000345,-2.444910491494476368
0.639000000000000457,-2.431265283646647735
0.640000000000000346,-2.417680105838552862
0.641000000000000458,-2.404154603482564934
0.642000000000000348,-2.390688428282526701
0.643000000000000460,-2.377281238131503383
0.644000000000000350,-2.363932697010084016
0.645000000000000462,-2.350642474885124678
0.646000000000000352,-2.337410247609089886
0.647000000000000464,-2.324235696819874519
0.648000000000000353,-2.311118509841306512
0.649000000000000465,-2.298058379584134947
0.650000000000000355,-2.285055004447765548
0.651000000000000467,-2.272108088222533073
0.652000000000000357,-2.259217339992745099
0.653000000000000469,-2.246382474040307109
0.654000000000000359,-2.233603209749162488
0.655000000000000471,-2.220879271510362241
0.656000000000000361,-2.208210388627954046
0.657000000000000473,-2.195596295225561878
0.658000000000000362,-2.183036730153803173
0.659000000000000474,-2.170531436898446742
0.660000000000000364,-2.158080163489415781
0.661000000000000476,-2.145682662410568931
