# Hydroxyapatite-001_CS-271-AC
# h[nm],U(h)[kJ/mol]
0.200000000000000011,46.658056839544016725
0.201000000000000012,44.656436298319448497
0.202000000000000013,43.349011667253705582
0.203000000000000014,42.362593656101232398
0.204000000000000015,41.487199508217003086
0.205000000000000016,40.616276905839370670
0.206000000000000016,39.706004167510606351
0.207000000000000017,38.748195762168890610
0.208000000000000018,37.752786499741944226
0.209000000000000019,36.736954446191838031
0.210000000000000020,35.718755953407153925
0.211000000000000021,34.713751355439583790
0.212000000000000022,33.733547112381927491
0.213000000000000023,32.785508127794074085
0.214000000000000024,31.873132259274466804
0.215000000000000024,30.996750334113311709
0.216000000000000025,30.154336520935679289
0.217000000000000026,29.342298774810309681
0.218000000000000027,28.556177142446994566
0.219000000000000028,27.791216401721555940
0.220000000000000029,27.042804351796387863
0.221000000000000030,26.306782170738365778
0.222000000000000031,25.579641635130471400
0.223000000000000032,24.858627849545381849
0.224000000000000032,24.141767046525327345
0.225000000000000033,23.427838114628002586
0.226000000000000034,22.716304578065670938
0.227000000000000035,22.007221321915459100
0.228000000000000036,21.301127785936444070
0.229000000000000037,20.598936861702931367
0.230000000000000038,19.901826454109823317
0.231000000000000039,19.211138677677844555
0.232000000000000040,18.528289975847837212
0.233000000000000040,17.854694075013430421
0.234000000000000041,17.191698594605082206
0.235000000000000042,16.540535300692251752
0.236000000000000043,15.902283379484618564
0.237000000000000044,15.277844684045287948
0.238000000000000045,14.667929639044269052
0.239000000000000046,14.073052343706175193
0.240000000000000047,13.493533364827191789
0.241000000000000048,12.929508736090706833
0.242000000000000048,12.380943756767488040
0.243000000000000049,11.847650295563658673
0.244000000000000050,11.329306440354784513
0.245000000000000051,10.825477481086036136
0.246000000000000052,10.335637362945769624
0.247000000000000053,9.859189893813319117
0.248000000000000054,9.395489129465692812
0.249000000000000055,8.943858489046283111
0.250000000000000056,8.503608269944214371
0.251000000000000056,8.074051334505469413
0.252000000000000057,7.654516830594997323
0.253000000000000058,7.244361884179312483
0.254000000000000059,6.842981265404913138
0.255000000000000060,6.449815080980283888
0.256000000000000061,6.064354586061623920
0.257000000000000062,5.686146239423743864
0.258000000000000063,5.314794147628445486
0.259000000000000064,4.949961058334143793
0.260000000000000064,4.591368070930966994
0.261000000000000065,4.238793235379011648
0.262000000000000066,3.892069208435116057
0.263000000000000067,3.551080131253115724
0.264000000000000068,3.215757884413372292
0.265000000000000069,2.886077866469936026
0.266000000000000070,2.562054430697806140
0.267000000000000071,2.243736102389179088
0.268000000000000071,1.931200686221970830
0.269000000000000072,1.624550360263034676
0.270000000000000073,1.323906840366230631
0.271000000000000074,1.029406686314463082
0.272000000000000075,0.741196809214265451
0.273000000000000076,0.459430228517233641
0.274000000000000077,0.184262116707494872
0.275000000000000078,-0.084153839778980097
0.276000000000000079,-0.345668743417268609
0.277000000000000079,-0.600141439929814169
0.278000000000000080,-0.847441118569965068
0.279000000000000081,-1.087449558741634847
0.280000000000000082,-1.320063028425532581
0.281000000000000083,-1.545193844177736198
0.282000000000000084,-1.762771606025205884
0.283000000000000085,-1.972744123461852350
0.284000000000000086,-2.175078051005500335
0.285000000000000087,-2.369759253468594729
0.286000000000000087,-2.556792922283054104
0.287000000000000088,-2.736203464958499865
0.288000000000000089,-2.908034190098059746
0.289000000000000090,-3.072346810399897876
0.290000000000000091,-3.229220785783314174
0.291000000000000092,-3.378752528243404551
0.292000000000000093,-3.521054489297961165
0.293000000000000094,-3.656254149984914825
0.294000000000000095,-3.784492932332112591
0.295000000000000095,-3.905925050086043626
0.296000000000000096,-4.020716315279303288
0.297000000000000097,-4.129042915964221017
0.298000000000000098,-4.231090179162727338
0.299000000000000099,-4.327051331800117140
0.300000000000000100,-4.417126271118005043
0.301000000000000101,-4.501520354814068980
0.302000000000000102,-4.580443219943530764
0.303000000000000103,-4.654107638450016182
0.304000000000000103,-4.722728416077639046
0.305000000000000104,-4.786521340358844689
0.306000000000000105,-4.845702182376943945
0.307000000000000106,-4.900485756071633503
0.308000000000000107,-4.951085037992026372
0.309000000000000108,-4.997710349605127611
0.310000000000000109,-5.040568603538515546
0.311000000000000110,-5.079862614472998139
0.312000000000000111,-5.115790474803330490
0.313000000000000111,-5.148544994649804529
0.314000000000000112,-5.178313205329318158
0.315000000000000113,-5.205275924977754265
0.316000000000000114,-5.229607384654072710
0.317000000000000115,-5.251474912946372697
0.318000000000000116,-5.271038676839087778
0.319000000000000117,-5.288451476384315342
0.320000000000000118,-5.303858590546148832
0.321000000000000119,-5.317397671451596253
0.322000000000000119,-5.329198684181376322
0.323000000000000120,-5.339383889166250619
0.324000000000000121,-5.348067864215808598
0.325000000000000122,-5.355357563194251824
0.326000000000000123,-5.361352408368594169
0.327000000000000124,-5.366144413486258813
0.328000000000000125,-5.369818334689176353
0.329000000000000126,-5.372451846436643308
0.330000000000000127,-5.374115739688630100
0.331000000000000127,-5.374874139691713459
0.332000000000000128,-5.374784740809898764
0.333000000000000129,-5.373899055950625225
0.334000000000000130,-5.372262678250047330
0.335000000000000131,-5.369915552800719638
0.336000000000000132,-5.366892256326443622
0.337000000000000133,-5.363222282833391752
0.338000000000000134,-5.358930333391606737
0.339000000000000135,-5.354036608326031121
0.340000000000000135,-5.348557100220638461
0.341000000000000136,-5.342503886261792623
0.342000000000000137,-5.335885418567466232
0.343000000000000138,-5.328706811266473053
0.344000000000000139,-5.320970123206292257
0.345000000000000140,-5.312674635278556323
0.346000000000000141,-5.303817121457869987
0.347000000000000142,-5.294392112751809876
0.348000000000000143,-5.284392153357742039
0.349000000000000143,-5.273808048415045135
0.350000000000000144,-5.262629102829611938
0.351000000000000145,-5.250843350730862724
0.352000000000000146,-5.238437775200063484
0.353000000000000147,-5.225398517982312363
0.354000000000000148,-5.211711078963486621
0.355000000000000149,-5.197360505257391239
0.356000000000000150,-5.182331569807852034
0.357000000000000151,-5.166608939465255901
0.358000000000000151,-5.150177332547523079
0.359000000000000152,-5.133021665941472023
0.360000000000000153,-5.115127191842733012
0.361000000000000154,-5.096479624270111586
0.362000000000000155,-5.077065255524685128
0.363000000000000156,-5.056871062794333405
0.364000000000000157,-5.035884805131501274
0.365000000000000158,-5.014095111055889120
0.366000000000000159,-4.991491557054294148
0.367000000000000159,-4.968064737267670949
0.368000000000000160,-4.943806324670572572
0.369000000000000161,-4.918709124060362647
0.370000000000000162,-4.892767117183792536
0.371000000000000163,-4.865975500336296555
0.372000000000000164,-4.838330714774960128
0.373000000000000165,-4.809830470290079596
0.374000000000000166,-4.780473762282136718
0.375000000000000167,-4.750260882691416775
0.376000000000000167,-4.719193425126554153
0.377000000000000168,-4.687274284535714486
0.378000000000000169,-4.654507651760551035
0.379000000000000170,-4.620899003308446495
0.380000000000000171,-4.586455086672611259
0.381000000000000172,-4.551183901523296882
0.382000000000000173,-4.515094677085808250
0.383000000000000174,-4.478197846013177497
0.384000000000000175,-4.440505015052631066
0.385000000000000175,-4.402028932795976957
0.386000000000000176,-4.362783454794539217
0.387000000000000177,-4.322783506309370694
0.388000000000000178,-4.282045042957522085
0.389000000000000179,-4.240585009504647118
0.390000000000000180,-4.198421297043954503
0.391000000000000181,-4.155572698790838793
0.392000000000000182,-4.112058864712055950
0.393000000000000183,-4.067900255197605119
0.394000000000000183,-4.023118093973057086
0.395000000000000184,-3.977734320439555660
0.396000000000000185,-3.931771541618349630
0.397000000000000186,-3.885252983866624987
0.398000000000000187,-3.838202444521252144
0.399000000000000188,-3.790644243617340869
0.400000000000000189,-3.742603175818837169
0.401000000000000190,-3.694104462688996282
0.402000000000000191,-3.645173705419550547
0.403000000000000191,-3.595836838128358970
0.404000000000000192,-3.546120081826900527
0.405000000000000193,-3.496049899150543094
0.406000000000000194,-3.445652949936586218
0.407000000000000195,-3.394956047727346604
0.408000000000000196,-3.343986117268048730
0.409000000000000197,-3.292770153062281935
0.410000000000000198,-3.241335179040926384
0.411000000000000199,-3.189708209393865790
0.412000000000000199,-3.137916210607673229
0.413000000000000200,-3.085986064746543356
0.414000000000000201,-3.033944534008063965
0.415000000000000202,-2.981818226580074782
0.416000000000000203,-2.929633563819968423
0.417000000000000204,-2.877416748772777311
0.418000000000000205,-2.825193736040133352
0.419000000000000206,-2.772990203007853260
0.420000000000000207,-2.720831522435874561
0.421000000000000207,-2.668742736410784300
0.422000000000000208,-2.616748531657415722
0.423000000000000209,-2.564873216203074069
0.424000000000000210,-2.513140697384729005
0.425000000000000211,-2.461574461186864404
0.426000000000000212,-2.410197552895116058
0.427000000000000213,-2.359032559048400923
0.428000000000000214,-2.308101590670247560
0.429000000000000214,-2.257426267757904448
0.430000000000000215,-2.207027705006140206
0.431000000000000216,-2.156926498741099429
0.432000000000000217,-2.107142715037938263
0.433000000000000218,-2.057695878994941552
0.434000000000000219,-2.008604965135513787
0.435000000000000220,-1.959888388908571200
0.436000000000000221,-1.911563999256924218
0.437000000000000222,-1.863649072222589798
0.438000000000000222,-1.816160305557370735
0.439000000000000223,-1.769113814306534138
0.440000000000000224,-1.722525127333048189
0.441000000000000225,-1.676409184749558134
0.442000000000000226,-1.630780336225206018
0.443000000000000227,-1.585652340134096061
0.444000000000000228,-1.541038363512446718
0.445000000000000229,-1.496950982791350748
0.446000000000000230,-1.453402185272308023
0.447000000000000230,-1.410403371312884957
0.448000000000000231,-1.367965357190104925
0.449000000000000232,-1.326098378609494199
0.450000000000000233,-1.284812094828155615
0.451000000000000234,-1.244115593360552330
0.452000000000000235,-1.204017395236278487
0.453000000000000236,-1.164525460779458843
0.454000000000000237,-1.125647195880146167
0.455000000000000238,-1.087389458728438729
0.456000000000000238,-1.049758566982861296
0.457000000000000239,-1.012760305344978073
0.458000000000000240,-0.976399933513066864
0.459000000000000241,-0.940682194488090317
0.460000000000000242,-0.905611323206188978
0.461000000000000243,-0.871191055472308684
0.462000000000000244,-0.837424637170569808
0.463000000000000245,-0.804314833727411638
0.464000000000000246,-0.771863939804556809
0.465000000000000246,-0.740073789199350074
0.466000000000000247,-0.708945764930846600
0.467000000000000248,-0.678480809490733860
0.468000000000000249,-0.648679435238943114
0.469000000000000250,-0.619541734924440979
0.470000000000000251,-0.591067392312525142
0.471000000000000252,-0.563255692900534677
0.472000000000000253,-0.536105534704770958
0.473000000000000254,-0.509615439101927969
0.474000000000000254,-0.483783561709191179
0.475000000000000255,-0.458607703287755686
0.476000000000000256,-0.434085320655213436
0.477000000000000257,-0.410213537592961419
0.478000000000000258,-0.386989155735351864
0.479000000000000259,-0.364408665428034406
0.480000000000000260,-0.342468256543522476
0.481000000000000261,-0.321163829242602283
0.482000000000000262,-0.300491004670898398
0.483000000000000262,-0.280445135580389471
0.484000000000000263,-0.261021316866300812
0.485000000000000264,-0.242214396010346750
0.486000000000000265,-0.224018983421849283
0.487000000000000266,-0.206429462668755864
0.488000000000000267,-0.189440000591112656
0.489000000000000268,-0.173044557290091466
0.490000000000000269,-0.157236895986034297
0.491000000000000270,-0.142010592739612196
0.492000000000000270,-0.127359046030470713
0.493000000000000271,-0.113275486188346222
0.494000000000000272,-0.099752984671905326
0.495000000000000273,-0.086784463191088526
0.496000000000000274,-0.074362702669073327
0.497000000000000275,-0.062480352040336348
0.498000000000000276,-0.051129936881744165
0.499000000000000277,-0.040303867873836843
0.500000000000000222,-0.029994449089911869
0.501000000000000334,-0.020193886110764003
0.502000000000000224,-0.010894293963317781
0.503000000000000336,-0.002087704881585584
0.504000000000000226,0.006233924111190880
0.505000000000000338,0.014078703800247627
0.506000000000000227,0.021454805557451006
0.507000000000000339,0.028370454300432078
0.508000000000000229,0.034833921632833942
0.509000000000000341,0.040853519165697925
0.510000000000000231,0.046437592019715354
0.511000000000000343,0.051594512507966116
0.512000000000000233,0.056332673998472062
0.513000000000000345,0.060660484955790309
0.514000000000000234,0.064586363160625077
0.515000000000000346,0.068118730106394756
0.516000000000000236,0.071266005571391358
0.517000000000000348,0.074036602365135845
0.518000000000000238,0.076438921247368355
0.519000000000000350,0.078481346017960169
0.520000000000000240,0.080172238775971308
0.521000000000000352,0.081519935345893219
0.522000000000000242,0.082532740869127652
0.523000000000000353,0.083218925558507004
0.524000000000000243,0.083586720613746654
0.525000000000000355,0.083644314295488756
0.526000000000000245,0.083399848155627246
0.527000000000000357,0.082861413421485425
0.528000000000000247,0.082037047531374530
0.529000000000000359,0.080934730819020292
0.530000000000000249,0.079562383344258025
0.531000000000000361,0.077927861867397571
0.532000000000000250,0.076038956964597615
0.533000000000000362,0.073903390281550102
0.534000000000000252,0.071528811922798544
0.535000000000000364,0.068922797973871935
0.536000000000000254,0.066092848153577563
0.537000000000000366,0.063046383593593117
0.538000000000000256,0.059790744742626425
0.539000000000000368,0.056333189392328675
0.540000000000000258,0.052680890822177327
0.541000000000000369,0.048840936060520403
0.542000000000000259,0.044820324259020737
0.543000000000000371,0.040625965177675208
0.544000000000000261,0.036264677777658891
0.545000000000000373,0.031743188919223231
0.546000000000000263,0.027068132161905713
0.547000000000000375,0.022246046664283693
0.548000000000000265,0.017283376180612618
0.549000000000000377,0.012186468151589479
0.550000000000000266,0.006961572886643752
0.551000000000000378,0.001614842835023300
0.552000000000000268,-0.003847668056860920
0.553000000000000380,-0.009420004904486167
0.554000000000000270,-0.015096312363193398
0.555000000000000382,-0.020870835027634770
0.556000000000000272,-0.026737917755190532
0.557000000000000384,-0.032692005915803748
0.558000000000000274,-0.038727645570709179
0.559000000000000385,-0.044839483582395215
0.560000000000000275,-0.051022267658208983
0.561000000000000387,-0.057270846329909433
0.562000000000000277,-0.063580168871429837
0.563000000000000389,-0.069945285157157616
0.564000000000000279,-0.076361345462869046
0.565000000000000391,-0.082823600211561016
0.566000000000000281,-0.089327399666230059
0.567000000000000393,-0.095868193571770871
0.568000000000000282,-0.102441530747977974
0.569000000000000394,-0.109043058635709705
0.570000000000000284,-0.115668522798121343
0.571000000000000396,-0.122313766378981545
0.572000000000000286,-0.128974729519875653
0.573000000000000398,-0.135647448738193510
0.574000000000000288,-0.142328056267668368
0.575000000000000400,-0.149012779363297543
0.576000000000000290,-0.155697939572262412
0.577000000000000401,-0.162379951972654701
0.578000000000000291,-0.169055324381546246
0.579000000000000403,-0.175720656534072261
0.580000000000000293,-0.182372639235050343
0.581000000000000405,-0.189008053484710808
0.582000000000000295,-0.195623769579943291
0.583000000000000407,-0.202216746192601077
0.584000000000000297,-0.208784029426173717
0.585000000000000409,-0.215322751852299710
0.586000000000000298,-0.221830131528336139
0.587000000000000410,-0.228303470997404417
0.588000000000000300,-0.234740156272052858
0.589000000000000412,-0.241137655802853734
0.590000000000000302,-0.247493519433041820
0.591000000000000414,-0.253805377340430849
0.592000000000000304,-0.260070938967623455
0.593000000000000416,-0.266287991941688340
0.594000000000000306,-0.272454400984293965
0.595000000000000417,-0.278568106813352423
0.596000000000000307,-0.284627125037103412
0.597000000000000419,-0.290629545041656168
0.598000000000000309,-0.296573528872869363
0.599000000000000421,-0.302457310113433464
0.600000000000000311,-0.308279192756073295
0.601000000000000423,-0.314037550073658411
0.602000000000000313,-0.319730823487010207
0.603000000000000425,-0.325357521431217822
0.604000000000000314,-0.330916218221157021
0.605000000000000426,-0.336405552916969719
0.606000000000000316,-0.341824228190149682
0.607000000000000428,-0.347171009190925306
0.608000000000000318,-0.352444722417566636
0.609000000000000430,-0.357644254588223354
0.610000000000000320,-0.362768551515865068
0.611000000000000432,-0.367816616986928802
0.612000000000000322,-0.372787511644144254
0.613000000000000433,-0.377680351874116083
0.614000000000000323,-0.382494308700114805
0.615000000000000435,-0.387228606680568022
0.616000000000000325,-0.391882522813664758
0.617000000000000437,-0.396455385448565567
0.618000000000000327,-0.400946573203552870
0.619000000000000439,-0.405355513891558883
0.620000000000000329,-0.409681683453419487
0.621000000000000441,-0.413924604899207627
0.622000000000000330,-0.418083847257975372
0.623000000000000442,-0.422159024536231164
0.624000000000000332,-0.426149794685407646
0.625000000000000444,-0.430055858578671901
0.626000000000000334,-0.433876958997256423
0.627000000000000446,-0.437612879626629758
0.628000000000000336,-0.441263444062692300
0.629000000000000448,-0.444828514828241428
0.630000000000000338,-0.448307992399882060
0.631000000000000449,-0.451701814245608291
0.632000000000000339,-0.455009953873191986
0.633000000000000451,-0.458232419889564313
0.634000000000000341,-0.461369255071322759
0.635000000000000453,-0.464420535446535721
0.636000000000000343,-0.467386369387897460
0.637000000000000455,-0.470266896717444483
0.638000000000000345,-0.473062287822834271
0.639000000000000457,-0.475772742785358027
0.640000000000000346,-0.478398490519714059
0.641000000000000458,-0.480939787925650897
0.642000000000000348,-0.483396919051502394
0.643000000000000460,-0.485770194269706412
0.644000000000000350,-0.488059949464313025
0.645000000000000462,-0.490266545230545858
0.646000000000000352,-0.492390366086408959
0.647000000000000464,-0.494431819696399377
0.648000000000000353,-0.496391336107284808
0.649000000000000465,-0.498269366995994445
0.650000000000000355,-0.500066384929581664
0.651000000000000467,-0.501782882637263672
0.652000000000000357,-0.503419372294528156
0.653000000000000469,-0.504976384819247337
0.654000000000000359,-0.506454469179815514
0.655000000000000471,-0.507854191715227832
0.656000000000000361,-0.509176135467086288
0.657000000000000473,-0.510420899523477134
0.658000000000000362,-0.511589098374661821
0.659000000000000474,-0.512681361280527437
0.660000000000000364,-0.513698331649733442
0.661000000000000476,-0.514640666430493110
0.662000000000000366,-0.515509035512903613
0.663000000000000478,-0.516304121142768246
0.664000000000000368,-0.517026617346811213
