# Hydroxyapatite-001_CS-582-AC
# h[nm],U(h)[kJ/mol]
0.200000000000000011,69.400795331352256312
0.201000000000000012,68.147809390375243765
0.202000000000000013,66.817654703624157264
0.203000000000000014,65.452533303111295027
0.204000000000000015,64.076949027554661598
0.205000000000000016,62.704634241051870447
0.206000000000000016,61.342991525142302578
0.207000000000000017,59.995860687607489581
0.208000000000000018,58.665179752190383056
0.209000000000000019,57.351933686837128334
0.210000000000000020,56.056659164854330868
0.211000000000000021,54.779684582817445460
0.212000000000000022,53.521222093089932059
0.213000000000000023,52.281385240147344007
0.214000000000000024,51.060176491613972871
0.215000000000000024,49.857469520245658146
0.216000000000000025,48.672998583627638425
0.217000000000000026,47.506359625892081056
0.218000000000000027,46.357023248374318314
0.219000000000000028,45.224357363786765518
0.220000000000000029,44.107656386455019515
0.221000000000000030,43.006173682390098634
0.222000000000000031,41.919154342583638595
0.223000000000000032,40.845865909425938867
0.224000000000000032,39.785625325419175624
0.225000000000000033,38.737820992121164920
0.226000000000000034,37.701929373827709924
0.227000000000000035,36.677526030906882681
0.228000000000000036,35.664291315744200972
0.229000000000000037,34.662011214603751341
0.230000000000000038,33.670573982062670382
0.231000000000000039,32.689963304572700054
0.232000000000000040,31.720248760411578814
0.233000000000000040,30.761574328510256748
0.234000000000000041,29.814145650764395157
0.235000000000000042,28.878216682171512275
0.236000000000000043,27.954076279388022641
0.237000000000000044,27.042035188237456111
0.238000000000000045,26.142413799864165469
0.239000000000000046,25.255530957739804165
0.240000000000000047,24.381694016484150467
0.241000000000000048,23.521190280349543400
0.242000000000000048,22.674279885301075410
0.243000000000000049,21.841190134329412587
0.244000000000000050,21.022111250902661084
0.245000000000000051,20.217193479874026707
0.246000000000000052,19.426545438061435078
0.247000000000000053,18.650233597278251807
0.248000000000000054,17.888282769923410598
0.249000000000000055,17.140677460399846410
0.250000000000000056,16.407363943701675169
0.251000000000000056,15.688252934610954270
0.252000000000000057,14.983222716256392459
0.253000000000000058,14.292122604563621380
0.254000000000000059,13.614776634704830016
0.255000000000000060,12.950987366457141547
0.256000000000000061,12.300539716904756560
0.257000000000000062,11.663204740753839062
0.258000000000000063,11.038743290326298307
0.259000000000000064,10.426909498784752373
0.260000000000000064,9.827454041100214255
0.261000000000000065,9.240127137547824887
0.262000000000000066,8.664681273987500987
0.263000000000000067,8.100873621786316647
0.264000000000000068,7.548468147925038174
0.265000000000000069,7.007237412592070669
0.266000000000000070,6.476964057416628506
0.267000000000000071,5.957441992455422053
0.268000000000000071,5.448477294169700613
0.269000000000000072,4.949888829961999193
0.270000000000000073,4.461508627446500341
0.271000000000000074,3.983182008566585885
0.272000000000000075,3.514767510014106477
0.273000000000000076,3.056136612215163417
0.274000000000000077,2.607173299490382234
0.275000000000000078,2.167773473938814366
0.276000000000000079,1.737844245193463477
0.277000000000000079,1.317303117508361154
0.278000000000000080,0.906077094717604226
0.279000000000000081,0.504101722499761373
0.280000000000000082,0.111320086134169216
0.281000000000000083,-0.272318219415274509
0.282000000000000084,-0.646858131671166681
0.283000000000000085,-1.012340161106717984
0.284000000000000086,-1.368801417409156951
0.285000000000000087,-1.716276610503826294
0.286000000000000087,-2.054799016727335115
0.287000000000000088,-2.384401401918281316
0.288000000000000089,-2.705116894516218284
0.289000000000000090,-3.016979803014073536
0.290000000000000091,-3.320026373286815158
0.291000000000000092,-3.614295482417459571
0.292000000000000093,-3.899829266653833226
0.293000000000000094,-4.176673682056451398
0.294000000000000095,-4.444878997237657003
0.295000000000000095,-4.704500218346661100
0.296000000000000096,-4.955597447124796773
0.297000000000000097,-5.198236173444167996
0.298000000000000098,-5.432487504253025179
0.299000000000000099,-5.658428331287554514
0.300000000000000100,-5.876141440275061356
0.301000000000000101,-6.085715564654208265
0.302000000000000102,-6.287245387076050740
0.303000000000000103,-6.480831492133075855
0.304000000000000103,-6.666580273893400133
0.305000000000000104,-6.844603801901774531
0.306000000000000105,-7.015019649350401565
0.307000000000000106,-7.177950687126172902
0.308000000000000107,-7.333524847411356795
0.309000000000000108,-7.481874860455053344
0.310000000000000109,-7.623137968048491864
0.311000000000000110,-7.757455617129724423
0.312000000000000111,-7.884973136819056094
0.313000000000000111,-8.005839402045300091
0.314000000000000112,-8.120206486770841892
0.315000000000000113,-8.228229309660777702
0.316000000000000114,-8.330065274872312742
0.317000000000000115,-8.425873910465851324
0.318000000000000116,-8.515816506762282856
0.319000000000000117,-8.600055756792382766
0.320000000000000118,-8.678755400806389630
0.321000000000000119,-8.752079876635978195
0.322000000000000119,-8.820193977527663876
0.323000000000000120,-8.883262518898005666
0.324000000000000121,-8.941450015297306209
0.325000000000000122,-8.994920368710372927
0.326000000000000123,-9.043836569171324058
0.327000000000000124,-9.088360408524605916
0.328000000000000125,-9.128652208027029147
0.329000000000000126,-9.164870560355351969
0.330000000000000127,-9.197172086461790741
0.331000000000000127,-9.225711207605138853
0.332000000000000128,-9.250639932778522478
0.333000000000000129,-9.272107661655949684
0.334000000000000130,-9.290261003088094327
0.335000000000000131,-9.305243609094848267
0.336000000000000132,-9.317196024224944750
0.337000000000000133,-9.326255550084436408
0.338000000000000134,-9.332556124773322637
0.339000000000000135,-9.336228216913937672
0.340000000000000135,-9.337398733905768466
0.341000000000000136,-9.336190943997948466
0.342000000000000137,-9.332724411733590131
0.343000000000000138,-9.327114946287895947
0.344000000000000139,-9.319474562195505740
0.345000000000000140,-9.309911451940520166
0.346000000000000141,-9.298529969865041878
0.347000000000000142,-9.285430626838930834
0.348000000000000143,-9.270710095124190531
0.349000000000000143,-9.254461222861333880
0.350000000000000144,-9.236773057602905013
0.351000000000000145,-9.217730878319390087
0.352000000000000146,-9.197416235306443255
0.353000000000000147,-9.175906997427588863
0.354000000000000148,-9.153277406134815664
0.355000000000000149,-9.129598135719049878
0.356000000000000150,-9.104936359254379497
0.357000000000000151,-9.079355819712837672
0.358000000000000151,-9.052916905741213327
0.359000000000000152,-9.025676731606813163
0.360000000000000153,-8.997689220835967561
0.361000000000000154,-8.969005193086116989
0.362000000000000155,-8.939672453810690200
0.363000000000000156,-8.909735886294384954
0.364000000000000157,-8.879237545655204400
0.365000000000000158,-8.848216754429317987
0.366000000000000159,-8.816710199373407164
0.367000000000000159,-8.784752029139056617
0.368000000000000160,-8.752373952492863651
0.369000000000000161,-8.719605336774986171
0.370000000000000162,-8.686473306307963327
0.371000000000000163,-8.653002840486303526
0.372000000000000164,-8.619216871295407145
0.373000000000000165,-8.585136380026849423
0.374000000000000166,-8.550780492973972358
0.375000000000000167,-8.516166575909210223
0.376000000000000167,-8.481310327160919371
0.377000000000000168,-8.446225869123553665
0.378000000000000169,-8.410925838050314240
0.379000000000000170,-8.375421471992645195
0.380000000000000171,-8.339722696764725995
0.381000000000000172,-8.303838209825286754
0.382000000000000173,-8.267775561981755672
0.383000000000000174,-8.231541236834603481
0.384000000000000175,-8.195140727891249810
0.385000000000000175,-8.158578613290440984
0.386000000000000176,-8.121858628088617138
0.387000000000000177,-8.084983734069654204
0.388000000000000178,-8.047956187049249976
0.389000000000000179,-8.010777601653778390
0.390000000000000180,-7.973449013561929810
0.391000000000000181,-7.935970939205399866
0.392000000000000182,-7.898343432931900665
0.393000000000000183,-7.860566141640743965
0.394000000000000183,-7.822638356907423152
0.395000000000000184,-7.784559064619391400
0.396000000000000185,-7.746326992150535773
0.397000000000000186,-7.707940653106732043
0.398000000000000187,-7.669398389679271233
0.399000000000000188,-7.630698412646950146
0.400000000000000189,-7.591838839071210820
0.401000000000000190,-7.552817727732024089
0.402000000000000191,-7.513633112355002197
0.403000000000000191,-7.474283032682775385
0.404000000000000192,-7.434765563445951742
0.405000000000000193,-7.395078841290690264
0.406000000000000194,-7.355221089721775130
0.407000000000000195,-7.315190642121217834
0.408000000000000196,-7.274985962903540049
0.409000000000000197,-7.234605666869763141
0.410000000000000198,-7.194048536822727158
0.411000000000000199,-7.153313539506667595
0.412000000000000199,-7.112399839934317569
0.413000000000000200,-7.071306814164702637
0.414000000000000201,-7.030034060594715584
0.415000000000000202,-6.988581409827126834
0.416000000000000203,-6.946948933177438334
0.417000000000000204,-6.905136949881118369
0.418000000000000205,-6.863146033062318629
0.419000000000000206,-6.820977014524162385
0.420000000000000207,-6.778630988419784842
0.421000000000000207,-6.736109313862489678
0.422000000000000208,-6.693413616531907806
0.423000000000000209,-6.650545789332343638
0.424000000000000210,-6.607507992157870547
0.425000000000000211,-6.564302650817644746
0.426000000000000212,-6.520932455173598541
0.427000000000000213,-6.477400356541096471
0.428000000000000214,-6.433709564402045444
0.429000000000000214,-6.389863542478176228
0.430000000000000215,-6.345866004210965805
0.431000000000000216,-6.301720907693194818
0.432000000000000217,-6.257432450095496534
0.433000000000000218,-6.213005061629867321
0.434000000000000219,-6.168443399090635992
0.435000000000000220,-6.123752339011828916
0.436000000000000221,-6.078936970478361346
0.437000000000000222,-6.034002587627045777
0.438000000000000222,-5.988954681871972774
0.439000000000000223,-5.943798933887256553
0.440000000000000224,-5.898541205378800001
0.441000000000000225,-5.853187530675207917
0.442000000000000226,-5.807744108166772889
0.443000000000000227,-5.762217291619768034
0.444000000000000228,-5.716613581392324228
0.445000000000000229,-5.670939615576484627
0.446000000000000230,-5.625202161089957187
0.447000000000000230,-5.579408104739796315
0.448000000000000231,-5.533564444278935568
0.449000000000000232,-5.487678279475290744
0.450000000000000233,-5.441756803212186355
0.451000000000000234,-5.395807292637357477
0.452000000000000235,-5.349837100377081711
0.453000000000000236,-5.303853645830542973
0.454000000000000237,-5.257864406558889314
0.455000000000000238,-5.211876909782015233
0.456000000000000238,-5.165898723995547392
0.457000000000000239,-5.119937450719230121
0.458000000000000240,-5.074000716387321752
0.459000000000000241,-5.028096164390364109
0.460000000000000242,-4.982231447277362335
0.461000000000000243,-4.936414219126033842
0.462000000000000244,-4.890652128088580852
0.463000000000000245,-4.844952809119158488
0.464000000000000246,-4.799323876889047824
0.465000000000000246,-4.753772918894407340
0.466000000000000247,-4.708307488761129811
0.467000000000000248,-4.662935099750553647
0.468000000000000249,-4.617663218469333586
0.469000000000000250,-4.572499258786058007
0.470000000000000251,-4.527450575956842194
0.471000000000000252,-4.482524460961405666
0.472000000000000253,-4.437728135051021816
0.473000000000000254,-4.393068744508806134
0.474000000000000254,-4.348553355622861716
0.475000000000000255,-4.304188949872000514
0.476000000000000256,-4.259982419323688596
0.477000000000000257,-4.215940562243348566
0.478000000000000258,-4.172070078913785451
0.479000000000000259,-4.128377567663379821
0.480000000000000260,-4.084869521101220258
0.481000000000000261,-4.041552322557101284
0.482000000000000262,-3.998432242724227592
0.483000000000000262,-3.955515436502003546
0.484000000000000263,-3.912807940036210574
0.485000000000000264,-3.870315667953683203
0.486000000000000265,-3.828044410788346674
0.487000000000000266,-3.785999832595352110
0.488000000000000267,-3.744187468749867520
0.489000000000000268,-3.702612723927062977
0.490000000000000269,-3.661280870259471243
0.491000000000000270,-3.620197045668090308
0.492000000000000270,-3.579366252363203493
0.493000000000000271,-3.538793355511095307
0.494000000000000272,-3.498483082062517013
0.495000000000000273,-3.458440019738837634
0.496000000000000274,-3.418668616171783192
0.497000000000000275,-3.379173178192472982
0.498000000000000276,-3.339957871265633482
0.499000000000000277,-3.301026719064670711
0.500000000000000222,-3.262383603183356406
0.501000000000000334,-3.224032262979876329
0.502000000000000224,-3.185976295548981430
0.503000000000000336,-3.148219155817883141
0.504000000000000226,-3.110764156761822719
0.505000000000000338,-3.073614469734835097
0.506000000000000227,-3.036773124911805954
0.507000000000000339,-3.000243011837310458
0.508000000000000229,-2.964026880077409665
0.509000000000000341,-2.928127339970004961
0.510000000000000231,-2.892546863470017549
0.511000000000000343,-2.857287785085032894
0.512000000000000233,-2.822352302897754406
0.513000000000000345,-2.787742479671127427
0.514000000000000234,-2.753460244032535531
0.515000000000000346,-2.719507391732962187
0.516000000000000236,-2.685885586977741823
0.517000000000000348,-2.652596363824957226
0.518000000000000238,-2.619641127648113077
0.519000000000000350,-2.587021156659367271
0.520000000000000240,-2.554737603490051079
0.521000000000000352,-2.522791496824984936
0.522000000000000242,-2.491183743087333369
0.523000000000000353,-2.459915128170748311
0.524000000000000243,-2.428986319215671763
0.525000000000000355,-2.398397866426695835
0.526000000000000245,-2.368150204928020308
0.527000000000000357,-2.338243656653990588
0.528000000000000247,-2.308678432272022185
0.529000000000000359,-2.279454633134965658
0.530000000000000249,-2.250572253260379352
0.531000000000000361,-2.222031181333955274
0.532000000000000250,-2.193831202734705332
0.533000000000000362,-2.165972001579290040
0.534000000000000252,-2.138453162783238160
0.535000000000000364,-2.111274174136652526
0.536000000000000254,-2.084434428392265115
0.537000000000000366,-2.057933225363518304
0.538000000000000256,-2.031769774030819153
0.539000000000000368,-2.005943194653688089
0.540000000000000258,-1.980452520887127532
0.541000000000000369,-1.955296701900067546
0.542000000000000259,-1.930474604494351265
0.543000000000000371,-1.905985015222296797
0.544000000000000261,-1.881826642501344127
0.545000000000000373,-1.857998118724071279
0.546000000000000263,-1.834498002362150215
0.547000000000000375,-1.811324780062624651
0.548000000000000265,-1.788476868735331182
0.549000000000000377,-1.765952617629852783
0.550000000000000266,-1.743750310400970616
0.551000000000000378,-1.721868167161201058
0.552000000000000268,-1.700304346519387222
0.553000000000000380,-1.679056947604137040
0.554000000000000270,-1.658124012071162667
0.555000000000000382,-1.637503526093382789
0.556000000000000272,-1.617193422333029762
0.557000000000000384,-1.597191581894643608
0.558000000000000274,-1.577495836258360873
0.559000000000000385,-1.558103969192461413
0.560000000000000275,-1.539013718644636652
0.561000000000000387,-1.520222778611135750
0.562000000000000277,-1.501728800983210599
0.563000000000000389,-1.483529397370223935
0.564000000000000279,-1.465622140898879211
0.565000000000000391,-1.448004567988013580
0.566000000000000281,-1.430674180098497006
0.567000000000000393,-1.413628445457767224
0.568000000000000282,-1.396864800758655267
0.569000000000000394,-1.380380652832015498
0.570000000000000284,-1.364173380292960536
0.571000000000000396,-1.348240335160283632
0.572000000000000286,-1.332578844448909283
0.573000000000000398,-1.317186211735006607
0.574000000000000288,-1.302059718693690193
0.575000000000000400,-1.287196626609053762
0.576000000000000290,-1.272594177856414488
0.577000000000000401,-1.258249597356640326
0.578000000000000291,-1.244160094002493278
0.579000000000000403,-1.230322862056873578
0.580000000000000293,-1.216735082522985456
0.581000000000000405,-1.203393924486337641
0.582000000000000295,-1.190296546428651903
0.583000000000000407,-1.177440097513640094
0.584000000000000297,-1.164821718844741838
0.585000000000000409,-1.152438544694867062
0.586000000000000298,-1.140287703708245060
0.587000000000000410,-1.128366320074452922
0.588000000000000300,-1.116671514674791643
0.589000000000000412,-1.105200406201083396
0.590000000000000302,-1.093950112247100037
0.591000000000000414,-1.082917750372776489
0.592000000000000304,-1.072100439141361106
0.593000000000000416,-1.061495299129716630
0.594000000000000306,-1.051099453912009540
0.595000000000000417,-1.040910031016953896
0.596000000000000307,-1.030924162858865234
0.597000000000000419,-1.021138987642782325
0.598000000000000309,-1.011551650243893707
0.599000000000000421,-1.002159303061494589
0.600000000000000311,-0.992959106847835060
0.601000000000000423,-0.983948231512019378
0.602000000000000313,-0.975123856899368646
0.603000000000000425,-0.966483173546395236
0.604000000000000314,-0.958023383411863216
0.605000000000000426,-0.949741700584047832
0.606000000000000316,-0.941635351964688061
0.607000000000000428,-0.933701577929783255
0.608000000000000318,-0.925937632967712809
0.609000000000000430,-0.918340786294856715
0.610000000000000320,-0.910908322449162200
0.611000000000000432,-0.903637541861913696
0.612000000000000322,-0.896525761408086153
0.613000000000000433,-0.889570314935581918
0.614000000000000323,-0.882768553773737530
0.615000000000000435,-0.876117847221402180
0.616000000000000325,-0.869615583014940130
0.617000000000000437,-0.863259167776520564
0.618000000000000327,-0.857046027443032044
0.619000000000000439,-0.850973607675936328
0.620000000000000329,-0.845039374252470998
0.621000000000000441,-0.839240813438490774
0.622000000000000330,-0.833575432343322431
0.623000000000000442,-0.828040759256975178
0.624000000000000332,-0.822634343970037540
0.625000000000000444,-0.817353758076641790
0.626000000000000334,-0.812196595260787801
0.627000000000000446,-0.807160471566414905
0.628000000000000336,-0.802243025651532271
0.629000000000000448,-0.797441919026760981
0.630000000000000338,-0.792754836278624975
0.631000000000000449,-0.788179485277909042
0.632000000000000339,-0.783713597373443038
0.633000000000000451,-0.779354927571618061
0.634000000000000341,-0.775101254701971998
0.635000000000000453,-0.770950381569183829
0.636000000000000343,-0.766900135091754254
0.637000000000000455,-0.762948366427757985
0.638000000000000345,-0.759092951087924295
0.639000000000000457,-0.755331789036380541
0.640000000000000346,-0.751662804779387184
0.641000000000000458,-0.748083947442336639
0.642000000000000348,-0.744593190835347474
0.643000000000000460,-0.741188533507730507
0.644000000000000350,-0.737867998791646662
0.645000000000000462,-0.734629634835227252
0.646000000000000352,-0.731471514625456565
0.647000000000000464,-0.728391736001094636
0.648000000000000353,-0.725388421655943194
0.649000000000000465,-0.722459719132689249
0.650000000000000355,-0.719603800807648963
0.651000000000000467,-0.716818863866635736
0.652000000000000357,-0.714103130272266684
0.653000000000000469,-0.711454846722907819
0.654000000000000359,-0.708872284603590641
0.655000000000000471,-0.706353739929067692
0.656000000000000361,-0.703897533279345122
0.657000000000000473,-0.701502009727859588
0.658000000000000362,-0.699165538762600347
0.659000000000000474,-0.696886514200368845
0.660000000000000364,-0.694663354094450569
0.661000000000000476,-0.692494500635888799
0.662000000000000366,-0.690378420048609276
0.663000000000000478,-0.688313602478622388
