# Gypsum-001_TANNIC-ARM-ANION-AC
# h[nm],U(h)[kJ/mol]
0.149999999999999994,123.935970650009011251
0.150999999999999995,121.293199228640148135
0.151999999999999996,119.436399226589671230
0.152999999999999997,117.803770044519140470
0.153999999999999998,116.167212222981333980
0.154999999999999999,114.465168907822686606
0.156000000000000000,112.708672511204667899
0.157000000000000001,110.931751498235300346
0.158000000000000002,109.167810748544610533
0.159000000000000002,107.440506018165024216
0.160000000000000003,105.762134041656238992
0.161000000000000004,104.135445371762330069
0.162000000000000005,102.556599473444336468
0.163000000000000006,101.018090195647573637
0.164000000000000007,99.511123932022101712
0.165000000000000008,98.027299282490176324
0.166000000000000009,96.559625977386659201
0.167000000000000010,95.103003915896181297
0.168000000000000010,93.654306216266292040
0.169000000000000011,92.212201769126309614
0.170000000000000012,90.776830209149352413
0.171000000000000013,89.349415452727768638
0.172000000000000014,87.931878353294010253
0.173000000000000015,86.526487130280813176
0.174000000000000016,85.135566890012626118
0.175000000000000017,83.761276707833900446
0.176000000000000018,82.405453849434792346
0.177000000000000018,81.069519063084754862
0.178000000000000019,79.754433739953583427
0.179000000000000020,78.460698447291690627
0.180000000000000021,77.188382320929420644
0.181000000000000022,75.937173602901310687
0.182000000000000023,74.706442876877289905
0.183000000000000024,73.495312031783356588
0.184000000000000025,72.302723493497779828
0.185000000000000026,71.127505688671192274
0.186000000000000026,69.968431973767678755
0.187000000000000027,68.824271341519363432
0.188000000000000028,67.693830095955561887
0.189000000000000029,66.575984372358675500
0.190000000000000030,65.469703886539875271
0.191000000000000031,64.374067650959958087
0.192000000000000032,63.288272617993605706
0.193000000000000033,62.211636327593090812
0.194000000000000034,61.143594670838311345
0.195000000000000034,60.083695853100529405
0.196000000000000035,59.031591568766160094
0.197000000000000036,57.987026298731919383
0.198000000000000037,56.949825524448371539
0.199000000000000038,55.919883527806327095
0.200000000000000039,54.897151321968109983
0.201000000000000040,53.881625139678568814
0.202000000000000041,52.873335796311415891
0.203000000000000042,51.872339147205160259
0.204000000000000042,50.878707773917327017
0.205000000000000043,49.892523962240304058
0.206000000000000044,48.913873975901822178
0.207000000000000045,47.942843583112370709
0.208000000000000046,46.979514757502570887
0.209000000000000047,46.023963449329208686
0.210000000000000048,45.076258305842330287
0.211000000000000049,44.136460210108701574
0.212000000000000050,43.204622504126902527
0.213000000000000050,42.280791763570775288
0.214000000000000051,41.365008996881321934
0.215000000000000052,40.457311149729811461
0.216000000000000053,39.557732806247315693
0.217000000000000054,38.666307990134406225
0.218000000000000055,37.783071981214646939
0.219000000000000056,36.908063075675975995
0.220000000000000057,36.041324230746269563
0.221000000000000058,35.182904546565609394
0.222000000000000058,34.332860549301550179
0.223000000000000059,33.491257249948780839
0.224000000000000060,32.658168962640317545
0.225000000000000061,31.833679874621378048
0.226000000000000062,31.017884367272699819
0.227000000000000063,30.210887093730981690
0.228000000000000064,29.412802823777404626
0.229000000000000065,28.623756070801228191
0.230000000000000066,27.843880518869021046
0.231000000000000066,27.073318270313887268
0.232000000000000067,26.312218935888097349
0.233000000000000068,25.560738590482110055
0.234000000000000069,24.819038617787334999
0.235000000000000070,24.087284467152436207
0.236000000000000071,23.365644345332825083
0.237000000000000072,22.654287864933451146
0.238000000000000073,21.953384670166620651
0.239000000000000073,21.263103059152452801
0.240000000000000074,20.583608620432706005
0.241000000000000075,19.915062899706185817
0.242000000000000076,19.257622111064247150
0.243000000000000077,18.611435905249162914
0.244000000000000078,17.976646205709528203
0.245000000000000079,17.353386121511441331
0.246000000000000080,16.741778944506535254
0.247000000000000081,16.141937236573721037
0.248000000000000081,15.553962011257855380
0.249000000000000082,14.977942012733933552
0.250000000000000111,14.413953093738120614
0.251000000000000112,13.862057692931596620
0.252000000000000113,13.322304411101168142
0.253000000000000114,12.794727684654608524
0.254000000000000115,12.279347554033247292
0.255000000000000115,11.776169523940438921
0.256000000000000116,11.285184511665454110
0.257000000000000117,10.806368879263990479
0.258000000000000118,10.339684544934055310
0.259000000000000119,9.885079168591463628
0.260000000000000120,9.442486406397165410
0.261000000000000121,9.011826228813269779
0.262000000000000122,8.593005296656766490
0.263000000000000123,8.185917389575848802
0.264000000000000123,7.790443881383867897
0.265000000000000124,7.406454256746691556
0.266000000000000125,7.033806663821965621
0.267000000000000126,6.672348497589948302
0.268000000000000127,6.321917008787075076
0.269000000000000128,5.982339933553332045
0.270000000000000129,5.653436139124694115
0.271000000000000130,5.335016281140019245
0.272000000000000131,5.026883468383543274
0.273000000000000131,4.728833931044837513
0.274000000000000132,4.440657688845560003
0.275000000000000133,4.162139215652696400
0.276000000000000134,3.893058097468994561
0.277000000000000135,3.633189680961057100
0.278000000000000136,3.382305709950375494
0.279000000000000137,3.140174947552915263
0.280000000000000138,2.906563781905599164
0.281000000000000139,2.681236813662186691
0.282000000000000139,2.463957423676370162
0.283000000000000140,2.254488319514234895
0.284000000000000141,2.052592059652513790
0.285000000000000142,1.858031554421034404
0.286000000000000143,1.670570542938754954
0.287000000000000144,1.489974045471639474
0.288000000000000145,1.316008790806913797
0.289000000000000146,1.148443618393927723
0.290000000000000147,0.987049855143900645
0.291000000000000147,0.831601666913017068
0.292000000000000148,0.681876384812550418
0.293000000000000149,0.537654806599280777
0.294000000000000150,0.398721473497260004
0.295000000000000151,0.264864922890078680
0.296000000000000152,0.135877917401004911
0.297000000000000153,0.011557650947015930
0.298000000000000154,-0.108294067587304532
0.299000000000000155,-0.223870652358630184
0.300000000000000155,-0.335360599515511837
0.301000000000000156,-0.442947366313498514
0.302000000000000157,-0.546809269588568569
0.303000000000000158,-0.647119402759418927
0.304000000000000159,-0.744045570512782417
0.305000000000000160,-0.837750240314085959
0.306000000000000161,-0.928390509879819747
0.307000000000000162,-1.016118089746077091
0.308000000000000163,-1.101079300070121336
0.309000000000000163,-1.183415080808159825
0.310000000000000164,-1.263261014422086381
0.311000000000000165,-1.340747360280560851
0.312000000000000166,-1.415999099935225436
0.313000000000000167,-1.489135992470458358
0.314000000000000168,-1.560272639144832274
0.315000000000000169,-1.629518556563996246
0.316000000000000170,-1.696978257647799193
0.317000000000000171,-1.762751339678536144
0.318000000000000171,-1.826932578742656688
0.319000000000000172,-1.889612029904416790
0.320000000000000173,-1.950875132476513674
0.321000000000000174,-2.010802819779998973
0.322000000000000175,-2.069471632813161488
0.323000000000000176,-2.126953837276582604
0.324000000000000177,-2.183317543429128982
0.325000000000000178,-2.238626828276881309
0.326000000000000179,-2.292941859624374246
0.327000000000000179,-2.346319021543999295
0.328000000000000180,-2.398811040845946430
0.329000000000000181,-2.450467114156922754
0.330000000000000182,-2.501333035240928204
0.331000000000000183,-2.551451322220260387
0.332000000000000184,-2.600861344378658124
0.333000000000000185,-2.649599448251785283
0.334000000000000186,-2.697699082732762488
0.335000000000000187,-2.745190922942043699
0.336000000000000187,-2.792102992631996905
0.337000000000000188,-2.838460784916291058
0.338000000000000189,-2.884287381133860073
0.339000000000000190,-2.929603567675289622
0.340000000000000191,-2.974427950617163141
0.341000000000000192,-3.018777068026739840
0.342000000000000193,-3.062665499815101278
0.343000000000000194,-3.106105975032282807
0.344000000000000195,-3.149109476511772421
0.345000000000000195,-3.191685342785893109
0.346000000000000196,-3.233841367205779527
0.347000000000000197,-3.275583894212020564
0.348000000000000198,-3.316917912713184258
0.349000000000000199,-3.357847146539954419
0.350000000000000200,-3.398374141952617666
0.351000000000000201,-3.438500352188704312
0.352000000000000202,-3.478226219046149481
0.353000000000000203,-3.517551251505396159
0.354000000000000203,-3.556474101401035703
0.355000000000000204,-3.594992636160398547
0.356000000000000205,-3.633104008632702886
0.357000000000000206,-3.670804724038210232
0.358000000000000207,-3.708090704071600463
0.359000000000000208,-3.744957348198939773
0.360000000000000209,-3.781399592191637460
0.361000000000000210,-3.817411963944485898
0.362000000000000210,-3.852988636628560837
0.363000000000000211,-3.888123479232490354
0.364000000000000212,-3.922810104548468679
0.365000000000000213,-3.957041914661494353
0.366000000000000214,-3.990812144002485073
0.367000000000000215,-4.024113900027345814
0.368000000000000216,-4.056940201585797823
0.369000000000000217,-4.089284015044446718
0.370000000000000218,-4.121138288229889035
0.371000000000000218,-4.152495982257881302
0.372000000000000219,-4.183350101315315150
0.373000000000000220,-4.213693720461838765
0.374000000000000221,-4.243520011517950330
0.375000000000000222,-4.272822267106224814
0.376000000000000223,-4.301593922912305246
0.377000000000000224,-4.329828578231422753
0.378000000000000225,-4.357520014865977842
0.379000000000000226,-4.384662214438789007
0.380000000000000226,-4.411249374186086314
0.381000000000000227,-4.437275921292991754
0.382000000000000228,-4.462736525833716605
0.383000000000000229,-4.487626112377279597
0.384000000000000230,-4.511939870318537160
0.385000000000000231,-4.535673262993196175
0.386000000000000232,-4.558822035634019443
0.387000000000000233,-4.581382222224343437
0.388000000000000234,-4.603350151303502891
0.389000000000000234,-4.624722450777563054
0.390000000000000235,-4.645496051787151082
0.391000000000000236,-4.665668191682970090
0.392000000000000237,-4.685236416157939843
0.393000000000000238,-4.704198580583649481
0.394000000000000239,-4.722552850597139695
0.395000000000000240,-4.740297701982780332
0.396000000000000241,-4.757431919892446182
0.397000000000000242,-4.773954597445660752
0.398000000000000242,-4.789865133750178749
0.399000000000000243,-4.805163231381708755
0.400000000000000244,-4.819848893360415332
0.401000000000000245,-4.833922419660154901
0.402000000000000246,-4.847384403285098564
0.403000000000000247,-4.860235725947168461
0.404000000000000248,-4.872477553376127091
0.405000000000000249,-4.884111330293063880
0.406000000000000250,-4.895138775076562254
0.407000000000000250,-4.905561874149687362
0.408000000000000251,-4.915382876114611221
0.409000000000000252,-4.924604285660526770
0.410000000000000253,-4.933228857269278400
0.411000000000000254,-4.941259588742062725
0.412000000000000255,-4.948699714569261943
0.413000000000000256,-4.955552699164661234
0.414000000000000257,-4.961822229983869015
0.415000000000000258,-4.967512210546120244
0.416000000000000258,-4.972626753377278774
0.417000000000000259,-4.977170172891190347
0.418000000000000260,-4.981146978225356570
0.419000000000000261,-4.984561866046191447
0.420000000000000262,-4.987419713338036686
0.421000000000000263,-4.989725570189539106
0.422000000000000264,-4.991484652589807780
0.423000000000000265,-4.992702335246359091
0.424000000000000266,-4.993384144435863092
0.425000000000000266,-4.993535750897989622
0.426000000000000267,-4.993162962782074388
0.427000000000000268,-4.992271718655510782
0.428000000000000269,-4.990868080582214539
0.429000000000000270,-4.988958227278864399
0.430000000000000271,-4.986548447355970026
0.431000000000000272,-4.983645132650378784
0.432000000000000273,-4.980254771655123314
0.433000000000000274,-4.976383943052137049
0.434000000000000274,-4.972039309352775049
0.435000000000000275,-4.967227610650627234
0.436000000000000276,-4.961955658490692755
0.437000000000000277,-4.956230329858487771
0.438000000000000278,-4.950058561292311587
0.439000000000000279,-4.943447343121486703
0.440000000000000280,-4.936403713832970830
0.441000000000000281,-4.928934754568476961
0.442000000000000282,-4.921047583753862753
0.443000000000000282,-4.912749351862155223
0.444000000000000283,-4.904047236311481761
0.445000000000000284,-4.894948436498660627
0.446000000000000285,-4.885460168969085082
0.447000000000000286,-4.875589662723345263
0.448000000000000287,-4.865344154660517617
0.449000000000000288,-4.854730885158245357
0.450000000000000289,-4.843757093789109902
0.451000000000000290,-4.832430015172905158
0.452000000000000290,-4.820756874964137850
0.453000000000000291,-4.808744885973823102
0.454000000000000292,-4.796401244424684407
0.455000000000000293,-4.783733126338514552
0.456000000000000294,-4.770747684054477133
0.457000000000000295,-4.757452042876948894
0.458000000000000296,-4.743853297851305939
0.459000000000000297,-4.729958510666149252
0.460000000000000298,-4.715774706680140760
0.461000000000000298,-4.701308872071728651
0.462000000000000299,-4.686567951109822161
0.463000000000000300,-4.671558843543470729
0.464000000000000301,-4.656288402108555324
0.465000000000000302,-4.640763430149394075
0.466000000000000303,-4.624990679353102152
0.467000000000000304,-4.608976847594611570
0.468000000000000305,-4.592728576890067416
0.469000000000000306,-4.576252451456370274
0.470000000000000306,-4.559554995874678163
0.471000000000000307,-4.542642673355407723
0.472000000000000308,-4.525521884102607473
0.473000000000000309,-4.508198963775268631
0.474000000000000310,-4.490680182043247370
0.475000000000000311,-4.472971741235512333
0.476000000000000312,-4.455079775078349513
0.477000000000000313,-4.437010347521184173
0.478000000000000314,-4.418769451647681201
0.479000000000000314,-4.400363008669853748
0.480000000000000315,-4.381796867002793583
0.481000000000000316,-4.363076801417805406
0.482000000000000317,-4.344208512271592326
0.483000000000000318,-4.325197624809298702
0.484000000000000319,-4.306049688539115294
0.485000000000000320,-4.286770176676268918
0.486000000000000321,-4.267364485654188577
0.487000000000000322,-4.247837934700696039
0.488000000000000322,-4.228195765477014589
0.489000000000000323,-4.208443141777623353
0.490000000000000324,-4.188585149288753584
0.491000000000000325,-4.168626795403538310
0.492000000000000326,-4.148573009091757413
0.493000000000000327,-4.128428640822288109
0.494000000000000328,-4.108198462536198470
0.495000000000000329,-4.087887167668676547
0.496000000000000330,-4.067499371217808246
0.497000000000000330,-4.047039609858519960
0.498000000000000331,-4.026512342099672459
0.499000000000000332,-4.005921948482757955
0.500000000000000333,-3.985272731820337810
0.501000000000000334,-3.964568917472504950
0.502000000000000335,-3.943814653659847291
0.503000000000000336,-3.923014011811173596
0.504000000000000337,-3.902170986944479836
0.505000000000000338,-3.881289498079587563
0.506000000000000338,-3.860373388680970574
0.507000000000000339,-3.839426427129296826
0.508000000000000340,-3.818452307220204123
0.509000000000000341,-3.797454648689046142
0.510000000000000342,-3.776436997760080239
0.511000000000000343,-3.755402827718923309
0.512000000000000344,-3.734355539506881705
0.513000000000000345,-3.713298462335973049
0.514000000000000346,-3.692234854323438675
0.515000000000000346,-3.671167903144477940
0.516000000000000347,-3.650100726702132814
0.517000000000000348,-3.629036373813241845
0.518000000000000349,-3.607977824909264886
0.519000000000000350,-3.586927992751073102
0.520000000000000351,-3.565889723156581148
0.521000000000000352,-3.544865795740335557
0.522000000000000353,-3.523858924664030390
0.523000000000000353,-3.502871759397061080
0.524000000000000354,-3.481906885486291792
0.525000000000000355,-3.460966825334062413
0.526000000000000356,-3.440054038983691775
0.527000000000000357,-3.419170924911684839
0.528000000000000358,-3.398319820825784543
0.529000000000000359,-3.377503004468260794
0.530000000000000360,-3.356722694423573294
0.531000000000000361,-3.335981050929845537
0.532000000000000361,-3.315280176693402581
0.533000000000000362,-3.294622117705777065
0.534000000000000363,-3.274008864062557755
0.535000000000000364,-3.253442350783481096
0.536000000000000365,-3.232924458633215092
0.537000000000000366,-3.212457014942317279
0.538000000000000367,-3.192041794427731283
0.539000000000000368,-3.171680520012537308
0.540000000000000369,-3.151374863644227808
0.541000000000000369,-3.131126447111275635
0.542000000000000370,-3.110936842857383589
0.543000000000000371,-3.090807574793128509
0.544000000000000372,-3.070740119104519383
0.545000000000000373,-3.050735905058149733
0.546000000000000374,-3.030796315802526397
0.547000000000000375,-3.010922689165274058
0.548000000000000376,-2.991116318445890876
0.549000000000000377,-2.971378453203723069
0.550000000000000377,-2.951710300040883084
0.551000000000000378,-2.932113023379796068
0.552000000000000379,-2.912587746235216990
0.553000000000000380,-2.893135550980328929
0.554000000000000381,-2.873757480106772455
0.555000000000000382,-2.854454536978443091
0.556000000000000383,-2.835227686578666972
0.557000000000000384,-2.816077856250800426
0.558000000000000385,-2.797005936431856021
0.559000000000000385,-2.778012781379137319
0.560000000000000386,-2.759099209889658511
0.561000000000000387,-2.740266006012215261
0.562000000000000388,-2.721513919751961108
0.563000000000000389,-2.702843667767418356
0.564000000000000390,-2.684255934059728510
0.565000000000000391,-2.665751370654107610
0.566000000000000392,-2.647330598273374136
0.567000000000000393,-2.628994207003505501
0.568000000000000393,-2.610742756951068611
0.569000000000000394,-2.592576778892548450
0.570000000000000395,-2.574496774915474795
0.571000000000000396,-2.556503219051250664
0.572000000000000397,-2.538596557899742479
0.573000000000000398,-2.520777211245488036
0.574000000000000399,-2.503045572665567153
0.575000000000000400,-2.485402010129063477
0.576000000000000401,-2.467846866588115695
0.577000000000000401,-2.450380460560605211
0.578000000000000402,-2.433003086704343954
0.579000000000000403,-2.415715016382875557
0.580000000000000404,-2.398516498222900584
0.581000000000000405,-2.381407758663212526
0.582000000000000406,-2.364389002495335124
0.583000000000000407,-2.347460413395704215
0.584000000000000408,-2.330622154449579764
0.585000000000000409,-2.313874368666604120
0.586000000000000409,-2.297217179488068695
0.587000000000000410,-2.280650691285985410
0.588000000000000411,-2.264174989853882547
0.589000000000000412,-2.247790142889522169
0.590000000000000413,-2.231496200469428981
0.591000000000000414,-2.215293195515395830
0.592000000000000415,-2.199181144252995601
0.593000000000000416,-2.183160046662094622
0.594000000000000417,-2.167229886919479931
0.595000000000000417,-2.151390633833726529
0.596000000000000418,-2.135642241272154074
0.597000000000000419,-2.119984648580236719
0.598000000000000420,-2.104417780993234732
0.599000000000000421,-2.088941550040362749
0.600000000000000422,-2.073555853941399629
0.601000000000000423,-2.058260577995896679
0.602000000000000424,-2.043055594965031752
0.603000000000000425,-2.027940765446194060
0.604000000000000425,-2.012915938240362301
0.605000000000000426,-1.997980950712356485
0.606000000000000427,-1.983135629144104239
0.607000000000000428,-1.968379789080825004
0.608000000000000429,-1.953713235670502701
0.609000000000000430,-1.939135763996388206
0.610000000000000431,-1.924647159402932406
0.611000000000000432,-1.910247197814995967
0.612000000000000433,-1.895935646050527668
0.613000000000000433,-1.881712262126814084
