# Gypsum-001_BSAI2
# h[nm],U(h)[kJ/mol]
0.149999999999999994,143.065589476852380812
0.150999999999999995,141.190709602778440512
0.151999999999999996,139.631249174374772792
0.152999999999999997,138.169322678533461612
0.153999999999999998,136.720260093575376459
0.154999999999999999,135.263500238281039856
0.156000000000000000,133.804770431445803069
0.157000000000000001,132.356843352067897968
0.158000000000000002,130.930899938481786648
0.159000000000000002,129.533614947919829774
0.160000000000000003,128.167064021988466038
0.161000000000000004,126.829800113053664745
0.162000000000000005,125.518215706640916096
0.163000000000000006,124.227765641082129378
0.164000000000000007,122.953886993932428595
0.165000000000000008,121.692592312645757602
0.166000000000000009,120.440779068570961385
0.167000000000000010,119.196322696806788599
0.168000000000000010,117.958022380275764363
0.169000000000000011,116.725459638211333413
0.170000000000000012,115.498816658292895454
0.171000000000000013,114.278687930538580986
0.172000000000000014,113.065906951749596487
0.173000000000000015,111.861400292458171180
0.174000000000000016,110.666074241103999043
0.175000000000000017,109.480734326390205524
0.176000000000000018,108.306034896057482797
0.177000000000000018,107.142454197497954738
0.178000000000000019,105.990289689925631933
0.179000000000000020,104.849668301026071049
0.180000000000000021,103.720566767509765782
0.181000000000000022,102.602837873609161079
0.182000000000000023,101.496239182438927173
0.183000000000000024,100.400461644672120087
0.184000000000000025,99.315156204592554445
0.185000000000000026,98.239957169269501946
0.186000000000000026,97.174501645706158115
0.187000000000000027,96.118444780107026304
0.188000000000000028,95.071470858415707994
0.189000000000000029,94.033300558758043053
0.190000000000000030,93.003694797792405780
0.191000000000000031,91.982455698454117510
0.192000000000000032,90.969425240046064118
0.193000000000000033,89.964482145787911804
0.194000000000000034,88.967537528973863914
0.195000000000000034,87.978529766254311539
0.196000000000000035,86.997419002980493019
0.197000000000000036,86.024181627139256534
0.198000000000000037,85.058804979785463729
0.199000000000000038,84.101282504425483921
0.200000000000000039,83.151609477799027559
0.201000000000000040,82.209779411370035973
0.202000000000000041,81.275781167290119811
0.203000000000000042,80.349596794827533586
0.204000000000000042,79.431200063059122840
0.205000000000000043,78.520555642518829131
0.206000000000000044,77.617618871824888060
0.207000000000000045,76.722336034304731811
0.208000000000000046,75.834645063494235728
0.209000000000000047,74.954476594298483860
0.210000000000000048,74.081755277794314907
0.211000000000000049,73.216401281409545732
0.212000000000000050,72.358331901883758519
0.213000000000000050,71.507463225428907094
0.214000000000000051,70.663711777372355982
0.215000000000000052,69.826996111863749661
0.216000000000000053,68.997238300625923557
0.217000000000000054,68.174365287947779279
0.218000000000000055,67.358310086954418239
0.219000000000000056,66.549012799483179492
0.220000000000000057,65.746421448540075971
0.221000000000000058,64.950492618242392950
0.222000000000000058,64.161191901334717613
0.223000000000000059,63.378494158790793733
0.224000000000000060,62.602383599700068828
0.225000000000000061,61.832853692616524199
0.226000000000000062,61.069906921860066973
0.227000000000000063,60.313554403966669781
0.228000000000000064,59.563815380634494545
0.229000000000000065,58.820716605175995539
0.230000000000000066,58.084291639717470446
0.231000000000000066,57.354580080254514485
0.232000000000000067,56.631626726227224822
0.233000000000000068,55.915480710582222912
0.234000000000000069,55.206194605389285357
0.235000000000000070,54.503823517026127377
0.236000000000000071,53.808424183778228667
0.237000000000000072,53.120054087458285608
0.238000000000000073,52.438770589367095454
0.239000000000000073,51.764630099620589476
0.240000000000000074,51.097687287581415205
0.241000000000000075,50.437994339879551831
0.242000000000000076,49.785600271298505959
0.243000000000000077,49.140550292657451337
0.244000000000000078,48.502885238743417062
0.245000000000000079,47.872641058349799437
0.246000000000000080,47.249848367561924078
0.247000000000000081,46.634532066599909683
0.248000000000000081,46.026711019786489487
0.249000000000000082,45.426397797548801805
0.250000000000000111,44.833598478790271713
0.251000000000000112,44.248312511476427744
0.252000000000000113,43.670532628863348634
0.253000000000000114,43.100244818457184692
0.254000000000000115,42.537428340520463621
0.255000000000000115,41.982055792732261068
0.256000000000000116,41.434093217459562197
0.257000000000000117,40.893500248000087538
0.258000000000000118,40.360230290108880524
0.259000000000000119,39.834230735114481092
0.260000000000000120,39.315443200963031245
0.261000000000000121,38.803803797593779734
0.262000000000000122,38.299243413142974646
0.263000000000000123,37.801688017590770130
0.264000000000000123,37.311058980603711177
0.265000000000000124,36.827273400479569432
0.266000000000000125,36.350244441267662410
0.267000000000000126,35.879881675315388634
0.268000000000000127,35.416091428674249642
0.269000000000000128,34.958777126987001793
0.270000000000000129,34.507839639667359677
0.271000000000000130,34.063177620372698584
0.272000000000000131,33.624687841959122636
0.273000000000000131,33.192265524291975964
0.274000000000000132,32.765804653465167462
0.275000000000000133,32.345198291157018389
0.276000000000000134,31.930338873017255708
0.277000000000000135,31.521118495140974858
0.278000000000000136,31.117429187836467719
0.279000000000000137,30.719163176038556173
0.280000000000000138,30.326213125853787034
0.281000000000000139,29.938472376850349121
0.282000000000000139,29.555835159822994029
0.283000000000000140,29.178196799871585654
0.284000000000000141,28.805453904731820103
0.285000000000000142,28.437504538387411657
0.286000000000000143,28.074248380075609077
0.287000000000000144,27.715586868872343018
0.288000000000000145,27.361423334109510108
0.289000000000000146,27.011663111935810377
0.290000000000000147,26.666213648384164969
0.291000000000000147,26.324984589353402242
0.292000000000000148,25.987887857949914405
0.293000000000000149,25.654837719667607843
0.294000000000000150,25.325750835910433523
0.295000000000000151,25.000546306383132134
0.296000000000000152,24.679145700891876203
0.297000000000000153,24.361473081108513838
0.298000000000000154,24.047455012859046519
0.299000000000000155,23.737020569501225964
0.300000000000000155,23.430101326955895757
0.301000000000000156,23.126631350954522048
0.302000000000000157,22.826547177058643001
0.303000000000000158,22.529787783999932316
0.304000000000000159,22.236294560878398840
0.305000000000000160,21.946011268744321399
0.306000000000000161,21.658883997075463412
0.307000000000000162,21.374861115645771292
0.308000000000000163,21.093893222265030829
0.309000000000000163,20.815933086851551082
0.310000000000000164,20.540935592281503119
0.311000000000000165,20.268857672439363427
0.312000000000000166,19.999658247874613437
0.313000000000000167,19.733298159450118447
0.314000000000000168,19.469740100347308953
0.315000000000000169,19.208948546773704891
0.316000000000000170,18.950889687697948460
0.317000000000000171,18.695531353918010353
0.318000000000000171,18.442842946748566391
0.319000000000000172,18.192795366594104678
0.320000000000000173,17.945360941655820852
0.321000000000000174,17.700513357001675274
0.322000000000000175,17.458227584211140737
0.323000000000000176,17.218479811788846234
0.324000000000000177,16.981247376524443382
0.325000000000000178,16.746508695959867907
0.326000000000000179,16.514243202109678776
0.327000000000000179,16.284431276564966140
0.328000000000000180,16.057054187097410392
0.329000000000000181,15.832094025866203069
0.330000000000000182,15.609533649317700821
0.331000000000000183,15.389356619855348640
0.332000000000000184,15.171547149345892436
0.333000000000000185,14.956090044516901827
0.334000000000000186,14.742970654290271426
0.335000000000000187,14.532174819086751683
0.336000000000000187,14.323688822127417453
0.337000000000000188,14.117499342749789903
0.338000000000000189,13.913593411748092166
0.339000000000000190,13.711958368740113201
0.340000000000000191,13.512581821556375772
0.341000000000000192,13.315451607641065834
0.342000000000000193,13.120555757448485679
0.343000000000000194,12.927882459813545779
0.344000000000000195,12.737420029270470678
0.345000000000000195,12.549156875288904445
0.346000000000000196,12.363081473393521037
0.347000000000000197,12.179182338129376006
0.348000000000000198,11.997447997832225042
0.349000000000000199,11.817866971160546186
0.350000000000000200,11.640427745343496113
0.351000000000000201,11.465118756097087527
0.352000000000000202,11.291928369159236922
0.353000000000000203,11.120844863392811419
0.354000000000000203,10.951856415404723322
0.355000000000000204,10.784951085628307510
0.356000000000000205,10.620116805815445815
0.357000000000000206,10.457341367884406935
0.358000000000000207,10.296612414069489461
0.359000000000000208,10.137917428318017343
0.360000000000000209,9.981243728880718535
0.361000000000000210,9.826578462041709372
0.362000000000000210,9.673908596934593263
0.363000000000000211,9.523220921391974514
0.364000000000000212,9.374502038776146406
0.365000000000000213,9.227738365739581283
0.366000000000000214,9.082916130864791882
0.367000000000000215,8.940021374133959142
0.368000000000000216,8.799039947179764454
0.369000000000000217,8.659957514270184120
0.370000000000000218,8.522759553980815639
0.371000000000000218,8.387431361509836591
0.372000000000000219,8.253958051591686385
0.373000000000000220,8.122324561967015910
0.374000000000000221,7.992515657367702531
0.375000000000000222,7.864515933977108020
0.376000000000000223,7.738309824326892183
0.377000000000000224,7.613881602593433051
0.378000000000000225,7.491215390257868201
0.379000000000000226,7.370295162095499286
0.380000000000000226,7.251104752461287717
0.381000000000000227,7.133627861839899609
0.382000000000000228,7.017848063629822164
0.383000000000000229,6.903748811132560448
0.384000000000000230,6.791313444719152770
0.385000000000000231,6.680525199147598236
0.386000000000000232,6.571367211006057474
0.387000000000000233,6.463822526257838597
0.388000000000000234,6.357874107865617574
0.389000000000000234,6.253504843473338681
0.390000000000000235,6.150697553125480610
0.391000000000000236,6.049434997004604853
0.392000000000000237,5.949699883169067505
0.393000000000000238,5.851474875273981802
0.394000000000000239,5.754742600259513452
0.395000000000000240,5.659485655991616682
0.396000000000000241,5.565686618841295896
0.397000000000000242,5.473328051189501942
0.398000000000000242,5.382392508845575740
0.399000000000000243,5.292862548368201026
0.400000000000000244,5.204720734278462047
0.401000000000000245,5.117949646155652843
0.402000000000000246,5.032531885607265387
0.403000000000000247,4.948450083105005781
0.404000000000000248,4.865686904679959568
0.405000000000000249,4.784225058470245706
0.406000000000000250,4.704047301115490853
0.407000000000000250,4.625136443992873936
0.408000000000000251,4.547475359290217511
0.409000000000000252,4.471046985912217053
0.410000000000000253,4.395834335216272315
0.411000000000000254,4.321820496575122128
0.412000000000000255,4.248988642763868562
0.413000000000000256,4.177322035169398262
0.414000000000000257,4.106804028820809194
0.415000000000000258,4.037418077239683711
0.416000000000000258,3.969147737109647522
0.417000000000000259,3.901976672764804643
0.418000000000000260,3.835888660497221103
0.419000000000000261,3.770867592683722958
0.420000000000000262,3.706897481732818189
0.421000000000000263,3.643962463852614242
0.422000000000000264,3.582046802641082994
0.423000000000000265,3.521134892500084934
0.424000000000000266,3.461211261874899581
0.425000000000000266,3.402260576321269436
0.426000000000000267,3.344267641401986513
0.427000000000000268,3.287217405415421290
0.428000000000000269,3.231094961958474787
0.429000000000000270,3.175885552326513928
0.430000000000000271,3.121574567753186091
0.431000000000000272,3.068147551492885317
0.432000000000000273,3.015590200748967220
0.433000000000000274,2.963888368450781741
0.434000000000000274,2.913028064882701607
0.435000000000000275,2.862995459168471424
0.436000000000000276,2.813776880614161424
0.437000000000000277,2.765358819913139587
0.438000000000000278,2.717727930216512711
0.439000000000000279,2.670871028072494102
0.440000000000000280,2.624775094238214201
0.441000000000000281,2.579427274367548595
0.442000000000000282,2.534814879578384694
0.443000000000000282,2.490925386903066752
0.444000000000000283,2.447746439625376080
0.445000000000000284,2.405265847507762622
0.446000000000000285,2.363471586912273104
0.447000000000000286,2.322351800818693413
0.448000000000000287,2.281894798743498320
0.449000000000000288,2.242089056562965421
0.450000000000000289,2.202923216244010884
0.451000000000000290,2.164386085486099454
0.452000000000000290,2.126466637277591332
0.453000000000000291,2.089154009369948994
0.454000000000000292,2.052437503673001373
0.455000000000000293,2.016306585574564991
0.456000000000000294,1.980750883187627931
0.457000000000000295,1.945760186528189495
0.458000000000000296,1.911324446626934348
0.459000000000000297,1.877433774577697889
0.460000000000000298,1.844078440525767304
0.461000000000000298,1.811248872598898219
0.462000000000000299,1.778935655783944636
0.463000000000000300,1.747129530751904580
0.464000000000000301,1.715821392634092835
0.465000000000000302,1.685002289752163929
0.466000000000000303,1.654663422304600617
0.467000000000000304,1.624796141012152306
0.468000000000000305,1.595391945724848881
0.469000000000000306,1.566442483992906087
0.470000000000000306,1.537939549603899225
0.471000000000000307,1.509875081088582593
0.472000000000000308,1.482241160197527829
0.473000000000000309,1.455030010350730318
0.474000000000000310,1.428233995062392347
0.475000000000000311,1.401845616342822343
0.476000000000000312,1.375857513079539185
0.477000000000000313,1.350262459399379278
0.478000000000000314,1.325053363013629859
0.479000000000000314,1.300223263547827468
0.480000000000000315,1.275765330858099622
0.481000000000000316,1.251672863335630437
0.482000000000000317,1.227939286200957936
0.483000000000000318,1.204558149789605626
0.484000000000000319,1.181523127830593989
0.485000000000000320,1.158828015719299831
0.486000000000000321,1.136466728786018843
0.487000000000000322,1.114433300561605611
0.488000000000000322,1.092721881041538001
0.489000000000000323,1.071326734949516357
0.490000000000000324,1.050242240001928007
0.491000000000000325,1.029462885174249775
0.492000000000000326,1.008983268970490510
0.493000000000000327,0.988798097696716893
0.494000000000000328,0.968902183739693945
0.495000000000000329,0.949290443851539933
0.496000000000000330,0.929957897441394343
0.497000000000000330,0.910899664874808224
0.498000000000000331,0.892110965781919951
0.499000000000000332,0.873587117374961308
0.500000000000000333,0.855323532775950524
0.501000000000000334,0.837315719355349430
0.502000000000000335,0.819559277082167248
0.503000000000000336,0.802049896886330105
0.504000000000000337,0.784783359033768724
0.505000000000000338,0.767755531514888512
0.506000000000000338,0.750962368446875583
0.507000000000000339,0.734399908490363518
0.508000000000000340,0.718064273280959453
0.509000000000000341,0.701951665875949482
0.510000000000000342,0.686058369216747121
0.511000000000000343,0.670380744607284695
0.512000000000000344,0.654915230208850563
0.513000000000000345,0.639658339551588573
0.514000000000000346,0.624606660062959285
0.515000000000000346,0.609756851613503348
0.516000000000000347,0.595105645080079015
0.517000000000000348,0.580649840926802385
0.518000000000000349,0.566386307803938172
0.519000000000000350,0.552311981164833377
0.520000000000000351,0.538423861901175749
0.521000000000000352,0.524719014996528621
0.522000000000000353,0.511194568198478305
0.523000000000000353,0.497847710709287572
0.524000000000000354,0.484675691895280925
0.525000000000000355,0.471675820014934799
0.526000000000000356,0.458845460965792096
0.527000000000000357,0.446182037050156133
0.528000000000000358,0.433683025759648899
0.529000000000000359,0.421345958578565050
0.530000000000000360,0.409168419806110240
0.531000000000000361,0.397148045397381744
0.532000000000000361,0.385282521823135826
0.533000000000000362,0.373569584948262423
0.534000000000000363,0.362007018928927560
0.535000000000000364,0.350592655128252162
0.536000000000000365,0.339324371050551910
0.537000000000000366,0.328200089293921082
0.538000000000000367,0.317217776521194372
0.539000000000000368,0.306375442449030533
0.540000000000000369,0.295671138855149340
0.541000000000000369,0.285102958603452250
0.542000000000000370,0.274669034687057279
0.543000000000000371,0.264367539288932085
0.544000000000000372,0.254196682860130030
0.545000000000000373,0.244154713215374908
0.546000000000000374,0.234239914645900216
0.547000000000000375,0.224450607049352685
0.548000000000000376,0.214785145076590800
0.549000000000000377,0.205241917295234499
0.550000000000000377,0.195819345369717457
0.551000000000000378,0.186515883257792142
0.552000000000000379,0.177330016423143721
0.553000000000000380,0.168260261064060640
0.554000000000000381,0.159305163357914281
0.555000000000000382,0.150463298721212224
0.556000000000000383,0.141733271085154405
0.557000000000000384,0.133113712186328975
0.558000000000000385,0.124603280872521149
0.559000000000000385,0.116200662423295409
0.560000000000000386,0.107904567885211661
0.561000000000000387,0.099713733421473161
0.562000000000000388,0.091626919675811130
0.563000000000000389,0.083642911150322991
0.564000000000000390,0.075760515597175254
0.565000000000000391,0.067978563423872596
0.566000000000000392,0.060295907111937219
0.567000000000000393,0.052711420648741333
0.568000000000000393,0.045223998972356745
0.569000000000000394,0.037832557429151092
0.570000000000000395,0.030536031243944793
0.571000000000000396,0.023333375002553572
0.572000000000000397,0.016223562146436978
0.573000000000000398,0.009205584479344142
0.574000000000000399,0.002278451685659955
0.575000000000000400,-0.004558809139678799
0.576000000000000401,-0.011307153949923526
0.577000000000000401,-0.017967522194169902
0.578000000000000402,-0.024540837254008012
0.579000000000000403,-0.031028006869459002
0.580000000000000404,-0.037429923554402625
0.581000000000000405,-0.043747465001588673
0.582000000000000406,-0.049981494477564788
0.583000000000000407,-0.056132861207587238
0.584000000000000408,-0.062202400750791843
0.585000000000000409,-0.068190935365777722
0.586000000000000409,-0.074099274366770176
0.587000000000000410,-0.079928214470622233
0.588000000000000411,-0.085678540134719233
0.589000000000000412,-0.091351023886112853
0.590000000000000413,-0.096946426641919756
0.591000000000000414,-0.102465498021266699
0.592000000000000415,-0.107908976648918881
0.593000000000000416,-0.113277590450739679
0.594000000000000417,-0.118572056941185708
0.595000000000000417,-0.123793083503039442
0.596000000000000418,-0.128941367659423017
0.597000000000000419,-0.134017597338421418
0.598000000000000420,-0.139022451130315583
0.599000000000000421,-0.143956598537734681
0.600000000000000422,-0.148820700218765783
0.601000000000000423,-0.153615408223217176
0.602000000000000424,-0.158341366222236435
0.603000000000000425,-0.162999209731366973
0.604000000000000425,-0.167589566327195821
0.605000000000000426,-0.172113055857786162
0.606000000000000427,-0.176570290647027395
0.607000000000000428,-0.180961875692942364
0.608000000000000429,-0.185288408860314030
0.609000000000000430,-0.189550481067478349
0.610000000000000431,-0.193748676467692060
0.611000000000000432,-0.197883572625024151
0.612000000000000433,-0.201955740684958723
0.613000000000000433,-0.205965745539881340
0.614000000000000434,-0.209914145989504780
0.615000000000000435,-0.213801494896395633
0.616000000000000436,-0.217628339336685878
0.617000000000000437,-0.221395220746186450
