# Gypsum-001_BSAI12
# h[nm],U(h)[kJ/mol]
0.149999999999999994,141.132860170786841536
0.150999999999999995,139.353685656133507109
0.151999999999999996,137.656830830013717559
0.152999999999999997,135.984022895794083752
0.153999999999999998,134.321885719054250785
0.154999999999999999,132.673542858098215902
0.156000000000000000,131.045466215556274392
0.157000000000000001,129.442401008337526491
0.158000000000000002,127.866225246389745962
0.159000000000000002,126.316457504242521281
0.160000000000000003,124.791233442516571017
0.161000000000000004,123.288207893282987015
0.162000000000000005,121.805186736075341969
0.163000000000000006,120.340467679611677454
0.164000000000000007,118.892944866439989937
0.165000000000000008,117.462054251651352388
0.166000000000000009,116.047632142221914364
0.167000000000000010,114.649743774376162264
0.168000000000000010,113.268520854472697579
0.169000000000000011,111.904030778024164761
0.170000000000000012,110.556187448161338693
0.171000000000000013,109.224704542520413497
0.172000000000000014,107.909086347551266272
0.173000000000000015,106.608648236968932110
0.174000000000000016,105.322557811611957845
0.175000000000000017,104.049888000806234345
0.176000000000000018,102.789674522721583116
0.177000000000000018,101.540971609029583078
0.178000000000000019,100.302901528110766094
0.179000000000000020,99.074694998949070168
0.180000000000000021,97.855720959485651633
0.181000000000000022,96.645505280996133024
0.182000000000000023,95.443738887208240840
0.183000000000000024,94.250276353608512636
0.184000000000000025,93.065126455248019965
0.185000000000000026,91.888436335288417922
0.186000000000000026,90.720471019245195521
0.187000000000000027,89.561589938147179168
0.188000000000000028,88.412221981110093338
0.189000000000000029,87.272840403084558147
0.190000000000000030,86.143938690734529473
0.191000000000000031,85.026008257498247644
0.192000000000000032,83.919518612215284747
0.193000000000000033,82.824900434488867518
0.194000000000000034,81.742531800926968799
0.195000000000000034,80.672727643438548739
0.196000000000000035,79.615732385452545827
0.197000000000000036,78.571715594172815145
0.198000000000000037,77.540770405417760003
0.199000000000000038,76.522914420021692194
0.200000000000000039,75.518092734475558814
0.201000000000000040,74.526182750480103323
0.202000000000000041,73.547000405336319773
0.203000000000000042,72.580307474653594113
0.204000000000000042,71.625819617951606233
0.205000000000000043,70.683214863856974830
0.206000000000000044,69.752142262529645222
0.207000000000000045,68.832230466789923184
0.208000000000000046,67.923096038545310194
0.209000000000000047,67.024351312229327959
0.210000000000000048,66.135611681019895514
0.211000000000000049,65.256502203813354868
0.212000000000000050,64.386663460712469487
0.213000000000000050,63.525756611760598958
0.214000000000000051,62.673467637586703916
0.215000000000000052,61.829510761425183318
0.216000000000000053,60.993631069648856169
0.217000000000000054,60.165606362595056567
0.218000000000000055,59.345248279234070310
0.219000000000000056,58.532402748324010133
0.220000000000000057,57.726949825350878598
0.221000000000000058,56.928802979018747976
0.222000000000000058,56.137907893586927344
0.223000000000000059,55.354240854209550093
0.224000000000000060,54.577806781865703556
0.225000000000000061,53.808636982714418195
0.226000000000000062,53.046786673989721805
0.227000000000000063,52.292332345073631927
0.228000000000000064,51.545369008332407645
0.229000000000000065,50.806007389840161181
0.230000000000000066,50.074371105391620063
0.231000000000000066,49.350593862345199625
0.232000000000000067,48.634816722951242696
0.233000000000000068,47.927185459993765448
0.234000000000000069,47.227848030886455888
0.235000000000000070,46.536952191871392870
0.236000000000000071,45.854643269719417731
0.237000000000000072,45.181062104359796194
0.238000000000000073,44.516343172195128375
0.239000000000000073,43.860612896505102754
0.240000000000000074,43.213988148310292559
0.241000000000000075,42.576574938362789169
0.242000000000000076,41.948467298543491211
0.243000000000000077,41.329746348870365580
0.244000000000000078,40.720479544544296857
0.245000000000000079,40.120720095963548602
0.246000000000000080,39.530506553408386594
0.247000000000000081,38.949862547112836353
0.248000000000000081,38.378796672683769486
0.249000000000000082,37.817302511277304689
0.250000000000000111,37.265358773578434182
0.251000000000000112,36.722929556432987397
0.252000000000000113,36.189964700931909647
0.253000000000000114,35.666400240828139090
0.254000000000000115,35.152158930357970235
0.255000000000000115,34.647150840826370199
0.256000000000000116,34.151274015682133722
0.257000000000000117,33.664415174241582918
0.258000000000000118,33.186450454704740309
0.259000000000000119,32.717246187632973431
0.260000000000000120,32.256659691612703966
0.261000000000000121,31.804540083404980066
0.262000000000000122,31.360729095467569039
0.263000000000000123,30.925061894327335210
0.264000000000000123,30.497367893868350563
0.265000000000000124,30.077471558181656519
0.266000000000000125,29.665193189188972411
0.267000000000000126,29.260349694802602727
0.268000000000000127,28.862755333912769373
0.269000000000000128,28.472222434999604701
0.270000000000000129,28.088562085648362654
0.271000000000000130,27.711584790699582470
0.272000000000000131,27.341101097193121205
0.273000000000000131,26.976922184662168291
0.274000000000000132,26.618860419702393472
0.275000000000000133,26.266729874081892859
0.276000000000000134,25.920346805968996762
0.277000000000000135,25.579530104139486468
0.278000000000000136,25.244101695280868114
0.279000000000000137,24.913886914742366940
0.280000000000000138,24.588714841284236456
0.281000000000000139,24.268418596561364353
0.282000000000000139,23.952835610234224362
0.283000000000000140,23.641807851736828638
0.284000000000000141,23.335182029847715057
0.285000000000000142,23.032809761307209584
0.286000000000000143,22.734547709803447191
0.287000000000000144,22.440257696713349134
0.288000000000000145,22.149806785031895373
0.289000000000000146,21.863067337958231207
0.290000000000000147,21.579917053627681867
0.291000000000000147,21.300238977489598824
0.292000000000000148,21.023921493830204810
0.293000000000000149,20.750858297930616203
0.294000000000000150,20.480948350332216279
0.295000000000000151,20.214095814656861450
0.296000000000000152,19.950209980398213361
0.297000000000000153,19.689205172063797278
0.298000000000000154,19.431000646006204136
0.299000000000000155,19.175520476236428635
0.300000000000000155,18.922693430464224917
0.301000000000000156,18.672452837559138317
0.302000000000000157,18.424736447572776399
0.303000000000000158,18.179486285408682278
0.304000000000000159,17.936648499170321003
0.305000000000000160,17.696173204161873116
0.306000000000000161,17.458014323460201211
0.307000000000000162,17.222129425920225998
0.308000000000000163,16.988479562420454982
0.309000000000000163,16.757029101100670232
0.310000000000000164,16.527745562289759107
0.311000000000000165,16.300599453769230252
0.312000000000000166,16.075564106966645284
0.313000000000000167,15.852615514623625614
0.314000000000000168,15.631732170434862184
0.315000000000000169,15.412894911108462992
0.316000000000000170,15.196086761253468467
0.317000000000000171,14.981292781457742791
0.318000000000000171,14.768499919879101157
0.319000000000000172,14.557696867633557858
0.320000000000000173,14.348873918228193247
0.321000000000000174,14.142022831251486181
0.322000000000000175,13.937136700500980524
0.323000000000000176,13.734209826697863832
0.324000000000000177,13.533237594908722912
0.325000000000000178,13.334216356768241241
0.326000000000000179,13.137143317571183587
0.327000000000000179,12.942016428278938278
0.328000000000000180,12.748834282464121870
0.329000000000000181,12.557596018197099141
0.330000000000000182,12.368301224859738596
0.331000000000000183,12.180949854855231962
0.332000000000000184,11.995542140167447798
0.333000000000000185,11.812078513709625582
0.334000000000000186,11.630559535389668468
0.335000000000000187,11.450985822808194214
0.336000000000000187,11.273357986495584626
0.337000000000000188,11.097676569585683382
0.338000000000000189,10.923941991815803831
0.339000000000000190,10.752154497736380989
0.340000000000000191,10.582314109007871394
0.341000000000000192,10.414420580657724358
0.342000000000000193,10.248473361166309914
0.343000000000000194,10.084471556247638802
0.344000000000000195,9.922413896188510662
0.345000000000000195,9.762298706607529297
0.346000000000000196,9.604123882494992159
0.347000000000000197,9.447886865393641642
0.348000000000000198,9.293584623580674275
0.349000000000000199,9.141213635111652636
0.350000000000000200,8.990769873588179806
0.351000000000000201,8.842248796512279796
0.352000000000000202,8.695645336092512778
0.353000000000000203,8.550953892368521991
0.354000000000000203,8.408168328523284885
0.355000000000000204,8.267281968254938107
0.356000000000000205,8.128287595082760220
0.357000000000000206,7.991177453464814562
0.358000000000000207,7.855943251608342059
0.359000000000000208,7.722576165856819941
0.360000000000000209,7.591066846541300706
0.361000000000000210,7.461405425187288998
0.362000000000000210,7.333581522971695854
0.363000000000000211,7.207584260328436798
0.364000000000000212,7.083402267604713920
0.365000000000000213,6.961023696673832362
0.366000000000000214,6.840436233414206590
0.367000000000000215,6.721627110967896002
0.368000000000000216,6.604583123695613622
0.369000000000000217,6.489290641749195565
0.370000000000000218,6.375735626185727867
0.371000000000000218,6.263903644551582772
0.372000000000000219,6.153779886867790871
0.373000000000000220,6.045349181951918283
0.374000000000000221,5.938596014014971836
0.375000000000000222,5.833504539475325323
0.376000000000000223,5.730058603934535810
0.377000000000000224,5.628241759263736377
0.378000000000000225,5.528037280751848748
0.379000000000000226,5.429428184270248536
0.380000000000000226,5.332397243411135968
0.381000000000000227,5.236927006560057940
0.382000000000000228,5.142999813865417380
0.383000000000000229,5.050597814070693303
0.384000000000000230,4.959702981177600556
0.385000000000000231,4.870297130910712369
0.386000000000000232,4.782361936956746717
0.387000000000000233,4.695878946953592425
0.388000000000000234,4.610829598206724889
0.389000000000000234,4.527195233112395911
0.390000000000000235,4.444957114269164400
0.391000000000000236,4.364096439261222926
0.392000000000000237,4.284594355098645835
0.393000000000000238,4.206431972301561295
0.394000000000000239,4.129590378616811108
0.395000000000000240,4.054050652357181761
0.396000000000000241,3.979793875354791233
0.397000000000000242,3.906801145521650032
0.398000000000000242,3.835053589011583774
0.399000000000000243,3.764532371979159020
0.400000000000000244,3.695218711932152011
0.401000000000000245,3.627093888675375410
0.402000000000000246,3.560139254844756351
0.403000000000000247,3.494336246031197302
0.404000000000000248,3.429666390495044848
0.405000000000000249,3.366111318472552405
0.406000000000000250,3.303652771076593275
0.407000000000000250,3.242272608794578126
0.408000000000000251,3.181952819587205994
0.409000000000000252,3.122675526592299633
0.410000000000000253,3.064422995438454755
0.411000000000000254,3.007177641173876204
0.412000000000000255,2.950922034816179096
0.413000000000000256,2.895638909529248295
0.414000000000000257,2.841311166433903690
0.415000000000000258,2.787921880059097468
0.416000000000000258,2.735454303441094304
0.417000000000000259,2.683891872877925522
0.418000000000000260,2.633218212347030018
0.419000000000000261,2.583417137593893464
0.420000000000000262,2.534472659899924540
0.421000000000000263,2.486368989537727892
0.422000000000000264,2.439090538922277673
0.423000000000000265,2.392621925466394295
0.424000000000000266,2.346947974149096616
0.425000000000000266,2.302053719805518206
0.426000000000000267,2.257924409146906619
0.427000000000000268,2.214545502519467579
0.428000000000000269,2.171902675410648520
0.429000000000000270,2.129981819711467050
0.430000000000000271,2.088769044743534753
0.431000000000000272,2.048250678059202023
0.432000000000000273,2.008413266023405530
0.433000000000000274,1.969243574185497225
0.434000000000000274,1.930728587449394684
0.435000000000000275,1.892855510050256429
0.436000000000000276,1.855611765345720032
0.437000000000000277,1.818984995429692830
0.438000000000000278,1.782963060576548298
0.439000000000000279,1.747534038523366418
0.440000000000000280,1.712686223597844393
0.441000000000000281,1.678408125699289100
0.442000000000000282,1.644688469139887088
0.443000000000000282,1.611516191353476346
0.444000000000000283,1.578880441478662577
0.445000000000000284,1.546770578823168707
0.446000000000000285,1.515176171216005674
0.447000000000000286,1.484086993253885600
0.448000000000000287,1.453493024448288207
0.449000000000000288,1.423384447279182563
0.450000000000000289,1.393751645161471986
0.451000000000000290,1.364585200329900161
0.452000000000000290,1.335875891648010461
0.453000000000000291,1.307614692346708019
0.454000000000000292,1.279792767697614853
0.455000000000000293,1.252401472626370804
0.456000000000000294,1.225432349270861421
0.457000000000000295,1.198877124489076351
0.458000000000000296,1.172727707321326474
0.459000000000000297,1.146976186411180043
0.460000000000000298,1.121614827389487035
0.461000000000000298,1.096636070225587734
0.462000000000000299,1.072032526549717923
0.463000000000000300,1.047796976950453152
0.464000000000000301,1.023922368250824944
0.465000000000000302,1.000401810766703425
0.466000000000000303,0.977228575550812217
0.467000000000000304,0.954396091625574705
0.468000000000000305,0.931897943208014445
0.469000000000000306,0.909727866929565088
0.470000000000000306,0.887879749053655409
0.471000000000000307,0.866347622693854236
0.472000000000000308,0.845125665035057039
0.473000000000000309,0.824208194560194785
0.474000000000000310,0.803589668284853786
0.475000000000000311,0.783264679001947073
0.476000000000000312,0.763227952538610310
0.477000000000000313,0.743474345027223427
0.478000000000000314,0.723998840192561333
0.479000000000000314,0.704796546656721756
0.480000000000000315,0.685862695263609878
0.481000000000000316,0.667192636424473795
0.482000000000000317,0.648781837486042123
0.483000000000000318,0.630625880122581361
0.484000000000000319,0.612720457753218373
0.485000000000000320,0.595061372985723147
0.486000000000000321,0.577644535087862954
0.487000000000000322,0.560465957487366495
0.488000000000000322,0.543521755301536680
0.489000000000000323,0.526808142897266407
0.490000000000000324,0.510321431482401389
0.491000000000000325,0.494058026729128297
0.492000000000000326,0.478014426430093398
0.493000000000000327,0.462187218187838422
0.494000000000000328,0.446573077138149255
0.495000000000000329,0.431168763707751534
0.496000000000000330,0.415971121406868760
0.497000000000000330,0.400977074656890919
0.498000000000000331,0.386183626653668788
0.499000000000000332,0.371587857266517774
0.500000000000000333,0.357186920973259381
0.501000000000000334,0.342978044831523665
0.502000000000000335,0.328958526486309022
0.503000000000000336,0.315125732214057763
0.504000000000000337,0.301477095003162776
0.505000000000000338,0.288010112671033713
0.506000000000000338,0.274722346017624353
0.507000000000000339,0.261611417015407022
0.508000000000000340,0.248675007035730117
0.509000000000000341,0.235910855111352985
0.510000000000000342,0.223316756235147518
0.511000000000000343,0.210890559694648511
0.512000000000000344,0.198630167442379157
0.513000000000000345,0.186533532501659216
0.514000000000000346,0.174598657407629088
0.515000000000000346,0.162823592683302071
0.516000000000000347,0.151206435350294155
0.517000000000000348,0.139745327473920627
0.518000000000000349,0.128438454742379221
0.519000000000000350,0.117284045079617802
0.520000000000000351,0.106280367291612540
0.521000000000000352,0.095425729745566401
0.522000000000000353,0.084718479081775808
0.523000000000000353,0.074156998957657899
0.524000000000000354,0.063739708823598556
0.525000000000000355,0.053465062730163937
0.526000000000000356,0.043331548166289299
0.527000000000000357,0.033337684927953519
0.528000000000000358,0.023482024016952808
0.529000000000000359,0.013763146569263579
0.530000000000000360,0.004179662812624692
0.531000000000000361,-0.005269788947225911
0.532000000000000361,-0.014586543312048905
0.533000000000000362,-0.023771908748835974
0.534000000000000363,-0.032827168520227587
0.535000000000000364,-0.041753581588144885
0.536000000000000365,-0.050552383491026240
0.537000000000000366,-0.059224787195240637
0.538000000000000367,-0.067771983921058598
0.539000000000000368,-0.076195143943772553
0.540000000000000369,-0.084495417370320985
0.541000000000000369,-0.092673934892033211
0.542000000000000370,-0.100731808513809432
0.543000000000000371,-0.108670132260375335
0.544000000000000372,-0.116489982859965743
0.545000000000000373,-0.124192420405973808
0.546000000000000374,-0.131778488997008697
0.547000000000000375,-0.139249217355822769
0.548000000000000376,-0.146605619427601724
0.549000000000000377,-0.153848694958032162
0.550000000000000377,-0.160979430051668537
0.551000000000000378,-0.167998797710951692
0.552000000000000379,-0.174907758356448256
0.553000000000000380,-0.181707260328650172
0.554000000000000381,-0.188398240371812520
0.555000000000000382,-0.194981624100311141
0.556000000000000383,-0.201458326447831626
0.557000000000000384,-0.207829252099965917
0.558000000000000385,-0.214095295910474659
0.559000000000000385,-0.220257343301759029
0.560000000000000386,-0.226316270649892098
0.561000000000000387,-0.232272945654598661
0.562000000000000388,-0.238128227694593159
0.563000000000000389,-0.243882968168712189
0.564000000000000390,-0.249538010823138950
0.565000000000000391,-0.255094192065166592
0.566000000000000392,-0.260552341263834308
0.567000000000000393,-0.265913281037850502
0.568000000000000393,-0.271177827531085602
0.569000000000000394,-0.276346790676064713
0.570000000000000395,-0.281420974445774408
0.571000000000000396,-0.286401177094097625
0.572000000000000397,-0.291288191385296436
0.573000000000000398,-0.296082804812758504
0.574000000000000399,-0.300785799807439858
0.575000000000000400,-0.305397953936235367
0.576000000000000401,-0.309920040090623683
0.577000000000000401,-0.314352826665930229
0.578000000000000402,-0.318697077731422085
0.579000000000000403,-0.322953553191571263
0.580000000000000404,-0.327123008938829563
0.581000000000000405,-0.331206196998058089
0.582000000000000406,-0.335203865663039946
0.583000000000000407,-0.339116759625216257
0.584000000000000408,-0.342945620094996684
0.585000000000000409,-0.346691184915861039
0.586000000000000409,-0.350354188671478273
0.587000000000000410,-0.353935362786185537
0.588000000000000411,-0.357435435618911501
0.589000000000000412,-0.360855132550956970
0.590000000000000413,-0.364195176067694970
0.591000000000000414,-0.367456285834533658
0.592000000000000415,-0.370639178767303679
0.593000000000000416,-0.373744569097281321
0.594000000000000417,-0.376773168431064509
0.595000000000000417,-0.379725685805546220
0.596000000000000418,-0.382602827738063145
0.597000000000000419,-0.385405298272067598
0.598000000000000420,-0.388133799018366310
0.599000000000000421,-0.390789029192210591
0.600000000000000422,-0.393371685646362379
0.601000000000000423,-0.395882462900296772
0.602000000000000424,-0.398322053165769741
0.603000000000000425,-0.400691146368864548
0.604000000000000425,-0.402990430168654545
0.605000000000000426,-0.405220589972703937
0.606000000000000427,-0.407382308949529759
0.607000000000000428,-0.409476268038079627
0.608000000000000429,-0.411503145954576877
0.609000000000000430,-0.413463619196597132
0.610000000000000431,-0.415358362044768892
0.611000000000000432,-0.417188046562035342
0.612000000000000433,-0.418953342590699607
0.613000000000000433,-0.420654917747359747
0.614000000000000434,-0.422293437415834361
0.615000000000000435,-0.423869564738192206
0.616000000000000436,-0.425383960603989586
