# Gypsum-001_BSAIV4
# h[nm],U(h)[kJ/mol]
0.149999999999999994,128.919227881468970054
0.150999999999999995,127.271192253944903428
0.151999999999999996,125.897293064841463206
0.152999999999999997,124.606737791191036990
0.153999999999999998,123.321577477462795969
0.154999999999999999,122.020216537553693570
0.156000000000000000,120.705668420285249454
0.157000000000000001,119.388803298241242601
0.158000000000000002,118.080371313420371848
0.159000000000000002,116.787920877349463922
0.160000000000000003,115.515253594167347728
0.161000000000000004,114.263033028197284580
0.162000000000000005,113.029777240454720300
0.163000000000000006,111.812839707335143657
0.164000000000000007,110.609204268872844068
0.165000000000000008,109.416043526645836437
0.166000000000000009,108.231053869848963700
0.167000000000000010,107.052608294540817724
0.168000000000000010,105.879775885750333941
0.169000000000000011,104.712253920187350786
0.170000000000000012,103.550250859212752630
0.171000000000000013,102.394349408572054472
0.172000000000000014,101.245370134047547594
0.173000000000000015,100.104248693639732437
0.174000000000000016,98.971933865482455417
0.175000000000000017,97.849309191771297378
0.176000000000000018,96.737138042033052443
0.177000000000000018,95.636029982455809773
0.178000000000000019,94.546425273228209107
0.179000000000000020,93.468593876089329342
0.180000000000000021,92.402645347175933921
0.181000000000000022,91.348546261161573057
0.182000000000000023,90.306142242986126689
0.183000000000000024,89.275182186154182773
0.184000000000000025,88.255342750900553028
0.185000000000000026,87.246251721677325008
0.186000000000000026,86.247509237634972123
0.187000000000000027,85.258706280103368158
0.188000000000000028,84.279440103925367112
0.189000000000000029,83.309326536870614177
0.190000000000000030,82.348009248750415168
0.191000000000000031,81.395166216687997007
0.192000000000000032,80.450513693480417032
0.193000000000000033,79.513808030348116063
0.194000000000000034,78.584845721362640347
0.195000000000000034,77.663462031442790590
0.196000000000000035,76.749528549069822247
0.197000000000000036,75.842949973880081416
0.198000000000000037,74.943660412192073750
0.199000000000000038,74.051619413589506280
0.200000000000000039,73.166807941418269934
0.201000000000000040,72.289224431284495154
0.202000000000000041,71.418881055641861622
0.203000000000000042,70.555800280129602697
0.204000000000000042,69.700011768912901289
0.205000000000000043,68.851549672044527028
0.206000000000000044,68.010450307751881383
0.207000000000000045,67.176750236356809864
0.208000000000000046,66.350484709945618533
0.209000000000000047,65.531686472553701606
0.210000000000000048,64.720384879114092769
0.211000000000000049,63.916605297330306712
0.212000000000000050,63.120368754574755599
0.213000000000000050,62.331691791508752942
0.214000000000000051,61.550586485021099747
0.215000000000000052,60.777060604983624614
0.216000000000000053,60.011117871946240143
0.217000000000000054,59.252758286012166877
0.218000000000000055,58.501978500543295070
0.219000000000000056,57.758772217887063505
0.220000000000000057,57.023130587853565032
0.221000000000000058,56.295042593108107098
0.222000000000000058,55.574495408893973547
0.223000000000000059,54.861474727515485483
0.224000000000000060,54.155965040747162220
0.225000000000000061,53.457949875774964710
0.226000000000000062,52.767411982406656534
0.227000000000000063,52.084333471114064196
0.228000000000000064,51.408695902998587712
0.229000000000000065,50.740480334016368147
0.230000000000000066,50.079667316783023523
0.231000000000000066,49.426236864019607253
0.232000000000000067,48.780168378227209303
0.233000000000000068,48.141440552510594841
0.234000000000000069,47.510031247638018215
0.235000000000000070,46.885917350446987939
0.236000000000000071,46.269074618609565164
0.237000000000000072,45.659477516574192180
0.238000000000000073,45.057099047228469146
0.239000000000000073,44.461910583492368687
0.240000000000000074,43.873881703672779508
0.241000000000000075,43.292980034003669232
0.242000000000000076,42.719171101369617816
0.243000000000000077,42.152418198781198555
0.244000000000000078,41.592682265741217407
0.245000000000000079,41.039921785224358075
0.246000000000000080,40.494092698591792612
0.247000000000000081,39.955148339383136147
0.248000000000000081,39.423039386574757259
0.249000000000000082,38.897713837567508222
0.250000000000000111,38.379117000871232790
0.251000000000000112,37.867191508187829641
0.252000000000000113,37.361877345360703373
0.253000000000000114,36.863111901454885810
0.254000000000000115,36.370830035058418161
0.255000000000000115,35.884964156751507858
0.256000000000000116,35.405444326572265368
0.257000000000000117,34.932198365216962088
0.258000000000000118,34.465151977645497539
0.259000000000000119,34.004228887717900420
0.260000000000000120,33.549350982462513571
0.261000000000000121,33.100438464570160590
0.262000000000000122,32.657410011718205567
0.263000000000000123,32.220182941352128125
0.264000000000000123,31.788673379588743728
0.265000000000000124,31.362796432952006143
0.266000000000000125,30.942466361708284239
0.267000000000000126,30.527596753631364379
0.268000000000000127,30.118100697095957941
0.269000000000000128,29.713890952472759466
0.270000000000000129,29.314880120874597935
0.271000000000000130,28.920980809381752863
0.272000000000000131,28.532105791955114427
0.273000000000000131,28.148168165325607504
0.274000000000000132,27.769081499227922905
0.275000000000000133,27.394759980424851165
0.276000000000000134,27.025118550044588517
0.277000000000000135,26.660073033827586642
0.278000000000000136,26.299540264950195478
0.279000000000000137,25.943438199159924551
0.280000000000000138,25.591686022022173574
0.281000000000000139,25.244204248137958047
0.282000000000000139,24.900914812249595798
0.283000000000000140,24.561741152203659055
0.284000000000000141,24.226608283789737186
0.285000000000000142,23.895442867517903807
0.286000000000000143,23.568173267439068042
0.287000000000000144,23.244729602149057257
0.288000000000000145,22.925043788150382795
0.289000000000000146,22.609049575775408414
0.290000000000000147,22.296682577899893829
0.291000000000000147,21.987880291699028135
0.292000000000000148,21.682582113716364347
0.293000000000000149,21.380729348532888423
0.294000000000000150,21.082265211336036259
0.295000000000000151,20.787134824699059266
0.296000000000000152,20.495285209888738365
0.297000000000000153,20.206665273025198104
0.298000000000000154,19.921225786420240667
0.299000000000000155,19.638919365422218277
0.300000000000000155,19.359700441094535250
0.301000000000000156,19.083525229052661132
0.302000000000000157,18.810351694780312215
0.303000000000000158,18.540139515740627019
0.304000000000000159,18.272850040591354315
0.305000000000000160,18.008446245805650676
0.306000000000000161,17.746892689991710768
0.307000000000000162,17.488155466194960752
0.308000000000000163,17.232202152456778776
0.309000000000000163,16.979001760893222439
0.310000000000000164,16.728524685546155126
0.311000000000000165,16.480742649247861920
0.312000000000000166,16.235628649728813144
0.313000000000000167,15.993156905186186378
0.314000000000000168,15.753302799519280697
0.315000000000000169,15.516042827425597039
0.316000000000000170,15.281354539539814041
0.317000000000000171,15.049216487785992413
0.318000000000000171,14.819608171101673832
0.319000000000000172,14.592509981681057951
0.320000000000000173,14.367903151873173684
0.321000000000000174,14.145769701860171352
0.322000000000000175,13.926092388229861285
0.323000000000000176,13.708854653546415747
0.324000000000000177,13.494040577013191040
0.325000000000000178,13.281634826311712771
0.326000000000000179,13.071622610691738586
0.327000000000000179,12.863989635378354492
0.328000000000000180,12.658722057353356760
0.329000000000000181,12.455806442560355407
0.330000000000000182,12.255229724574881800
0.331000000000000183,12.056979164773789392
0.332000000000000184,11.861042314031038813
0.333000000000000185,11.667406975960656013
0.334000000000000186,11.476061171721205767
0.335000000000000187,11.286993106390617925
0.336000000000000187,11.100191136914565604
0.337000000000000188,10.915643741626901431
0.338000000000000189,10.733339491335575744
0.339000000000000190,10.553267021963474548
0.340000000000000191,10.375415008729556021
0.341000000000000192,10.199772141851976670
0.342000000000000193,10.026327103751535574
0.343000000000000194,9.855068547730834183
0.344000000000000195,9.685985078101904122
0.345000000000000195,9.519065231732239951
0.346000000000000196,9.354297460977447187
0.347000000000000197,9.191670117966461717
0.348000000000000198,9.031171440203721090
0.349000000000000199,8.872789537451247099
0.350000000000000200,8.716512379852236592
0.351000000000000201,8.562327787256839073
0.352000000000000202,8.410223419709851100
0.353000000000000203,8.260186769059497891
0.354000000000000203,8.112205151645790480
0.355000000000000204,7.966265702026865014
0.356000000000000205,7.822355367701321782
0.357000000000000206,7.680460904784415455
0.358000000000000207,7.540568874596473847
0.359000000000000208,7.402665641121570772
0.360000000000000209,7.266737369295017679
0.361000000000000210,7.132770024078783244
0.362000000000000210,7.000749370284057527
0.363000000000000211,6.870660973101072599
0.364000000000000212,6.742490199296740983
0.365000000000000213,6.616222219041432595
0.366000000000000214,6.491842008326978331
0.367000000000000215,6.369334351938808148
0.368000000000000216,6.248683846945854548
0.369000000000000217,6.129874906673053125
0.370000000000000218,6.012891765121818999
0.371000000000000218,5.897718481805227952
0.372000000000000219,5.784338946965249306
0.373000000000000220,5.672736887140670703
0.374000000000000221,5.562895871055217434
0.375000000000000222,5.454799315796566184
0.376000000000000223,5.348430493257637863
0.377000000000000224,5.243772536813073870
0.378000000000000225,5.140808448204490233
0.379000000000000226,5.039521104609312019
0.380000000000000226,4.939893265868905203
0.381000000000000227,4.841907581852931131
0.382000000000000228,4.745546599937684462
0.383000000000000229,4.650792772577295509
0.384000000000000230,4.557628464947674374
0.385000000000000231,4.466035962643909230
0.386000000000000232,4.375997479413098468
0.387000000000000233,4.287495164905091194
0.388000000000000234,4.200511112425058258
0.389000000000000234,4.115027366672249443
0.390000000000000235,4.031025931450471056
0.391000000000000236,3.948488777336595312
0.392000000000000237,3.867397849294190504
0.393000000000000238,3.787735074220260234
0.394000000000000239,3.709482368413854481
0.395000000000000240,3.632621644956028462
0.396000000000000241,3.557134820991402879
0.397000000000000242,3.483003824902378476
0.398000000000000242,3.410210603367524129
0.399000000000000243,3.338737128296668466
0.400000000000000244,3.268565403635478983
0.401000000000000245,3.199677472033245706
0.402000000000000246,3.132055421368117099
0.403000000000000247,3.065681391124359223
0.404000000000000248,3.000537578617181289
0.405000000000000249,2.936606245060814580
0.406000000000000250,2.873869721476271621
0.407000000000000250,2.812310414435581940
0.408000000000000251,2.751910811639761256
0.409000000000000252,2.692653487328309669
0.410000000000000253,2.634521107518254635
0.411000000000000254,2.577496435071380709
0.412000000000000255,2.521562334588485221
0.413000000000000256,2.466701777129883144
0.414000000000000257,2.412897844761855204
0.415000000000000258,2.360133734928781202
0.416000000000000258,2.308392764651340912
0.417000000000000259,2.257658374551088531
0.418000000000000260,2.207914132702296861
0.419000000000000261,2.159143738311913641
0.420000000000000262,2.111331025228992075
0.421000000000000263,2.064459965284888732
0.422000000000000264,2.018514671466001609
0.423000000000000265,1.973479400920750582
0.424000000000000266,1.929338557802838583
0.425000000000000266,1.886076695952984439
0.426000000000000267,1.843678521421334704
0.427000000000000268,1.802128894833042949
0.428000000000000269,1.761412833599586891
0.429000000000000270,1.721515513978396639
0.430000000000000271,1.682422272983674860
0.431000000000000272,1.644118610151129811
0.432000000000000273,1.606590189159685433
0.433000000000000274,1.569822839313061769
0.434000000000000274,1.533802556884344082
0.435000000000000275,1.498515506326660196
0.436000000000000276,1.463948021353096873
0.437000000000000277,1.430086605889072882
0.438000000000000278,1.396917934900422820
0.439000000000000279,1.364428855100387583
0.440000000000000280,1.332606385538836591
0.441000000000000281,1.301437718077000261
0.442000000000000282,1.270910217750929494
0.443000000000000282,1.241011423027089222
0.444000000000000283,1.211729045953249484
0.445000000000000284,1.183050972208026241
0.446000000000000285,1.154965261052307790
0.447000000000000286,1.127460145185760654
0.448000000000000287,1.100524030511722096
0.449000000000000288,1.074145495813571660
0.450000000000000289,1.048313292345816716
0.451000000000000290,1.023016343342997070
0.452000000000000290,0.998243743449453769
0.453000000000000291,0.973984758073111578
0.454000000000000292,0.950228822666206341
0.455000000000000293,0.926965541935958703
0.456000000000000294,0.904184688988148522
0.457000000000000295,0.881876204406387920
0.458000000000000296,0.860030195270048758
0.459000000000000297,0.838636934113494492
0.460000000000000298,0.817686857829451830
0.461000000000000298,0.797170566519139201
0.462000000000000299,0.777078822291789262
0.463000000000000300,0.757402548016181787
0.464000000000000301,0.738132826026623001
0.465000000000000302,0.719260896785901771
0.466000000000000303,0.700778157507615518
0.467000000000000304,0.682676160740155025
0.468000000000000305,0.664946612914752100
0.469000000000000306,0.647581372859731497
0.470000000000000306,0.630572450283158337
0.471000000000000307,0.613912004226072061
0.472000000000000308,0.597592341488305756
0.473000000000000309,0.581605915028900688
0.474000000000000310,0.565945322343125445
0.475000000000000311,0.550603303817938983
0.476000000000000312,0.535572741067788294
0.477000000000000313,0.520846655252458546
0.478000000000000314,0.506418205378822428
0.479000000000000314,0.492280686588029703
0.480000000000000315,0.478427528429890281
0.481000000000000316,0.464852293125920135
0.482000000000000317,0.451548673822660340
0.483000000000000318,0.438510492836659993
0.484000000000000319,0.425731699892590743
0.485000000000000320,0.413206370355866159
0.486000000000000321,0.400928703461035041
0.487000000000000322,0.388893020537264378
0.488000000000000322,0.377093763232164148
0.489000000000000323,0.365525491735027963
0.490000000000000324,0.354182883000729531
0.491000000000000325,0.343060728975311258
0.492000000000000326,0.332153934824318431
0.493000000000000327,0.321457517164853213
0.494000000000000328,0.310966602302374440
0.495000000000000329,0.300676424473059145
0.496000000000000330,0.290582324092732214
0.497000000000000330,0.280679746013023312
0.498000000000000331,0.270964237785789153
0.499000000000000332,0.261431447936311734
0.500000000000000333,0.252077124246150586
0.501000000000000334,0.242897112046353142
0.502000000000000335,0.233887352521538222
0.503000000000000336,0.225043881025635356
0.504000000000000337,0.216362825409740278
0.505000000000000338,0.207840404362736597
0.506000000000000338,0.199472925765132453
0.507000000000000339,0.191256785056654888
0.508000000000000340,0.183188463618077890
0.509000000000000341,0.175264527167627526
0.510000000000000342,0.167481624172522353
0.511000000000000343,0.159836484275874324
0.512000000000000344,0.152325916739434575
0.513000000000000345,0.144946808902446295
0.514000000000000346,0.137696124656886049
0.515000000000000346,0.130570902939474209
0.516000000000000347,0.123568256240622537
0.517000000000000348,0.116685369130582556
0.518000000000000349,0.109919496803042221
0.519000000000000350,0.103267963636302446
0.520000000000000351,0.096728161772315940
0.521000000000000352,0.090297549713583225
0.522000000000000353,0.083973650938233474
0.523000000000000353,0.077754052533250573
0.524000000000000354,0.071636403846039476
0.525000000000000355,0.065618415154384324
0.526000000000000356,0.059697856354896772
0.527000000000000357,0.053872555669964059
0.528000000000000358,0.048140398373289948
0.529000000000000359,0.042499325534003020
0.530000000000000360,0.036947332779421568
0.531000000000000361,0.031482469076379367
0.532000000000000361,0.026102835531183206
0.533000000000000362,0.020806584208124208
0.534000000000000363,0.015591916966566611
0.535000000000000364,0.010457084316477872
0.536000000000000365,0.005400384292459781
0.537000000000000366,0.000420161346099951
0.538000000000000367,-0.004485194743310555
0.539000000000000368,-0.009317249939922955
0.540000000000000369,-0.014077527004268536
0.541000000000000369,-0.018767506528248556
0.542000000000000370,-0.023388627952123858
0.543000000000000371,-0.027942290563774525
0.544000000000000372,-0.032429854480226873
0.545000000000000373,-0.036852641611654184
0.546000000000000374,-0.041211936607943145
0.547000000000000375,-0.045508987787976761
0.548000000000000376,-0.049745008051796019
0.549000000000000377,-0.053921175775750341
0.550000000000000377,-0.058038635690857120
0.551000000000000378,-0.062098499744426175
0.552000000000000379,-0.066101847945246067
0.553000000000000380,-0.070049729192372831
0.554000000000000381,-0.073943162087758252
0.555000000000000382,-0.077783135732913122
0.556000000000000383,-0.081570610509685892
0.557000000000000384,-0.085306518845470969
0.558000000000000385,-0.088991765962885411
0.559000000000000385,-0.092627230614215517
0.560000000000000386,-0.096213765800763504
0.561000000000000387,-0.099752199477277495
0.562000000000000388,-0.103243335241665249
0.563000000000000389,-0.106687953010215456
0.564000000000000390,-0.110086809678452052
0.565000000000000391,-0.113440639767873247
0.566000000000000392,-0.116750156058725602
0.567000000000000393,-0.120016050209065736
0.568000000000000393,-0.123238993360222399
0.569000000000000394,-0.126419636728931362
0.570000000000000395,-0.129558612186303435
0.571000000000000396,-0.132656532823798634
0.572000000000000397,-0.135713993506479086
0.573000000000000398,-0.138731571413632737
0.574000000000000399,-0.141709826567057023
0.575000000000000400,-0.144649302347134079
0.576000000000000401,-0.147550525996907461
0.577000000000000401,-0.150414009114403224
0.578000000000000402,-0.153240248133298118
0.579000000000000403,-0.156029724792177277
0.580000000000000404,-0.158782906592628947
0.581000000000000405,-0.161500247246218420
0.582000000000000406,-0.164182187110695155
0.583000000000000407,-0.166829153615495857
0.584000000000000408,-0.169441561676801106
0.585000000000000409,-0.172019814102311569
0.586000000000000409,-0.174564301985890402
0.587000000000000410,-0.177075405092348842
0.588000000000000411,-0.179553492232413736
0.589000000000000412,-0.181998921628226562
0.590000000000000413,-0.184412041269381322
0.591000000000000414,-0.186793189259809533
0.592000000000000415,-0.189142694155621544
0.593000000000000416,-0.191460875294079014
0.594000000000000417,-0.193748043113874724
0.595000000000000417,-0.196004499466946897
0.596000000000000418,-0.198230537921854438
0.597000000000000419,-0.200426444059054465
0.598000000000000420,-0.202592495758083857
0.599000000000000421,-0.204728963476931064
0.600000000000000422,-0.206836110523684585
0.601000000000000423,-0.208914193320617420
0.602000000000000424,-0.210963461660921781
0.603000000000000425,-0.212984158958187342
0.604000000000000425,-0.214976522488774885
0.605000000000000426,-0.216940783627283806
0.606000000000000427,-0.218877168075242018
0.607000000000000428,-0.220785896083073613
0.608000000000000429,-0.222667182665701568
0.609000000000000430,-0.224521237811642571
0.610000000000000431,-0.226348266686000082
0.611000000000000432,-0.228148469827314987
0.612000000000000433,-0.229922043338468246
0.613000000000000433,-0.231669179071806119
0.614000000000000434,-0.233390064808549014
0.615000000000000435,-0.235084884432658209
0.616000000000000436,-0.236753818099248642
0.617000000000000437,-0.238397042397761882
