# Pyrophyllite-001_CYSSCA-AC
# h[nm],U(h)[kJ/mol]
0.149999999999999994,48.423205023472789321
0.150999999999999995,46.497648801353179238
0.151999999999999996,45.822429683363992581
0.152999999999999997,45.395432415709720431
0.153999999999999998,44.857483232544424823
0.154999999999999999,44.148396404529115955
0.156000000000000000,43.322443889741052203
0.157000000000000001,42.457267886915325050
0.158000000000000002,41.615224168322555443
0.159000000000000002,40.832309520317792817
0.160000000000000003,40.120124196524777460
0.161000000000000004,39.472748397226055772
0.162000000000000005,38.874321131409459440
0.163000000000000006,38.305405402360307221
0.164000000000000007,37.747505644868525110
0.165000000000000008,37.185764837577998776
0.166000000000000009,36.610163333424033283
0.167000000000000010,36.015629742569082339
0.168000000000000010,35.401455335343335662
0.169000000000000011,34.770336667043764578
0.170000000000000012,34.127290226499603421
0.171000000000000013,33.478605720937082424
0.172000000000000014,32.830939334720696365
0.173000000000000015,32.190597552461468922
0.174000000000000016,31.563025500520872413
0.175000000000000017,30.952489360867907919
0.176000000000000018,30.361927847422883531
0.177000000000000018,29.792940601318569804
0.178000000000000019,29.245879508947560055
0.179000000000000020,28.720010591388643206
0.180000000000000021,28.213717855765146680
0.181000000000000022,27.724725293137758797
0.182000000000000023,27.250318312769714169
0.183000000000000024,26.787550825127834031
0.184000000000000025,26.333428623687002101
0.185000000000000026,25.885063509152121952
0.186000000000000026,25.439795691463945815
0.187000000000000027,24.995284405988350329
0.188000000000000028,24.549568444882034157
0.189000000000000029,24.101099511221406146
0.190000000000000030,23.648752040998353152
0.191000000000000031,23.191813496533931982
0.192000000000000032,22.729959199243992884
0.193000000000000033,22.263215616409343767
0.194000000000000034,21.791915711661133059
0.195000000000000034,21.316649567353231021
0.196000000000000035,20.838213033293914833
0.197000000000000036,20.357556685080730574
0.198000000000000037,19.875736912468205730
0.199000000000000038,19.393870522295671321
0.200000000000000039,18.913093843807377681
0.201000000000000040,18.434526973991928855
0.202000000000000041,17.959243500196272691
0.203000000000000042,17.488245787085382688
0.204000000000000042,17.022445713191309835
0.205000000000000043,16.562650585489386401
0.206000000000000044,16.109553844353055041
0.207000000000000045,15.663730091048984505
0.208000000000000046,15.225633920618218298
0.209000000000000047,14.795602019583743214
0.210000000000000048,14.373857985696920636
0.211000000000000049,13.960519341507881208
0.212000000000000050,13.555606240962276843
0.213000000000000050,13.159051405004873914
0.214000000000000051,12.770710865289675695
0.215000000000000052,12.390375142008855036
0.216000000000000053,12.017780530445195453
0.217000000000000054,11.652620219417517688
0.218000000000000055,11.294555011986016524
0.219000000000000056,10.943223463596499556
0.220000000000000057,10.598251294532328615
0.221000000000000058,10.259259971617902707
0.222000000000000058,9.925874388278192129
0.223000000000000059,9.597729602180654851
0.224000000000000060,9.274476615768261212
0.225000000000000061,8.955787207143767858
0.226000000000000062,8.641357837171245393
0.227000000000000063,8.330912673562526294
0.228000000000000064,8.024205784395686436
0.229000000000000065,7.721022562271798506
0.230000000000000066,7.421180446472274816
0.231000000000000066,7.124529014344202160
0.232000000000000067,6.830949515026235375
0.233000000000000068,6.540353918825327462
0.234000000000000069,6.252683554344250716
0.235000000000000070,5.967907403097293617
0.236000000000000071,5.686020118073026097
0.237000000000000072,5.407039828718779084
0.238000000000000073,5.131005790321697013
0.239000000000000073,4.857975930911154094
0.240000000000000074,4.588024343748945633
0.241000000000000075,4.321238768332916536
0.242000000000000076,4.057718097716846550
0.243000000000000077,3.797569944931372454
0.244000000000000078,3.540908296446531267
0.245000000000000079,3.287851275999409406
0.246000000000000080,3.038519037763443009
0.247000000000000081,2.793031803786556466
0.248000000000000081,2.551508056895711807
0.249000000000000082,2.314062896865201502
0.250000000000000111,2.080806564579407603
0.251000000000000112,1.851843136186339889
0.252000000000000113,1.627269386827322917
0.253000000000000114,1.407173821432140093
0.254000000000000115,1.191635868270292775
0.255000000000000115,0.980725229434146528
0.256000000000000116,0.774501381178237303
0.257000000000000117,0.573013216032268291
0.258000000000000118,0.376298817823597032
0.259000000000000119,0.184385360167078322
0.260000000000000120,-0.002710881413541921
0.261000000000000121,-0.184984413797294828
0.262000000000000122,-0.362440317159422432
0.263000000000000123,-0.535093952551585317
0.264000000000000123,-0.702970596120874869
0.265000000000000124,-0.866105009672661907
0.266000000000000125,-1.024540956957066928
0.267000000000000126,-1.178330674668858657
0.268000000000000127,-1.327534306709221568
0.269000000000000128,-1.472219309775837148
0.270000000000000129,-1.612459837836550891
0.271000000000000130,-1.748336112510500584
0.272000000000000131,-1.879933785836961135
0.273000000000000131,-2.007343301364480137
0.274000000000000132,-2.130659258946658863
0.275000000000000133,-2.249979788092355104
0.276000000000000134,-2.365405934191464610
0.277000000000000135,-2.477041061426494828
0.278000000000000136,-2.584990275688950678
0.279000000000000137,-2.689359870349590231
0.280000000000000138,-2.790256797285592061
0.281000000000000139,-2.887788165147148867
0.282000000000000139,-2.982060766451467337
0.283000000000000140,-3.073180634724838711
0.284000000000000141,-3.161252632573265053
0.285000000000000142,-3.246380071249237886
0.286000000000000143,-3.328664361996283017
0.287000000000000144,-3.408204699193253528
0.288000000000000145,-3.485097775086823280
0.289000000000000146,-3.559437525691244275
0.290000000000000147,-3.631314907249810542
0.291000000000000147,-3.700817702489865635
0.292000000000000148,-3.768030355762815198
0.293000000000000149,-3.833033836040165454
0.294000000000000150,-3.895905526635750959
0.295000000000000151,-3.956719140441093518
0.296000000000000152,-4.015544659394349125
0.297000000000000153,-4.072448296852195782
0.298000000000000154,-4.127492481497020194
0.299000000000000155,-4.180735861387674390
0.300000000000000155,-4.232233326749748059
0.301000000000000156,-4.282036050099549129
0.302000000000000157,-4.330191542303782448
0.303000000000000158,-4.376743723193121660
0.304000000000000159,-4.421733005371637049
0.305000000000000160,-4.465196389894211748
0.306000000000000161,-4.507167572520097032
0.307000000000000162,-4.547677059291521218
0.308000000000000163,-4.586752290231027374
0.309000000000000163,-4.624417769999514150
0.310000000000000164,-4.660695204407893755
0.311000000000000165,-4.695603641728183675
0.312000000000000166,-4.729159617804609361
0.313000000000000167,-4.761377304020788515
0.314000000000000168,-4.792268657235348783
0.315000000000000169,-4.821843570854715821
0.316000000000000170,-4.850110026268163566
0.317000000000000171,-4.877074243925674679
0.318000000000000171,-4.902740833394362951
0.319000000000000172,-4.927112941782925581
0.320000000000000173,-4.950192399976207192
0.321000000000000174,-4.971979866173089846
0.322000000000000175,-4.992474966270573411
0.323000000000000176,-5.011676430684468997
0.324000000000000177,-5.029582227243289516
0.325000000000000178,-5.046189689835675729
0.326000000000000179,-5.061495642533911266
0.327000000000000179,-5.075496518955787018
0.328000000000000180,-5.088188476665051141
0.329000000000000181,-5.099567506446493148
0.330000000000000182,-5.109629536325154042
0.331000000000000183,-5.118370530231066695
0.332000000000000184,-5.125786581240144635
0.333000000000000185,-5.131873999349603643
0.334000000000000186,-5.136629393771660723
0.335000000000000187,-5.140049749752948927
0.336000000000000187,-5.142132499948788293
0.337000000000000188,-5.142875590401265740
0.338000000000000189,-5.142277541188325252
0.339000000000000190,-5.140337501827485056
0.340000000000000191,-5.137055301532481799
0.341000000000000192,-5.132431494434659847
0.342000000000000193,-5.126467399892415067
0.343000000000000194,-5.119165138022680139
0.344000000000000195,-5.110527660597112387
0.345000000000000195,-5.100558777453851889
0.346000000000000196,-5.089263178581870051
0.347000000000000197,-5.076646452040700197
0.348000000000000198,-5.062715097882628079
0.349000000000000199,-5.047476538247820166
0.350000000000000200,-5.030939123805497459
0.351000000000000201,-5.013112136715807132
0.352000000000000202,-4.994005790288008839
0.353000000000000203,-4.973631225510710685
0.354000000000000203,-4.952000504629441302
0.355000000000000204,-4.929126601945577058
0.356000000000000205,-4.905023392009155714
0.357000000000000206,-4.879705635375871431
0.358000000000000207,-4.853188962095742021
0.359000000000000208,-4.825489853098220649
0.360000000000000209,-4.796625619634830251
0.361000000000000210,-4.766614380936866624
0.362000000000000210,-4.735475040241574618
0.363000000000000211,-4.703227259336058452
0.364000000000000212,-4.669891431763744549
0.365000000000000213,-4.635488654833413769
0.366000000000000214,-4.600040700566291996
0.367000000000000215,-4.563569985711609434
0.368000000000000216,-4.526099540956129985
0.369000000000000217,-4.487652979448119694
0.370000000000000218,-4.448254464751161485
0.371000000000000218,-4.407928678337976081
0.372000000000000219,-4.366700786729536432
0.373000000000000220,-4.324596408379472123
0.374000000000000221,-4.281641580398849456
0.375000000000000222,-4.237862725211249071
0.376000000000000223,-4.193286617223331625
0.377000000000000224,-4.147940349591033637
0.378000000000000225,-4.101851301156788310
0.379000000000000226,-4.055047103628547589
0.380000000000000226,-4.007555609066744573
0.381000000000000227,-3.959404857740749240
0.382000000000000228,-3.910623046412246229
0.383000000000000229,-3.861238497098471445
0.384000000000000230,-3.811279626364229678
0.385000000000000231,-3.760774915187706569
0.386000000000000232,-3.709752879441026607
0.387000000000000233,-3.658242041023003654
0.388000000000000234,-3.606270899677744612
0.389000000000000234,-3.553867905529499271
0.390000000000000235,-3.501061432360673908
0.391000000000000236,-3.447879751656862446
0.392000000000000237,-3.394351007439627033
0.393000000000000238,-3.340503191904947045
0.394000000000000239,-3.286364121882371592
0.395000000000000240,-3.231961416127379749
0.396000000000000241,-3.177322473456919649
0.397000000000000242,-3.122474451735624434
0.398000000000000242,-3.067444247718162487
0.399000000000000243,-3.012258477750833663
0.400000000000000244,-2.956943459333639890
0.401000000000000245,-2.901525193542208392
0.402000000000000246,-2.846029348307064666
0.403000000000000247,-2.790481242546156260
0.404000000000000248,-2.734905831145027832
0.405000000000000249,-2.679327690777532744
0.406000000000000250,-2.623771006558631935
0.407000000000000250,-2.568259559519673108
0.408000000000000251,-2.512816714895268255
0.409000000000000252,-2.457465411209985628
0.410000000000000253,-2.402228150151950459
0.411000000000000254,-2.347126987219714689
0.412000000000000255,-2.292183523127850453
0.413000000000000256,-2.237418895956071019
0.414000000000000257,-2.182853774025971028
0.415000000000000258,-2.128508349489003137
0.416000000000000258,-2.074402332608669131
0.417000000000000259,-2.020554946719603784
0.418000000000000260,-1.966984923845743083
0.419000000000000261,-1.913710500959474148
0.420000000000000262,-1.860749416863451300
0.421000000000000263,-1.808118909676462494
0.422000000000000264,-1.755835714904658618
0.423000000000000265,-1.703916064079208370
0.424000000000000266,-1.652375683941583073
0.425000000000000266,-1.601229796157368268
0.426000000000000267,-1.550493117539768040
0.427000000000000268,-1.500179860763810158
0.428000000000000269,-1.450303735552459283
0.429000000000000270,-1.400877950315944975
0.430000000000000271,-1.351915214225616113
0.431000000000000272,-1.303427739704019928
0.432000000000000273,-1.255427245312891626
0.433000000000000274,-1.207924959021088318
0.434000000000000274,-1.160931621834623950
0.435000000000000275,-1.114457491771353448
0.436000000000000276,-1.068512348163001224
0.437000000000000277,-1.023105496267545877
0.438000000000000278,-0.978245772175354689
0.439000000000000279,-0.933941547992682475
0.440000000000000280,-0.890200737286494514
0.441000000000000281,-0.847030800774964399
0.442000000000000282,-0.804438752248296973
0.443000000000000282,-0.762431164704860165
0.444000000000000283,-0.721014176688056119
0.445000000000000284,-0.680193498809645414
0.446000000000000285,-0.639974420445579284
0.447000000000000286,-0.600361816590976538
0.448000000000000287,-0.561360154860922278
0.449000000000000288,-0.522973502624499043
0.450000000000000289,-0.485205534259541271
0.451000000000000290,-0.448059538516198952
0.452000000000000290,-0.411538425977649891
0.453000000000000291,-0.375644736606723817
0.454000000000000292,-0.340380647367590106
0.455000000000000293,-0.305747979911973000
0.456000000000000294,-0.271748208319827544
0.457000000000000295,-0.238382466884673988
0.458000000000000296,-0.205651557934220547
0.459000000000000297,-0.173555959677235749
0.460000000000000298,-0.142095834067980903
0.461000000000000298,-0.111271034679899558
0.462000000000000299,-0.081081114580547370
0.463000000000000300,-0.051525334200117776
0.464000000000000301,-0.022602669186266633
0.465000000000000302,0.005688181761744571
0.466000000000000303,0.033348789086316576
0.467000000000000304,0.060380984598485156
0.468000000000000305,0.086786853744648867
0.469000000000000306,0.112568727918859260
0.470000000000000306,0.137729176826039162
0.471000000000000307,0.162271000901386409
0.472000000000000308,0.186197223790773747
0.473000000000000309,0.209511084896828681
0.474000000000000310,0.232216031994968292
0.475000000000000311,0.254315713923581765
0.476000000000000312,0.275813973352049324
0.477000000000000313,0.296714839630382365
0.478000000000000314,0.317022521723682782
0.479000000000000314,0.336741401234624482
0.480000000000000315,0.355876025516866368
0.481000000000000316,0.374431100882051004
0.482000000000000317,0.392411485902904478
0.483000000000000318,0.409822184814684298
0.484000000000000319,0.426668341017099606
0.485000000000000320,0.442955230678535705
0.486000000000000321,0.458688256444360232
0.487000000000000322,0.473872941250801094
0.488000000000000322,0.488514922245798178
0.489000000000000323,0.502619944817983000
0.490000000000000324,0.516193856734893819
0.491000000000000325,0.529242602391271966
0.492000000000000326,0.541772217168230652
0.493000000000000327,0.553788821903879125
0.494000000000000328,0.565298617475890719
0.495000000000000329,0.576307879496390840
0.496000000000000330,0.586822953119349733
0.497000000000000330,0.596850247960646785
0.498000000000000331,0.606396233130769957
0.499000000000000332,0.615467432380062518
0.500000000000000333,0.624070419356312245
0.501000000000000334,0.632211812974394438
0.502000000000000335,0.639898272897550635
0.503000000000000336,0.647136495129843725
0.504000000000000337,0.653933207719240017
0.505000000000000338,0.660295166570642800
0.506000000000000338,0.666229151368195160
0.507000000000000339,0.671741961606073801
0.508000000000000340,0.676840412726896878
0.509000000000000341,0.681531332366864584
0.510000000000000342,0.685821556706644242
0.511000000000000343,0.689717926927006397
0.512000000000000344,0.693227285768104107
0.513000000000000345,0.696356474191300534
0.514000000000000346,0.699112328142372563
0.515000000000000346,0.701501675414889059
0.516000000000000347,0.703531332612517213
0.517000000000000348,0.705208102208968013
0.518000000000000349,0.706538769704305181
0.519000000000000350,0.707530100876241574
0.520000000000000351,0.708188839125066916
0.521000000000000352,0.708521702910840712
0.522000000000000353,0.708535383281394759
0.523000000000000353,0.708236541489759008
0.524000000000000354,0.707631806699532628
0.525000000000000355,0.706727773776740009
0.526000000000000356,0.705531001166718297
0.527000000000000357,0.704048008854508023
0.528000000000000358,0.702285276407302872
0.529000000000000359,0.700249241097401165
0.530000000000000360,0.697946296104193120
0.531000000000000361,0.695382788793643791
0.532000000000000361,0.692565019073780874
0.533000000000000362,0.689499237824631850
0.534000000000000363,0.686191645401150074
0.535000000000000364,0.682648390207569733
0.536000000000000365,0.678875567341700625
0.537000000000000366,0.674879217307662760
0.538000000000000367,0.670665324795542417
0.539000000000000368,0.666239817526496858
0.540000000000000369,0.661608565161810103
0.541000000000000369,0.656777378274432055
0.542000000000000370,0.651752007381522280
0.543000000000000371,0.646538142036566787
0.544000000000000372,0.641141409979591126
0.545000000000000373,0.635567376344070345
0.546000000000000374,0.629821542919094979
0.547000000000000375,0.623909347465398056
0.548000000000000376,0.617836163083844814
0.549000000000000377,0.611607297635020419
0.550000000000000377,0.605227993208550474
0.551000000000000378,0.598703425640786602
0.552000000000000379,0.592038704079587919
0.553000000000000380,0.585238870594805283
0.554000000000000381,0.578308899833245516
0.555000000000000382,0.571253698716803093
0.556000000000000383,0.564078106182497541
0.557000000000000384,0.556786892963197277
0.558000000000000385,0.549384761407785693
0.559000000000000385,0.541876345339570076
0.560000000000000386,0.534266209951766990
0.561000000000000387,0.526558851738866740
0.562000000000000388,0.518758698462751244
0.563000000000000389,0.510870109152428364
0.564000000000000390,0.502897374136281550
0.565000000000000391,0.494844715105729804
0.566000000000000392,0.486716285209249144
0.567000000000000393,0.478516169175686623
0.568000000000000393,0.470248383465845798
0.569000000000000394,0.461916876451319069
0.570000000000000395,0.453525528619611762
0.571000000000000396,0.445078152804525451
0.572000000000000397,0.436578494440895859
0.573000000000000398,0.428030231842743025
0.574000000000000399,0.419436976503891390
0.575000000000000400,0.410802273420202702
0.576000000000000401,0.402129601432513417
0.577000000000000401,0.393422373589442986
0.578000000000000402,0.384683937529203435
0.579000000000000403,0.375917575879635701
0.580000000000000404,0.367126506675621689
0.581000000000000405,0.358313883793119126
0.582000000000000406,0.349482797399054246
0.583000000000000407,0.340636274416287743
0.584000000000000408,0.331777279002990255
0.585000000000000409,0.322908713045654272
0.586000000000000409,0.314033416665066067
0.587000000000000410,0.305154168734585618
0.588000000000000411,0.296273687410035014
0.589000000000000412,0.287394630670578632
0.590000000000000413,0.278519596869956587
0.591000000000000414,0.269651125297461491
0.592000000000000415,0.260791696748072954
0.593000000000000416,0.251943734101151895
0.594000000000000417,0.243109602907145256
0.595000000000000417,0.234291611981767650
0.596000000000000418,0.225492014007077302
0.597000000000000419,0.216713006139000075
0.598000000000000420,0.207956730620724783
0.599000000000000421,0.199225275401548663
0.600000000000000422,0.190520674760638442
0.601000000000000423,0.181844909935297394
0.602000000000000424,0.173199909753260523
0.603000000000000425,0.164587551268587012
0.604000000000000425,0.156009660400748734
0.605000000000000426,0.147468012576496721
0.606000000000000427,0.138964333374095111
0.607000000000000428,0.130500299169585998
0.608000000000000429,0.122077537784646736
0.609000000000000430,0.113697629135772499
0.610000000000000431,0.105362105884346496
0.611000000000000432,0.097072454087327814
0.612000000000000433,0.088830113848223577
0.613000000000000433,0.080636479967993016
0.614000000000000434,0.072492902595649569
0.615000000000000435,0.064400687878216623
0.616000000000000436,0.056361098609779357
0.617000000000000437,0.048375354879369087
