# Pyrophyllite-001_EST-AC
# h[nm],U(h)[kJ/mol]
0.149999999999999994,72.541386258688447697
0.150999999999999995,70.780403587401522714
0.151999999999999996,69.570677309715051706
0.152999999999999997,68.493125973536209017
0.153999999999999998,67.391715451209790899
0.154999999999999999,66.235231508903112285
0.156000000000000000,65.042046020125937389
0.157000000000000001,63.842234374724192492
0.158000000000000002,62.660949941111354633
0.159000000000000002,61.513194988802140983
0.160000000000000003,60.404135441653203031
0.161000000000000004,59.331635551675319107
0.162000000000000005,58.289245938386862633
0.163000000000000006,57.268807246760694341
0.164000000000000007,56.262361137733662986
0.165000000000000008,55.263341936706055435
0.166000000000000009,54.267154784613332197
0.167000000000000010,53.271292839002271080
0.168000000000000010,52.275146616923770182
0.169000000000000011,51.279637094513908835
0.170000000000000012,50.286774778675194852
0.171000000000000013,49.299217380659349885
0.172000000000000014,48.319872759557689790
0.173000000000000015,47.351572940497689501
0.174000000000000016,46.396829407957795866
0.175000000000000017,45.457669014086874881
0.176000000000000018,44.535542922849813863
0.177000000000000018,43.631297167829629302
0.178000000000000019,42.745191826803797142
0.179000000000000020,41.876955815887853873
0.180000000000000021,41.025865318253444514
0.181000000000000022,40.190835454001380356
0.182000000000000023,39.370516650049943053
0.183000000000000024,38.563389059155412042
0.184000000000000025,37.767850159436150648
0.185000000000000026,36.982292252998341553
0.186000000000000026,36.205167930980373114
0.187000000000000027,35.435042669852279573
0.188000000000000028,34.670634578085781641
0.189000000000000029,33.910841944147591676
0.190000000000000030,33.154759674001283543
0.191000000000000031,32.401685979643474411
0.192000000000000032,31.651120820384726073
0.193000000000000033,30.902757634519140595
0.194000000000000034,30.156469856707019517
0.195000000000000034,29.412293618353317015
0.196000000000000035,28.670407893430468249
0.197000000000000036,27.931113195981634334
0.198000000000000037,27.194809770124372506
0.199000000000000038,26.461976048038337694
0.200000000000000039,25.733147992954620520
0.201000000000000040,25.008899797261051390
0.202000000000000041,24.289826273476336382
0.203000000000000042,23.576527159637507225
0.204000000000000042,22.869593461140503621
0.205000000000000043,22.169595868034804198
0.206000000000000044,21.477075219387277372
0.207000000000000045,20.792534933407416986
0.208000000000000046,20.116435282133938500
0.209000000000000047,19.449189361073653259
0.210000000000000048,18.791160585676351502
0.211000000000000049,18.142661536382597376
0.212000000000000050,17.503953970727383904
0.213000000000000050,16.875249823278316796
0.214000000000000051,16.256713020806575543
0.215000000000000052,15.648461949959534323
0.216000000000000053,15.050572426885963750
0.217000000000000054,14.463081031959925227
0.218000000000000055,13.885988687290005572
0.219000000000000056,13.319264369539311588
0.220000000000000057,12.762848865276797738
0.221000000000000058,12.216658490296927297
0.222000000000000058,11.680588707816777827
0.223000000000000059,11.154517593012929666
0.224000000000000060,10.638309102865541433
0.225000000000000061,10.131816120667775039
0.226000000000000062,9.634883253804847669
0.227000000000000063,9.147349371514041039
0.228000000000000064,8.669049876336647031
0.229000000000000065,8.199818708915280752
0.230000000000000066,7.739490090742340733
0.231000000000000066,7.287900013500852481
0.232000000000000067,6.844887486840423030
0.233000000000000068,6.410295558880809708
0.234000000000000069,5.983972125518439711
0.235000000000000070,5.565770545808959469
0.236000000000000071,5.155550081391021777
0.237000000000000072,4.753176178176067523
0.238000000000000073,4.358520608427283172
0.239000000000000073,3.971461490951325057
0.240000000000000074,3.591883206484840940
0.241000000000000075,3.219676224530493958
0.242000000000000076,2.854736856926356925
0.243000000000000077,2.496966952360998526
0.244000000000000078,2.146273544909246489
0.245000000000000079,1.802568468490138853
0.246000000000000080,1.465767947965690876
0.247000000000000081,1.135792176426000166
0.248000000000000081,0.812564887062959373
0.249000000000000082,0.496012926933136644
0.250000000000000111,0.186065838861948663
0.251000000000000112,-0.117344543245523431
0.252000000000000113,-0.414284481342732103
0.253000000000000114,-0.704818698932916377
0.254000000000000115,-0.989010722795855557
0.255000000000000115,-1.266923198735906197
0.256000000000000116,-1.538618179969753141
0.257000000000000117,-1.804157387334007989
0.258000000000000118,-2.063602440986480602
0.259000000000000119,-2.317015063704514155
0.260000000000000120,-2.564457256252180795
0.261000000000000121,-2.805991445599028467
0.262000000000000122,-3.041680607031750139
0.263000000000000123,-3.271588361409339285
0.264000000000000123,-3.495779048977897929
0.265000000000000124,-3.714317781285893183
0.266000000000000125,-3.927270472829867742
0.267000000000000126,-4.134703854117210753
0.268000000000000127,-4.336685467861626009
0.269000000000000128,-4.533283650030404566
0.270000000000000129,-4.724567497445649522
0.271000000000000130,-4.910606823606245896
0.272000000000000131,-5.091472104346578931
0.273000000000000131,-5.267234414885225036
0.274000000000000132,-5.437965359743545335
0.275000000000000133,-5.603736996933371906
0.276000000000000134,-5.764621757726201778
0.277000000000000135,-5.920692363225219523
0.278000000000000136,-6.072021738868595087
0.279000000000000137,-6.218682927897733137
0.280000000000000138,-6.360749004729738587
0.281000000000000139,-6.498292989080299620
0.282000000000000139,-6.631387761591616581
0.283000000000000140,-6.760105981631492789
0.284000000000000141,-6.884520007844223244
0.285000000000000142,-7.004701821952413532
0.286000000000000143,-7.120722956231416489
0.287000000000000144,-7.232654425004696463
0.288000000000000145,-7.340566660440662972
0.289000000000000146,-7.444529452866954777
0.290000000000000147,-7.544611895759979703
0.291000000000000147,-7.640882335512837464
0.292000000000000148,-7.733408326035773328
0.293000000000000149,-7.822256588198106542
0.294000000000000150,-7.907492974080776449
0.295000000000000151,-7.989182435972391083
0.296000000000000152,-8.067389000010265931
0.297000000000000153,-8.142175744340070409
0.298000000000000154,-8.213604781643853769
0.299000000000000155,-8.281737245865960162
0.300000000000000155,-8.346633282949261101
0.301000000000000156,-8.408352045380322437
0.302000000000000157,-8.466951690331237401
0.303000000000000158,-8.522489381177463130
0.304000000000000159,-8.575021292165310172
0.305000000000000160,-8.624602615998938404
0.306000000000000161,-8.671287574115407182
0.307000000000000162,-8.715129429416432316
0.308000000000000163,-8.756180501227358803
0.309000000000000163,-8.794492182257370061
0.310000000000000164,-8.830114957339409543
0.311000000000000165,-8.863098423734067310
0.312000000000000166,-8.893491312788420089
0.313000000000000167,-8.921341512748215408
0.314000000000000168,-8.946696092529940358
0.315000000000000169,-8.969601326268062280
0.316000000000000170,-8.990102718461926656
0.317000000000000171,-9.008245029556075423
0.318000000000000171,-9.024072301797566809
0.319000000000000172,-9.037627885223793456
0.320000000000000173,-9.048954463643976709
0.321000000000000174,-9.058094080487586908
0.322000000000000175,-9.065088164402666848
0.323000000000000176,-9.069977554496784222
0.324000000000000177,-9.072802525122858341
0.325000000000000178,-9.073602810121249362
0.326000000000000179,-9.072417626438838312
0.327000000000000179,-9.069285697054306539
0.328000000000000180,-9.064245273147317761
0.329000000000000181,-9.057334155457642311
0.330000000000000182,-9.048589714787583560
0.331000000000000183,-9.038048911608944636
0.332000000000000184,-9.025748314742351397
0.333000000000000185,-9.011724119083686091
0.334000000000000186,-8.996012162358464792
0.335000000000000187,-8.978647940890912338
0.336000000000000187,-8.959666624380039579
0.337000000000000188,-8.939103069679843472
0.338000000000000189,-8.916991833585921512
0.339000000000000190,-8.893367184634765721
0.340000000000000191,-8.868263113926133201
0.341000000000000192,-8.841713344982665035
0.342000000000000193,-8.813751342663975308
0.343000000000000194,-8.784410321155785795
0.344000000000000195,-8.753723251056882759
0.345000000000000195,-8.721722865589622842
0.346000000000000196,-8.688441665961253335
0.347000000000000197,-8.653911925905534375
0.348000000000000198,-8.618165695435525464
0.349000000000000199,-8.581234803839723924
0.350000000000000200,-8.543150861954901032
0.351000000000000201,-8.503945263749795203
0.352000000000000202,-8.463649187254445039
0.353000000000000203,-8.422293594870541966
0.354000000000000203,-8.379909233098381094
0.355000000000000204,-8.336526631716095537
0.356000000000000205,-8.292176102446919828
0.357000000000000206,-8.246887737150110809
0.358000000000000207,-8.200691405570612602
0.359000000000000208,-8.153616752682490088
0.360000000000000209,-8.105693195660387929
0.361000000000000210,-8.056949920512774810
0.362000000000000210,-8.007415878410004240
0.363000000000000211,-7.957119781739439013
0.364000000000000212,-7.906090099919166114
0.365000000000000213,-7.854355055000683095
0.366000000000000214,-7.801942617090280585
0.367000000000000215,-7.748880499617603945
0.368000000000000216,-7.695196154479054584
0.369000000000000217,-7.640916767082394756
0.370000000000000218,-7.586069251318176221
0.371000000000000218,-7.530680244482072183
0.372000000000000219,-7.474776102171491132
0.373000000000000220,-7.418382893178497639
0.374000000000000221,-7.361526394400002005
0.375000000000000222,-7.304232085784995832
0.376000000000000223,-7.246525145337673557
0.377000000000000224,-7.188430444193947721
0.378000000000000225,-7.129972541787905627
0.379000000000000226,-7.071175681123631485
0.380000000000000226,-7.012063784166801206
0.381000000000000227,-6.952660447369288121
0.382000000000000228,-6.892988937339184830
0.383000000000000229,-6.833072186667483727
0.384000000000000230,-6.772932789921723540
0.385000000000000231,-6.712592999816086703
0.386000000000000232,-6.652074723566319570
0.387000000000000233,-6.591399519437120880
0.388000000000000234,-6.530588593488647398
0.389000000000000234,-6.469662796528169224
0.390000000000000235,-6.408642621271797069
0.391000000000000236,-6.347548199720798756
0.392000000000000237,-6.286399300755933339
0.393000000000000238,-6.225215327952879463
0.394000000000000239,-6.164015317620815892
0.395000000000000240,-6.102817937065887044
0.396000000000000241,-6.041641483080478103
0.397000000000000242,-5.980503880658674554
0.398000000000000242,-5.919422681937886566
0.399000000000000243,-5.858415065365863761
0.400000000000000244,-5.797497835092018548
0.401000000000000245,-5.736687420581513486
0.402000000000000246,-5.675999876450035231
0.403000000000000247,-5.615450882516832110
0.404000000000000248,-5.555055744073284174
0.405000000000000249,-5.494829392363843823
0.406000000000000250,-5.434786385275867993
0.407000000000000250,-5.374940908234643544
0.408000000000000251,-5.315306775299525555
0.409000000000000252,-5.255897430456997199
0.410000000000000253,-5.196725949106085984
0.411000000000000254,-5.137805039731483170
0.412000000000000255,-5.079147045759475176
0.413000000000000256,-5.020763947591670551
0.414000000000000257,-4.962667364811273352
0.415000000000000258,-4.904868558556682245
0.416000000000000258,-4.847378434056932583
0.417000000000000259,-4.790207543323496076
0.418000000000000260,-4.733366087992882498
0.419000000000000261,-4.676863922314342226
0.420000000000000262,-4.620710556277047409
0.421000000000000263,-4.564915158871007961
0.422000000000000264,-4.509486561475986477
0.423000000000000265,-4.454433261372617636
0.424000000000000266,-4.399763425370155190
0.425000000000000266,-4.345484893544915295
0.426000000000000267,-4.291605183083881947
0.427000000000000268,-4.238131492227741326
0.428000000000000269,-4.185070704307735312
0.429000000000000270,-4.132429391870831026
0.430000000000000271,-4.080213820887586884
0.431000000000000272,-4.028429955037420740
0.432000000000000273,-3.977083460065799159
0.433000000000000274,-3.926179708208172858
0.434000000000000274,-3.875723782675349671
0.435000000000000275,-3.825720482195314354
0.436000000000000276,-3.776174325606425075
0.437000000000000277,-3.727089556497052314
0.438000000000000278,-3.678470147886924391
0.439000000000000279,-3.630319806945450090
0.440000000000000280,-3.582641979742369642
0.441000000000000281,-3.535439856026342031
0.442000000000000282,-3.488716374027075240
0.443000000000000282,-3.442474225276689115
0.444000000000000283,-3.396715859446268748
0.445000000000000284,-3.351443489193556502
0.446000000000000285,-3.306659095017798311
0.447000000000000286,-3.262364430118176895
0.448000000000000287,-3.218561025251925223
0.449000000000000288,-3.175250193588801118
0.450000000000000289,-3.132433035558351175
0.451000000000000290,-3.090110443686763020
0.452000000000000290,-3.048283107420096449
0.453000000000000291,-3.006951517930817275
0.454000000000000292,-2.966115972904758813
0.455000000000000293,-2.925776581305593815
0.456000000000000294,-2.885933268114212247
0.457000000000000295,-2.846585779040346154
0.458000000000000296,-2.807733685203975149
0.459000000000000297,-2.769376387784193927
0.460000000000000298,-2.731513122633194790
0.461000000000000298,-2.694142964853332156
0.462000000000000299,-2.657264833335135634
0.463000000000000300,-2.620877495254368306
0.464000000000000301,-2.584979570526315662
0.465000000000000302,-2.549569536215573251
0.466000000000000303,-2.514645730899652598
0.467000000000000304,-2.480206358984921255
0.468000000000000305,-2.446249494973428362
0.469000000000000306,-2.412773087679233708
0.470000000000000306,-2.379774964393043923
0.471000000000000307,-2.347252834993895920
0.472000000000000308,-2.315204296006908358
0.473000000000000309,-2.283626834605999800
0.474000000000000310,-2.252517832560740008
0.475000000000000311,-2.221874570126392889
0.476000000000000312,-2.191694229876546274
0.477000000000000313,-2.161973900477431876
0.478000000000000314,-2.132710580403477607
0.479000000000000314,-2.103901181593506031
0.480000000000000315,-2.075542533047026961
0.481000000000000316,-2.047631384360331097
0.482000000000000317,-2.020164409201902878
0.483000000000000318,-1.993138208726972227
0.484000000000000319,-1.966549314930884806
0.485000000000000320,-1.940394193941193279
0.486000000000000321,-1.914669249248277527
0.487000000000000322,-1.889370824874478050
0.488000000000000322,-1.864495208481670829
0.489000000000000323,-1.840038634417390906
0.490000000000000324,-1.815997286699492674
0.491000000000000325,-1.792367301939542967
0.492000000000000326,-1.769144772205041294
0.493000000000000327,-1.746325747820737462
0.494000000000000328,-1.723906240109247978
0.495000000000000329,-1.701882224071256999
0.496000000000000330,-1.680249641005624239
0.497000000000000330,-1.659004401069755996
0.498000000000000331,-1.638142385780578802
0.499000000000000332,-1.617659450456603976
0.500000000000000333,-1.597551426601441893
0.501000000000000334,-1.577814124229270476
0.502000000000000335,-1.558443334132757041
0.503000000000000336,-1.539434830093941331
0.504000000000000337,-1.520784371038601535
0.505000000000000338,-1.502487703134691488
0.506000000000000338,-1.484540561835427042
0.507000000000000339,-1.466938673867583365
0.508000000000000340,-1.449677759165665325
0.509000000000000341,-1.432753532752575776
0.510000000000000342,-1.416161706567400369
0.511000000000000343,-1.399897991240996564
0.512000000000000344,-1.383958097820053634
0.513000000000000345,-1.368337739440305789
0.514000000000000346,-1.353032632949613401
0.515000000000000346,-1.338038500481581350
0.516000000000000347,-1.323351070980452793
0.517000000000000348,-1.308966081678028859
0.518000000000000349,-1.294879279523264426
0.519000000000000350,-1.281086422565355765
0.520000000000000351,-1.267583281291013941
0.521000000000000352,-1.254365639916681152
0.522000000000000353,-1.241429297636442719
0.523000000000000353,-1.228770069826349509
0.524000000000000354,-1.216383789205977228
0.525000000000000355,-1.204266306957884280
0.526000000000000356,-1.192413493805787539
0.527000000000000357,-1.180821241052203208
0.528000000000000358,-1.169485461576248442
0.529000000000000359,-1.158402090792453043
0.530000000000000360,-1.147567087571232047
0.531000000000000361,-1.136976435121848095
0.532000000000000361,-1.126626141838540818
0.533000000000000362,-1.116512242110634379
0.534000000000000363,-1.106630797097302388
0.535000000000000364,-1.096977895467753594
0.536000000000000365,-1.087549654107569985
0.537000000000000366,-1.078342218791916940
0.538000000000000367,-1.069351764826332207
0.539000000000000368,-1.060574497655848214
0.540000000000000369,-1.052006653443100737
0.541000000000000369,-1.043644499616179777
0.542000000000000370,-1.035484335386888333
0.543000000000000371,-1.027522492240098506
0.544000000000000372,-1.019755334394912172
0.545000000000000373,-1.012179259238275231
0.546000000000000374,-1.004790697731725357
0.547000000000000375,-0.997586114791929268
0.548000000000000376,-0.990562009645684638
0.549000000000000377,-0.983714916159999064
0.550000000000000377,-0.977041403147892007
0.551000000000000378,-0.970538074650578730
0.552000000000000379,-0.964201570196607904
0.553000000000000380,-0.958028565038617330
0.554000000000000381,-0.952015770368255354
0.555000000000000382,-0.946159933509927553
0.556000000000000383,-0.940457838093886167
0.557000000000000384,-0.934906304209304984
0.558000000000000385,-0.929502188537858265
0.559000000000000385,-0.924242384468401790
0.560000000000000386,-0.919123822193267714
0.561000000000000387,-0.914143468786762781
0.562000000000000388,-0.909298328266358147
0.563000000000000389,-0.904585441637130616
0.564000000000000390,-0.900001886919944427
0.565000000000000391,-0.895544779163898519
0.566000000000000392,-0.891211270443524661
0.567000000000000393,-0.886998549841237605
0.568000000000000393,-0.882903843415497436
0.569000000000000394,-0.878924414155183520
0.570000000000000395,-0.875057561920605353
0.571000000000000396,-0.871300623371637051
0.572000000000000397,-0.867650971883412558
0.573000000000000398,-0.864106017449984498
0.574000000000000399,-0.860663206576435136
0.575000000000000400,-0.857320022159788642
0.576000000000000401,-0.854073983359188604
0.577000000000000401,-0.850922645455722049
0.578000000000000402,-0.847863599702275650
0.579000000000000403,-0.844894473163806836
0.580000000000000404,-0.842012928548441564
0.581000000000000405,-0.839216664029708959
0.582000000000000406,-0.836503413060326495
0.583000000000000407,-0.833870944177855677
0.584000000000000408,-0.831317060802578944
0.585000000000000409,-0.828839601027938189
0.586000000000000409,-0.826436437403868296
0.587000000000000410,-0.824105476713328455
0.588000000000000411,-0.821844659742359651
0.589000000000000412,-0.819651961043978639
0.590000000000000413,-0.817525388696179967
0.591000000000000414,-0.815462984054367235
0.592000000000000415,-0.813462821498487032
0.593000000000000416,-0.811523008175126903
0.594000000000000417,-0.809641683734871109
0.595000000000000417,-0.807817020065170865
0.596000000000000418,-0.806047221018960536
0.597000000000000419,-0.804330522139313331
0.598000000000000420,-0.802665190380339566
0.599000000000000421,-0.801049523824582721
0.600000000000000422,-0.799481851397143783
0.601000000000000423,-0.797960532576752479
0.602000000000000424,-0.796483957104000551
0.603000000000000425,-0.795050544686962013
0.604000000000000425,-0.793658744704389685
0.605000000000000426,-0.792307035906688051
0.606000000000000427,-0.790993926114894608
0.607000000000000428,-0.789717951917767946
0.608000000000000429,-0.788477678367308310
0.609000000000000430,-0.787271698672708076
0.610000000000000431,-0.786098633893087650
0.611000000000000432,-0.784957132629044319
0.612000000000000433,-0.783845870713232307
0.613000000000000433,-0.782763550900158811
