# Pyrophyllite-001_BGLCNA-AC
# h[nm],U(h)[kJ/mol]
0.149999999999999994,145.729305967382231302
0.150999999999999995,142.915132635141418405
0.151999999999999996,141.115809193309843295
0.152999999999999997,139.488670954330757468
0.153999999999999998,137.734928172433200189
0.154999999999999999,135.811412805689030847
0.156000000000000000,133.773815128706047517
0.157000000000000001,131.698011121515122568
0.158000000000000002,129.645884422138522041
0.159000000000000002,127.655010608851853249
0.160000000000000003,125.739930151235313360
0.161000000000000004,123.898024761843473129
0.162000000000000005,122.116278078972442245
0.163000000000000006,120.377155249848257768
0.164000000000000007,118.662953038534169536
0.165000000000000008,116.958568203866363433
0.166000000000000009,115.252913541560843669
0.167000000000000010,113.539310913979960560
0.168000000000000010,111.815192315100006226
0.169000000000000011,110.081394575032419425
0.170000000000000012,108.341270650114623209
0.171000000000000013,106.599777103128189992
0.172000000000000014,104.862641565784514341
0.173000000000000015,103.135668929841926911
0.174000000000000016,101.424211152602453012
0.175000000000000017,99.732801843448129375
0.176000000000000018,98.064941542515526862
0.177000000000000018,96.423010980804690462
0.178000000000000019,94.808285903400260963
0.179000000000000020,93.221026759181341959
0.180000000000000021,91.660618503579058824
0.181000000000000022,90.125738990320328980
0.182000000000000023,88.614538252585163036
0.183000000000000024,87.124814908208477959
0.184000000000000025,85.654179647425749522
0.185000000000000026,84.200199082773906412
0.186000000000000026,82.760516061375625441
0.187000000000000027,81.332944829515241736
0.188000000000000028,79.915541213093021611
0.189000000000000029,78.506649278588980678
0.190000000000000030,77.104926826711647436
0.191000000000000031,75.709352610718312349
0.192000000000000032,74.319218429582932117
0.193000000000000033,72.934109285081234475
0.194000000000000034,71.553874667586839564
0.195000000000000034,70.178593796577246167
0.196000000000000035,68.808537329359438672
0.197000000000000036,67.444127698510158098
0.198000000000000037,66.085899871066970945
0.199000000000000038,64.734463960358112899
0.200000000000000039,63.390470778809955732
0.201000000000000040,62.054581106810474012
0.202000000000000041,60.727439174677442679
0.203000000000000042,59.409650614925752166
0.204000000000000042,58.101764940999103715
0.205000000000000043,56.804262445359768208
0.206000000000000044,55.517545282032571663
0.207000000000000045,54.241932403292231868
0.208000000000000046,52.977657953603952024
0.209000000000000047,51.724872682399208657
0.210000000000000048,50.483647916994620175
0.211000000000000049,49.253981634275660895
0.212000000000000050,48.035806181219896871
0.213000000000000050,46.828997216785005264
0.214000000000000051,45.633383478311642989
0.215000000000000052,44.448757011926360860
0.216000000000000053,43.274883546353549946
0.217000000000000054,42.111512731273776922
0.218000000000000055,40.958388003431373647
0.219000000000000056,39.815255884921938900
0.220000000000000057,38.681874557554223770
0.221000000000000058,37.558021594210188709
0.222000000000000058,36.443500762215869315
0.223000000000000059,35.338147844588363000
0.224000000000000060,34.241835452452967559
0.225000000000000061,33.154476825885765834
0.226000000000000062,32.076028640965382976
0.227000000000000063,31.006492858030519244
0.228000000000000064,29.945917660209460109
0.229000000000000065,28.894397542421398128
0.230000000000000066,27.852072619493231542
0.231000000000000066,26.819127228037366706
0.232000000000000067,25.795787900566562456
0.233000000000000068,24.782320792236269824
0.234000000000000069,23.779028640865853106
0.235000000000000070,22.786247339739741591
0.236000000000000071,21.804342200362313520
0.237000000000000072,20.833703979050280708
0.238000000000000073,19.874744737194014021
0.239000000000000073,18.927893600384404493
0.240000000000000074,17.993592476541731884
0.241000000000000075,17.072291787847600375
0.242000000000000076,16.164446265788786405
0.243000000000000077,15.270510853082324587
0.244000000000000078,14.390936750758561047
0.245000000000000079,13.526167643304637167
0.246000000000000080,12.676636129583917167
0.247000000000000081,11.842760382290368426
0.248000000000000081,11.024941054016526465
0.249000000000000082,10.223558443633978143
0.250000000000000111,9.438969932627426118
0.251000000000000112,8.671507697300572914
0.252000000000000113,7.921476699387417497
0.253000000000000114,7.189152954561168762
0.254000000000000115,6.474782075622170119
0.255000000000000115,5.778578084765851663
0.256000000000000116,5.100722487263098515
0.257000000000000117,4.441363597117752526
0.258000000000000118,3.800616103782922472
0.259000000000000119,3.178560867799396839
0.260000000000000120,2.575244932249143748
0.261000000000000121,1.990681736175919481
0.262000000000000122,1.424851515591425866
0.263000000000000123,0.877701877343947445
0.264000000000000123,0.349148530953910741
0.265000000000000124,-0.160923836497016193
0.266000000000000125,-0.652660557220557380
0.267000000000000126,-1.126235865882137421
0.268000000000000127,-1.581851683292124999
0.269000000000000128,-2.019736314427549750
0.270000000000000129,-2.440143074085938224
0.271000000000000130,-2.843348852914402869
0.272000000000000131,-3.229652635948963457
0.273000000000000131,-3.599373985154585398
0.274000000000000132,-3.952851496783099439
0.275000000000000133,-4.290441243674811389
0.276000000000000134,-4.612515211927290082
0.277000000000000135,-4.919459740647964985
0.278000000000000136,-5.211673972804830690
0.279000000000000137,-5.489568324493543372
0.280000000000000138,-5.753562979256892973
0.281000000000000139,-6.004086413427607738
0.282000000000000139,-6.241573957819898766
0.283000000000000140,-6.466466400473949605
0.284000000000000141,-6.679208634560742652
0.285000000000000142,-6.880248354986096437
0.286000000000000143,-7.070034806692466312
0.287000000000000144,-7.249017587146219910
0.288000000000000145,-7.417645505018528596
0.289000000000000146,-7.576365496617329498
0.290000000000000147,-7.725621601209790690
0.291000000000000147,-7.865853995985003344
0.292000000000000148,-7.997498091048802493
0.293000000000000149,-8.120983684512301792
0.294000000000000150,-8.236734177435458548
0.295000000000000151,-8.345165848113675011
0.296000000000000152,-8.446687184948608262
0.297000000000000153,-8.541698276923987976
0.298000000000000154,-8.630590260510317080
0.299000000000000155,-8.713744821649484606
0.300000000000000155,-8.791533751319159151
0.301000000000000156,-8.864318553046349081
0.302000000000000157,-8.932450100629159451
0.303000000000000158,-8.996268344233087078
0.304000000000000159,-9.056102062953183207
0.305000000000000160,-9.112268661873748954
0.306000000000000161,-9.165074011612903249
0.307000000000000162,-9.214812328308049416
0.308000000000000163,-9.261766091979634297
0.309000000000000163,-9.306206001203356948
0.310000000000000164,-9.348390962024071271
0.311000000000000165,-9.388568109056905087
0.312000000000000166,-9.426972856742224849
0.313000000000000167,-9.463828978748992427
0.314000000000000168,-9.499348713556502233
0.315000000000000169,-9.533732894285053661
0.316000000000000170,-9.567171100892513991
0.317000000000000171,-9.599841832903685201
0.318000000000000171,-9.631912700894041279
0.319000000000000172,-9.663540635006672375
0.320000000000000173,-9.694872108841192215
0.321000000000000174,-9.726043377115411559
0.322000000000000175,-9.757180725564490231
0.323000000000000176,-9.788400731606721195
0.324000000000000177,-9.819810534371118393
0.325000000000000178,-9.851508112747378476
0.326000000000000179,-9.883582570185412308
0.327000000000000179,-9.916114425036896662
0.328000000000000180,-9.949175905296669953
0.329000000000000181,-9.982831246666487246
0.330000000000000182,-10.017136992926690908
0.331000000000000183,-10.052142297664207859
0.332000000000000184,-10.087889226465769354
0.333000000000000185,-10.124413058745172833
0.334000000000000186,-10.161742588431106782
0.335000000000000187,-10.199900422798403810
0.336000000000000187,-10.238903278780098205
0.337000000000000188,-10.278762276150001043
0.338000000000000189,-10.319483227016696958
0.339000000000000190,-10.361066921118231576
0.340000000000000191,-10.403509406453649078
0.341000000000000192,-10.446802264832651730
0.342000000000000193,-10.490932881967022894
0.343000000000000194,-10.535884711768851218
0.344000000000000195,-10.581637534558812064
0.345000000000000195,-10.628167708925518653
0.346000000000000196,-10.675448417011052626
0.347000000000000197,-10.723449903031708530
0.348000000000000198,-10.772139704873584520
0.349000000000000199,-10.821482878632540547
0.350000000000000200,-10.871442215995326563
0.351000000000000201,-10.921978454384998258
0.352000000000000202,-10.973050479817482383
0.353000000000000203,-11.024615522439288995
0.354000000000000203,-11.076629344737128235
0.355000000000000204,-11.129046422429619057
0.356000000000000205,-11.181820118069687453
0.357000000000000206,-11.234902847402777226
0.358000000000000207,-11.288246238541068678
0.359000000000000208,-11.341801284028392161
0.360000000000000209,-11.395518485883089355
0.361000000000000210,-11.449347993717610805
0.362000000000000210,-11.503239736044507779
0.363000000000000211,-11.557143544887523490
0.364000000000000212,-11.611009273825294130
0.365000000000000213,-11.664786909602463894
0.366000000000000214,-11.718426677449706119
0.367000000000000215,-11.771879140259731145
0.368000000000000216,-11.825095291771685169
0.369000000000000217,-11.878026643919955774
0.370000000000000218,-11.930625308507456950
0.371000000000000218,-11.982844073365800597
0.372000000000000219,-12.034636473167291015
0.373000000000000220,-12.085956855055176362
0.374000000000000221,-12.136760439259546729
0.375000000000000222,-12.187003374866916872
0.376000000000000223,-12.236642790911897549
0.377000000000000224,-12.285636842958487236
0.378000000000000225,-12.333944755338370314
0.379000000000000226,-12.381526859212025116
0.380000000000000226,-12.428344626617571222
0.381000000000000227,-12.474360700669956614
0.382000000000000228,-12.519538922071692610
0.383000000000000229,-12.563844352093584078
0.384000000000000230,-12.607243292181838257
0.385000000000000231,-12.649703300345054302
0.386000000000000232,-12.691193204471741041
0.387000000000000233,-12.731683112726184248
0.388000000000000234,-12.771144421167065275
0.389000000000000234,-12.809549818730349813
0.390000000000000235,-12.846873289714093147
0.391000000000000236,-12.883090113899978491
0.392000000000000237,-12.918176864442227014
0.393000000000000238,-12.952111403651580090
0.394000000000000239,-12.984872876797822983
0.395000000000000240,-13.016441704051214145
0.396000000000000241,-13.046799570679112890
0.397000000000000242,-13.075929415610620055
0.398000000000000242,-13.103815418478319543
0.399000000000000243,-13.130442985242481768
0.400000000000000244,-13.155798732499571102
0.401000000000000245,-13.179870470573098018
0.402000000000000246,-13.202647185481376724
0.403000000000000247,-13.224119019873180392
0.404000000000000248,-13.244277253018708507
0.405000000000000249,-13.263114279939918205
0.406000000000000250,-13.280623589760704562
0.407000000000000250,-13.296799743354227985
0.408000000000000251,-13.311638350361292282
0.409000000000000252,-13.325136045650477712
0.410000000000000253,-13.337290465287534147
0.411000000000000254,-13.348100222078556953
0.412000000000000255,-13.357564880748196146
0.413000000000000256,-13.365684932811694452
0.414000000000000257,-13.372461771195904845
0.415000000000000258,-13.377897664662540933
0.416000000000000258,-13.381995732083456829
0.417000000000000259,-13.384759916615442066
0.418000000000000260,-13.386194959819539108
0.419000000000000261,-13.386306375767077270
0.420000000000000262,-13.385100425172501204
0.421000000000000263,-13.382584089590736198
0.422000000000000264,-13.378765045714121840
0.423000000000000265,-13.373651639802522695
0.424000000000000266,-13.367252862277521075
0.425000000000000266,-13.359578322509637616
0.426000000000000267,-13.350638223825933792
0.427000000000000268,-13.340443338763051884
0.428000000000000269,-13.329004984589122529
0.429000000000000270,-13.316334999116284266
0.430000000000000271,-13.302445716823678268
0.431000000000000272,-13.287349945309482990
0.432000000000000273,-13.271060942088672263
0.433000000000000274,-13.253592391751951141
0.434000000000000274,-13.234958383499892065
0.435000000000000275,-13.215173389064755582
0.436000000000000276,-13.194252241031481532
0.437000000000000277,-13.172210111567816071
0.438000000000000278,-13.149062491572616196
0.439000000000000279,-13.124825170250119299
0.440000000000000280,-13.099514215116874638
0.441000000000000281,-13.073145952447166707
0.442000000000000282,-13.045736948161742674
0.443000000000000282,-13.017303989163584887
0.444000000000000283,-12.987864065123943647
0.445000000000000284,-12.957434350720683724
0.446000000000000285,-12.926032188330470518
0.447000000000000286,-12.893675071175564995
0.448000000000000287,-12.860380626925055125
0.449000000000000288,-12.826166601750216500
0.450000000000000289,-12.791050844832527744
0.451000000000000290,-12.755051293322660300
0.452000000000000290,-12.718185957748238124
0.453000000000000291,-12.680472907867324395
0.454000000000000292,-12.641930258964645617
0.455000000000000293,-12.602576158586563437
0.456000000000000294,-12.562428773710987429
0.457000000000000295,-12.521506278347539265
0.458000000000000296,-12.479826841563198769
0.459000000000000297,-12.437408615928459810
0.460000000000000298,-12.394269726378315255
0.461000000000000298,-12.350428259482644222
0.462000000000000299,-12.305902253119919365
0.463000000000000300,-12.260709686548086239
0.464000000000000301,-12.214868470866433015
0.465000000000000302,-12.168396439861728808
0.466000000000000303,-12.121311341232097192
0.467000000000000304,-12.073630828181768138
0.468000000000000305,-12.025372451379727323
0.469000000000000306,-11.976553651275287038
0.470000000000000306,-11.927191750763487477
0.471000000000000307,-11.877303948192906802
0.472000000000000308,-11.826907310708943299
0.473000000000000309,-11.776018767924981034
0.474000000000000310,-11.724655105914218112
0.475000000000000311,-11.672832961514766126
0.476000000000000312,-11.620568816940718193
0.477000000000000313,-11.567878994691648487
0.478000000000000314,-11.514779652753297512
0.479000000000000314,-11.461286780082113879
0.480000000000000315,-11.407416192366202523
0.481000000000000316,-11.353183528055563301
0.482000000000000317,-11.298604244654219642
0.483000000000000318,-11.243693615267162045
0.484000000000000319,-11.188466725394913936
0.485000000000000320,-11.132938469968690853
0.486000000000000321,-11.077123550619131009
0.487000000000000322,-11.021036473171665904
0.488000000000000322,-10.964691545361651137
0.489000000000000323,-10.908102874762652945
0.490000000000000324,-10.851284366920992852
0.491000000000000325,-10.794249723690143128
0.492000000000000326,-10.737012441758357895
0.493000000000000327,-10.679585811363301318
0.494000000000000328,-10.621982915187187402
0.495000000000000329,-10.564216627426462836
0.496000000000000330,-10.506299613029707274
0.497000000000000330,-10.448244327098077378
0.498000000000000331,-10.390063014442038281
0.499000000000000332,-10.331767709289081836
0.500000000000000333,-10.273370235136370709
0.501000000000000334,-10.214882204743041427
0.502000000000000335,-10.156315020256593940
0.503000000000000336,-10.097679873468202061
0.504000000000000337,-10.038987746191592620
0.505000000000000338,-9.980249410760519524
0.506000000000000338,-9.921475430639846493
0.507000000000000339,-9.862676161145326859
0.508000000000000340,-9.803861750267378383
0.509000000000000341,-9.745042139594321640
0.510000000000000342,-9.686227065330328401
0.511000000000000343,-9.627426059403939362
0.512000000000000344,-9.568648450662637472
0.513000000000000345,-9.509903366149439208
0.514000000000000346,-9.451199732457393310
0.515000000000000346,-9.392546277157959977
0.516000000000000347,-9.333951530299442467
0.517000000000000348,-9.275423825971831349
0.518000000000000349,-9.216971303934155202
0.519000000000000350,-9.158601911301074594
0.520000000000000351,-9.100323404285036943
0.521000000000000352,-9.042143349990862333
0.522000000000000353,-8.984069128259310588
0.523000000000000353,-8.926107933556574281
0.524000000000000354,-8.868266776906775561
0.525000000000000355,-8.810552487864201865
0.526000000000000356,-8.752971716522697676
0.527000000000000357,-8.695530935559343533
0.528000000000000358,-8.638236442309651153
0.529000000000000359,-8.581094360871851734
0.530000000000000360,-8.524110644237584467
0.531000000000000361,-8.467291076446700870
0.532000000000000361,-8.410641274763774433
0.533000000000000362,-8.354166691874063133
0.534000000000000363,-8.297872618096770125
0.535000000000000364,-8.241764183613438988
0.536000000000000365,-8.185846360709538416
0.537000000000000366,-8.130123966027245075
0.538000000000000367,-8.074601662827443960
0.539000000000000368,-8.019283963259423942
0.540000000000000369,-7.964175230636118208
0.541000000000000369,-7.909279681713650589
0.542000000000000370,-7.854601388973209808
0.543000000000000371,-7.800144282903964665
0.544000000000000372,-7.745912154285444551
0.545000000000000373,-7.691908656467978389
0.546000000000000374,-7.638137307649811802
0.547000000000000375,-7.584601493149652818
0.548000000000000376,-7.531304467673398229
0.549000000000000377,-7.478249357573853118
0.550000000000000377,-7.425439163102256934
0.551000000000000378,-7.372876760650600936
0.552000000000000379,-7.320564904983752008
0.553000000000000380,-7.268506231460260203
0.554000000000000381,-7.216703258241023100
0.555000000000000382,-7.165158388485005858
0.556000000000000383,-7.113873912530893406
0.557000000000000384,-7.062852010064263553
0.558000000000000385,-7.012094752269170783
0.559000000000000385,-6.961604103963699330
0.560000000000000386,-6.911381925718657726
0.561000000000000387,-6.861429975958844629
0.562000000000000388,-6.811749913046275751
0.563000000000000389,-6.762343297344841631
0.564000000000000390,-6.713211593265829613
0.565000000000000391,-6.664356171293848163
0.566000000000000392,-6.615778309992703221
0.567000000000000393,-6.567479197990827799
0.568000000000000393,-6.519459935945773665
0.569000000000000394,-6.471721538487503089
0.570000000000000395,-6.424264936140176019
0.571000000000000396,-6.377090977221928192
0.572000000000000397,-6.330200429722652622
0.573000000000000398,-6.283593983159250662
0.574000000000000399,-6.237272250408349983
0.575000000000000400,-6.191235769516094223
0.576000000000000401,-6.145485005484966123
0.577000000000000401,-6.100020352037460292
0.578000000000000402,-6.054842133356354239
0.579000000000000403,-6.009950605801600787
0.580000000000000404,-5.965345959603707726
0.581000000000000405,-5.921028320533444855
0.582000000000000406,-5.876997751547945903
0.583000000000000407,-5.833254254413016149
0.584000000000000408,-5.789797771301777196
0.585000000000000409,-5.746628186369515667
0.586000000000000409,-5.703745327304767798
0.587000000000000410,-5.661148966856739406
0.588000000000000411,-5.618838824338927118
0.589000000000000412,-5.576814567109219745
0.590000000000000413,-5.535075812026285291
0.591000000000000414,-5.493622126882489631
0.592000000000000415,-5.452453031813439210
0.593000000000000416,-5.411568000684061630
0.594000000000000417,-5.370966462451508328
0.595000000000000417,-5.330647802505027677
0.596000000000000418,-5.290611363982611337
0.597000000000000419,-5.250856449065041787
0.598000000000000420,-5.211382320246994659
0.599000000000000421,-5.172188201585720790
0.600000000000000422,-5.133273279927212940
0.601000000000000423,-5.094636706110169833
0.602000000000000424,-5.056277596147876530
0.603000000000000425,-5.018195032388164556
0.604000000000000425,-4.980388064651654290
0.605000000000000426,-4.942855711348467906
0.606000000000000427,-4.905596960573673115
0.607000000000000428,-4.868610771181407060
0.608000000000000429,-4.831896073838331418
