# Pyrophyllite-001_CS-173-AC
# h[nm],U(h)[kJ/mol]
0.149999999999999994,65.308470639966444082
0.150999999999999995,63.513125268160578685
0.151999999999999996,62.555012104394123185
0.152999999999999997,61.760352606231002426
0.153999999999999998,60.894534796475809912
0.154999999999999999,59.923693582824455461
0.156000000000000000,58.888236868371109267
0.157000000000000001,57.841464189608736035
0.158000000000000002,56.824327118686127847
0.159000000000000002,55.858918643070715859
0.160000000000000003,54.950589460010590415
0.161000000000000004,54.093123673792831596
0.162000000000000005,53.274142335748351229
0.163000000000000006,52.479493235686369701
0.164000000000000007,51.696260337222511794
0.165000000000000008,50.914467207245813540
0.166000000000000009,50.127735967051521015
0.167000000000000010,49.333210014721416314
0.168000000000000010,48.531024435276115980
0.169000000000000011,47.723553625256144528
0.170000000000000012,46.914604189251505773
0.171000000000000013,46.108664438312153777
0.172000000000000014,45.310274974380774893
0.173000000000000015,44.523549209321039655
0.174000000000000016,43.751847556355286883
0.175000000000000017,42.997592840009069448
0.176000000000000018,42.262205309137279130
0.177000000000000018,41.546131681941808722
0.178000000000000019,40.848942310805945510
0.179000000000000020,40.169472531823743111
0.180000000000000021,39.505987559132101694
0.181000000000000022,38.856354164727790135
0.182000000000000023,38.218206342244741336
0.183000000000000024,37.589095859548272927
0.184000000000000025,36.966621868522167915
0.185000000000000026,36.348536470036677315
0.186000000000000026,35.732825306808038590
0.187000000000000027,35.117763901771787971
0.188000000000000028,34.501951627527965627
0.189000000000000029,33.884325950520903348
0.190000000000000030,33.264160013861960863
0.191000000000000031,32.641046775528010926
0.192000000000000032,32.014872869004776135
0.193000000000000033,31.385785158507143677
0.194000000000000034,30.754152669250050423
0.195000000000000034,30.120526224657300673
0.196000000000000035,29.485597748396877193
0.197000000000000036,28.850160813748061628
0.198000000000000037,28.215073663552715288
0.199000000000000038,27.581225592897350651
0.200000000000000039,26.949507291229728878
0.201000000000000040,26.320785484768101981
0.202000000000000041,25.695882004990494352
0.203000000000000042,25.075557233829858461
0.204000000000000042,24.460497738632835052
0.205000000000000043,23.851307806703594849
0.206000000000000044,23.248504516518224250
0.207000000000000045,22.652515936385988482
0.208000000000000046,22.063682017345705333
0.209000000000000047,21.482257741466018075
0.210000000000000048,20.908418095771349243
0.211000000000000049,20.342264462385841739
0.212000000000000050,19.783832044187715127
0.213000000000000050,19.233097979711821779
0.214000000000000051,18.689989839018682716
0.215000000000000052,18.154394231935739867
0.216000000000000053,17.626165299980801393
0.217000000000000054,17.105132902223850522
0.218000000000000055,16.591110342434177483
0.219000000000000056,16.083901519442829198
0.220000000000000057,15.583307414275598290
0.221000000000000058,15.089131856013676014
0.222000000000000058,14.601186533382577437
0.223000000000000059,14.119295240751347009
0.224000000000000060,13.643297365616508188
0.225000000000000061,13.173050639901319414
0.226000000000000062,12.708433189718160605
0.227000000000000063,12.249344927853920595
0.228000000000000064,11.795708340400596015
0.229000000000000065,11.347468723928290757
0.230000000000000066,10.904593932654895738
0.231000000000000066,10.467073696462284360
0.232000000000000067,10.034918570596492060
0.233000000000000068,9.608158576700974507
0.234000000000000069,9.186841592687802205
0.235000000000000070,8.771031546049190553
0.236000000000000071,8.360806461731829842
0.237000000000000072,7.956256411796696959
0.238000000000000073,7.557481409909598824
0.239000000000000073,7.164589289372711001
0.240000000000000074,6.777693599016980208
0.241000000000000075,6.396911546919139546
0.242000000000000076,6.022362017653642319
0.243000000000000077,5.654163684697932624
0.244000000000000078,5.292433235724216090
0.245000000000000079,4.937283724864845347
0.246000000000000080,4.588823062657551688
0.247000000000000081,4.247152651273792046
0.248000000000000081,3.912366169819676998
0.249000000000000082,3.584548511974273488
0.250000000000000111,3.263774875992184299
0.251000000000000112,2.950110005139511493
0.252000000000000113,2.643607574942624883
0.253000000000000114,2.344309722197088774
0.254000000000000115,2.052246709491024834
0.255000000000000115,1.767436718030251708
0.256000000000000116,1.489885760791825886
0.257000000000000117,1.219587707461673887
0.258000000000000118,0.956524412213196285
0.259000000000000119,0.700665935138305551
0.260000000000000120,0.451970848034000450
0.261000000000000121,0.210386615259977816
0.262000000000000122,-0.024149959501106138
0.263000000000000123,-0.251712229542719323
0.264000000000000123,-0.472383153173408510
0.265000000000000124,-0.686254701831813363
0.266000000000000125,-0.893427236218881538
0.267000000000000126,-1.094008857953714386
0.268000000000000127,-1.288114743795028661
0.269000000000000128,-1.475866468984218027
0.270000000000000129,-1.657391325767480605
0.271000000000000130,-1.832821642649728799
0.272000000000000131,-2.002294109427899649
0.273000000000000131,-2.165949112552041367
0.274000000000000132,-2.323930084872678492
0.275000000000000133,-2.476382873357058756
0.276000000000000134,-2.623455127897737160
0.277000000000000135,-2.765295713896774199
0.278000000000000136,-2.902054150890869266
0.279000000000000137,-3.033880079086937798
0.280000000000000138,-3.160922755306124099
0.281000000000000139,-3.283330579487748757
0.282000000000000139,-3.401250652582793244
0.283000000000000140,-3.514828366370239987
0.284000000000000141,-3.624207025457990117
0.285000000000000142,-3.729527501483280272
0.286000000000000143,-3.830927919304639495
0.287000000000000144,-3.928543374777561326
0.288000000000000145,-4.022505683529259635
0.289000000000000146,-4.112943159991391262
0.290000000000000147,-4.199980425814723084
0.291000000000000147,-4.283738246672963434
0.292000000000000148,-4.364333396365252860
0.293000000000000149,-4.441878547045257974
0.294000000000000150,-4.516482184339599470
0.295000000000000151,-4.588248546067481115
0.296000000000000152,-4.657277583235954310
0.297000000000000153,-4.723664941960278085
0.298000000000000154,-4.787501964944962829
0.299000000000000155,-4.848875711157456081
0.300000000000000155,-4.907868992331863467
0.301000000000000156,-4.964560424953656792
0.302000000000000157,-5.019024496397362256
0.303000000000000158,-5.071331643916154874
0.304000000000000159,-5.121548345215225950
0.305000000000000160,-5.169737219378057524
0.306000000000000161,-5.215957136956309803
0.307000000000000162,-5.260263338078803308
0.308000000000000163,-5.302707557482538192
0.309000000000000163,-5.343338155418370761
0.310000000000000164,-5.382200253435277304
0.311000000000000165,-5.419335874099377115
0.312000000000000166,-5.454784083757159507
0.313000000000000167,-5.488581137505581964
0.314000000000000168,-5.520760625585069192
0.315000000000000169,-5.551353620464422711
0.316000000000000170,-5.580388823938983833
0.317000000000000171,-5.607892713614672786
0.318000000000000171,-5.633889688200915735
0.319000000000000172,-5.658402211084522904
0.320000000000000173,-5.681450951704013264
0.321000000000000174,-5.703054924289874705
0.322000000000000175,-5.723231623580671723
0.323000000000000176,-5.741997157167181953
0.324000000000000177,-5.759366374157688817
0.325000000000000178,-5.775352989895973010
0.326000000000000179,-5.789969706500862401
0.327000000000000179,-5.803228329030623911
0.328000000000000180,-5.815139877108802757
0.329000000000000181,-5.825714691879008811
0.330000000000000182,-5.834962538185181735
0.331000000000000183,-5.842892701901281960
0.332000000000000184,-5.849514082359461575
0.333000000000000185,-5.854835279849490703
0.334000000000000186,-5.858864678183896224
0.335000000000000187,-5.861610522343265295
0.336000000000000187,-5.863080991234721928
0.337000000000000188,-5.863284265613025070
0.338000000000000189,-5.862228591229362351
0.339000000000000190,-5.859922337286399774
0.340000000000000191,-5.856374050290494182
0.341000000000000192,-5.851592503403165502
0.342000000000000193,-5.845586741403373310
0.343000000000000194,-5.838366121380938800
0.344000000000000195,-5.829940349288458279
0.345000000000000195,-5.820319512485760072
0.346000000000000196,-5.809514108415795519
0.347000000000000197,-5.797535069555481257
0.348000000000000198,-5.784393784788301573
0.349000000000000199,-5.770102117348066884
0.350000000000000200,-5.754672419485149959
0.351000000000000201,-5.738117544007522497
0.352000000000000202,-5.720450852849454648
0.353000000000000203,-5.701686222820604222
0.354000000000000203,-5.681838048687493092
0.355000000000000204,-5.660921243738139985
0.356000000000000205,-5.638951237979065390
0.357000000000000206,-5.615943974111770487
0.358000000000000207,-5.591915901433256231
0.359000000000000208,-5.566883967802554345
0.360000000000000209,-5.540865609812057890
0.361000000000000210,-5.513878741299139463
0.362000000000000210,-5.485941740330024352
0.363000000000000211,-5.457073434784126320
0.364000000000000212,-5.427293086663181221
0.365000000000000213,-5.396620375245419154
0.366000000000000214,-5.365075379200948902
0.367000000000000215,-5.332678557780209161
0.368000000000000216,-5.299450731183118712
0.369000000000000217,-5.265413060212166485
0.370000000000000218,-5.230587025308367721
0.371000000000000218,-5.194994405064525367
0.372000000000000219,-5.158657254306055151
0.373000000000000220,-5.121597881825104004
0.374000000000000221,-5.083838827849549880
0.375000000000000222,-5.045402841324014176
0.376000000000000223,-5.006312857076075318
0.377000000000000224,-4.966591972936510224
0.378000000000000225,-4.926263426878456642
0.379000000000000226,-4.885350574236377419
0.380000000000000226,-4.843876865061899295
0.381000000000000227,-4.801865821669652590
0.382000000000000228,-4.759341016422784953
0.383000000000000229,-4.716326049804044018
0.384000000000000230,-4.672844528814929177
0.385000000000000231,-4.628920045742149547
0.386000000000000232,-4.584576157327211021
0.387000000000000233,-4.539836364371975463
0.388000000000000234,-4.494724091809904287
0.389000000000000234,-4.449262669269955950
0.390000000000000235,-4.403475312157153709
0.391000000000000236,-4.357385103271345983
0.392000000000000237,-4.311014974982993131
0.393000000000000238,-4.264387691982525652
0.394000000000000239,-4.217525834617362968
0.395000000000000240,-4.170451782828609844
0.396000000000000241,-4.123187700697301672
0.397000000000000242,-4.075755521607988818
0.398000000000000242,-4.028176934035828438
0.399000000000000243,-3.980473367961290254
0.400000000000000244,-3.932665981915074660
0.401000000000000245,-3.884775650654309853
0.402000000000000246,-3.836822953469462227
0.403000000000000247,-3.788828163120129489
0.404000000000000248,-3.740811235396606094
0.405000000000000249,-3.692791799302828970
0.406000000000000250,-3.644789147855230560
0.407000000000000250,-3.596822229491053236
0.408000000000000251,-3.548909640078568906
0.409000000000000252,-3.501069615520987277
0.410000000000000253,-3.453320024944781519
0.411000000000000254,-3.405678364462650709
0.412000000000000255,-3.358161751500490677
0.413000000000000256,-3.310786919677282558
0.414000000000000257,-3.263570214226121813
0.415000000000000258,-3.216527587944276512
0.416000000000000258,-3.169674597659600579
0.417000000000000259,-3.123026401200345248
0.418000000000000260,-3.076597754855040279
0.419000000000000261,-3.030403011308838934
0.420000000000000262,-2.984456118042520423
0.421000000000000263,-2.938770616180122808
0.422000000000000264,-2.893359639771057257
0.423000000000000265,-2.848235915492364878
0.424000000000000266,-2.803411762756903958
0.425000000000000266,-2.758899094212917014
0.426000000000000267,-2.714709416620701976
0.427000000000000268,-2.670853832091948821
0.428000000000000269,-2.627343039677421110
0.429000000000000270,-2.584187337288782249
0.430000000000000271,-2.541396623940301858
0.431000000000000272,-2.498980402296532510
0.432000000000000273,-2.456947781511952034
0.433000000000000274,-2.415307480348944047
0.434000000000000274,-2.374067830560433023
0.435000000000000275,-2.333236780523937792
0.436000000000000276,-2.292821899113811845
0.437000000000000277,-2.252830379798722582
0.438000000000000278,-2.213269044951728048
0.439000000000000279,-2.174144350360447397
0.440000000000000280,-2.135462389925104620
0.441000000000000281,-2.097228900532527085
0.442000000000000282,-2.059449267094429104
0.443000000000000282,-2.022128527738500825
0.444000000000000283,-1.985271379141281711
0.445000000000000284,-1.948882181991900442
0.446000000000000285,-1.912964966576107262
0.447000000000000286,-1.877523438470450445
0.448000000000000287,-1.842560984336461205
0.449000000000000288,-1.808080677805325776
0.450000000000000289,-1.774085285443533833
0.451000000000000290,-1.740577272790485797
0.452000000000000290,-1.707558810459259391
0.453000000000000291,-1.675031780291982297
0.454000000000000292,-1.642997781561674753
0.455000000000000293,-1.611458137212566921
0.456000000000000294,-1.580413900131319549
0.457000000000000295,-1.549865859441763583
0.458000000000000296,-1.519814546816102840
0.459000000000000297,-1.490260242795796053
0.460000000000000298,-1.461202983115585718
0.461000000000000298,-1.432642565024475623
0.462000000000000299,-1.404578553597628510
0.463000000000000300,-1.377010288033491792
0.464000000000000301,-1.349936887930708762
0.465000000000000302,-1.323357259539606590
0.466000000000000303,-1.297270101983274859
0.467000000000000304,-1.271673913443549297
0.468000000000000305,-1.246566997307441138
0.469000000000000306,-1.221947468269704684
0.470000000000000306,-1.197813258387618429
0.471000000000000307,-1.174162123084074860
0.472000000000000308,-1.150991647095496395
0.473000000000000309,-1.128299250361137540
0.474000000000000310,-1.106082193850648876
0.475000000000000311,-1.084337585326887066
0.476000000000000312,-1.063062385041287694
0.477000000000000313,-1.042253411359081117
0.478000000000000314,-1.021907346312060261
0.479000000000000314,-1.002020741076628862
0.480000000000000315,-0.982590021375040257
0.481000000000000316,-0.963611492798010949
0.482000000000000317,-0.945081346046883430
0.483000000000000318,-0.926995662093845874
0.484000000000000319,-0.909350417258703581
0.485000000000000320,-0.892141488200989818
0.486000000000000321,-0.875364656826205567
0.487000000000000322,-0.859015615105220953
0.488000000000000322,-0.843089969805907780
0.489000000000000323,-0.827583247136308819
0.490000000000000324,-0.812490897298632775
0.491000000000000325,-0.797808298953594841
0.492000000000000326,-0.783530763594647572
0.493000000000000327,-0.769653539831827826
0.494000000000000328,-0.756171817584971762
0.495000000000000329,-0.743080732186198745
0.496000000000000330,-0.730375368391626756
0.497000000000000330,-0.718050764302401112
0.498000000000000331,-0.706101915195135099
0.499000000000000332,-0.694523777262050279
0.500000000000000333,-0.683311271261066278
0.501000000000000334,-0.672459286076217633
0.502000000000000335,-0.661962682188856122
0.503000000000000336,-0.651816295060129058
0.504000000000000337,-0.642014938425287673
0.505000000000000338,-0.632553407500463960
0.506000000000000338,-0.623426482102588664
0.507000000000000339,-0.614628929683152192
0.508000000000000340,-0.606155508276617239
0.509000000000000341,-0.598000969364287926
0.510000000000000342,-0.590160060654484120
0.511000000000000343,-0.582627528779939952
0.512000000000000344,-0.575398121913347382
0.513000000000000345,-0.568466592302029117
0.514000000000000346,-0.561827698722742852
0.515000000000000346,-0.555476208857625497
0.516000000000000347,-0.549406901592356389
0.517000000000000348,-0.543614569237636736
0.518000000000000349,-0.538094019675034785
0.519000000000000350,-0.532840078428376551
0.520000000000000351,-0.527847590661798427
0.521000000000000352,-0.523111423105620865
0.522000000000000353,-0.518626465911223855
0.523000000000000353,-0.514387634436090813
0.524000000000000354,-0.510389870960246683
0.525000000000000355,-0.506628146335270535
0.526000000000000356,-0.503097461567090454
0.527000000000000357,-0.499792849333822897
0.528000000000000358,-0.496709375439804812
0.529000000000000359,-0.493842140207133906
0.530000000000000360,-0.491186279805862103
0.531000000000000361,-0.488736967524132093
0.532000000000000361,-0.486489414979449974
0.533000000000000362,-0.484438873272348136
0.534000000000000363,-0.482580634083629889
0.535000000000000364,-0.480910030716451165
0.536000000000000365,-0.479422439084430718
0.537000000000000366,-0.478113278647015361
0.538000000000000367,-0.476978013293285319
0.539000000000000368,-0.476012152175429581
0.540000000000000369,-0.475211250493038584
0.541000000000000369,-0.474570910229431153
0.542000000000000370,-0.474086780841169564
0.543000000000000371,-0.473754559901916561
0.544000000000000372,-0.473569993701810799
0.545000000000000373,-0.473528877803474579
0.546000000000000374,-0.473627057555790543
0.547000000000000375,-0.473860428566568348
0.548000000000000376,-0.474224937135202196
0.549000000000000377,-0.474716580646406261
0.550000000000000377,-0.475331407926096516
0.551000000000000378,-0.476065519560516237
0.552000000000000379,-0.476915068179595447
0.553000000000000380,-0.477876258705653423
0.554000000000000381,-0.478945348568390716
0.555000000000000382,-0.480118647887235350
0.556000000000000383,-0.481392519621991088
0.557000000000000384,-0.482763379692796590
0.558000000000000385,-0.484227697070326368
0.559000000000000385,-0.485781993837206272
0.560000000000000386,-0.487422845221540446
0.561000000000000387,-0.489146879603496731
0.562000000000000388,-0.490950778495817475
0.563000000000000389,-0.492831276499165583
0.564000000000000390,-0.494785161233142479
0.565000000000000391,-0.496809273243855098
0.566000000000000392,-0.498900505888841272
0.567000000000000393,-0.501055805200193882
0.568000000000000393,-0.503272169726664997
0.569000000000000394,-0.505546650355557459
0.570000000000000395,-0.507876350115148201
0.571000000000000396,-0.510258423958420360
0.572000000000000397,-0.512690078528843740
0.573000000000000398,-0.515168571908894424
0.574000000000000399,-0.517691213352073021
0.575000000000000400,-0.520255362999059279
0.576000000000000401,-0.522858431578721694
0.577000000000000401,-0.525497880094625058
0.578000000000000402,-0.528171219497688416
0.579000000000000403,-0.530876010345608162
0.580000000000000404,-0.533609862449698658
0.581000000000000405,-0.536370434509712446
0.582000000000000406,-0.539155433737258938
0.583000000000000407,-0.541962615468378539
0.584000000000000408,-0.544789782765833785
0.585000000000000409,-0.547634786011660935
0.586000000000000409,-0.550495522490529465
0.587000000000000410,-0.553369935964400539
0.588000000000000411,-0.556256016239008444
0.589000000000000412,-0.559151798722653637
0.590000000000000413,-0.562055363977773115
0.591000000000000414,-0.564964837265765962
0.592000000000000415,-0.567878388085523156
0.593000000000000416,-0.570794229706094169
0.594000000000000417,-0.573710618693927477
0.595000000000000417,-0.576625854435094176
0.596000000000000418,-0.579538278652896199
0.597000000000000419,-0.582446274921259333
0.598000000000000420,-0.585348268174277431
0.599000000000000421,-0.588242724212286960
0.600000000000000422,-0.591128149204829589
0.601000000000000423,-0.594003089190835665
0.602000000000000424,-0.596866129576380411
0.603000000000000425,-0.599715894630333257
0.604000000000000425,-0.602551046978207605
0.605000000000000426,-0.605370287094512127
0.606000000000000427,-0.608172352793937221
0.607000000000000428,-0.610956018721575567
0.608000000000000429,-0.613720095842581581
0.609000000000000430,-0.616463430931377232
0.610000000000000431,-0.619184906060815221
0.611000000000000432,-0.621883438091436758
0.612000000000000433,-0.624557978161100147
0.613000000000000433,-0.627207511175241650
