# Pyrophyllite-001_CS-61461-AC
# h[nm],U(h)[kJ/mol]
0.149999999999999994,91.961233728744076643
0.150999999999999995,90.110852484224764680
0.151999999999999996,88.623428448711337069
0.152999999999999997,87.258348267310807955
0.153999999999999998,85.910980001452600163
0.154999999999999999,84.547683741013116787
0.156000000000000000,83.167839156003850576
0.157000000000000001,81.782867723531040838
0.158000000000000002,80.405619367779252116
0.159000000000000002,79.045818341418083719
0.160000000000000003,77.708837935503041194
0.161000000000000004,76.396124930450881152
0.162000000000000005,75.106284293929277851
0.163000000000000006,73.836276989611036470
0.164000000000000007,72.582459361333192760
0.165000000000000008,71.341357486084191919
0.166000000000000009,70.110162844760139933
0.167000000000000010,68.886983027387941547
0.168000000000000010,67.670900702234945356
0.169000000000000011,66.461897441493604788
0.170000000000000012,65.260693761283420145
0.171000000000000013,64.068547624191509726
0.172000000000000014,62.887043497189118568
0.173000000000000015,61.717894439890052638
0.174000000000000016,60.562771403414764393
0.175000000000000017,59.423167240875997663
0.176000000000000018,58.300297869201848755
0.177000000000000018,57.195039424747257328
0.178000000000000019,56.107897896566456097
0.179000000000000020,55.039006356586469337
0.180000000000000021,53.988144301213353060
0.181000000000000022,52.954773566451436295
0.182000000000000023,51.938085603705118842
0.183000000000000024,50.937055465251539488
0.184000000000000025,49.950498537851338199
0.185000000000000026,48.977126798987193013
0.186000000000000026,48.015602095194637400
0.187000000000000027,47.064584617413188994
0.188000000000000028,46.122775350778219661
0.189000000000000029,45.188951793749048136
0.190000000000000030,44.261996670236712248
0.191000000000000031,43.340919700628340649
0.192000000000000032,42.424872759344928852
0.193000000000000033,41.513158936189618942
0.194000000000000034,40.605236145790776447
0.195000000000000034,39.700716003791583830
0.196000000000000035,38.799358719705523413
0.197000000000000036,37.901064753514745576
0.198000000000000037,37.005863954230491686
0.199000000000000038,36.113902850853676796
0.200000000000000039,35.225430705536346920
0.201000000000000040,34.340784870301092724
0.202000000000000041,33.460375916536193586
0.203000000000000042,32.584672933897564917
0.204000000000000042,31.714189324697724004
0.205000000000000043,30.849469353177472186
0.206000000000000044,29.991075647501627799
0.207000000000000045,29.139577796702447188
0.208000000000000046,28.295542135540337370
0.209000000000000047,27.459522767490192052
0.210000000000000048,26.632053839692439112
0.211000000000000049,25.813643053461312604
0.212000000000000050,25.004766369421950856
0.213000000000000050,24.205863847084167162
0.214000000000000051,23.417336544128989573
0.215000000000000052,22.639544390346394209
0.216000000000000053,21.872804944476584410
0.217000000000000054,21.117392938648116285
0.218000000000000055,20.373540514174692362
0.219000000000000056,19.641438053708192513
0.220000000000000057,18.921235517718390184
0.221000000000000058,18.213044197608336816
0.222000000000000058,17.516938803127505508
0.223000000000000059,16.832959807829400489
0.224000000000000060,16.161115982871553598
0.225000000000000061,15.501387056262894149
0.226000000000000062,14.853726441543495085
0.227000000000000063,14.218063986687095479
0.228000000000000064,13.594308700629554210
0.229000000000000065,12.982351421152083404
0.230000000000000066,12.382067393820523904
0.231000000000000066,11.793318737246968553
0.232000000000000067,11.215956775069713558
0.233000000000000068,10.649824219719354446
0.234000000000000069,10.094757197249579761
0.235000000000000070,9.550587106262209858
0.236000000000000071,9.017142307260460399
0.237000000000000072,8.494249641636894665
0.238000000000000073,7.981735781968208876
0.239000000000000073,7.479428417371599025
0.240000000000000074,6.987157279402987697
0.241000000000000075,6.504755015378687055
0.242000000000000076,6.032057917104892475
0.243000000000000077,5.568906513834430250
0.244000000000000078,5.115146038867081302
0.245000000000000079,4.670626779594508449
0.246000000000000080,4.235204320992164817
0.247000000000000081,3.808739692600509930
0.248000000000000081,3.391099428943330274
0.249000000000000082,2.982155553120798164
0.250000000000000111,2.581785493010118948
0.251000000000000112,2.189871939125609845
0.252000000000000113,1.806302652747382442
0.253000000000000114,1.430970232441552970
0.254000000000000115,1.063771846572926005
0.255000000000000115,0.704608938870120660
0.256000000000000116,0.353386913548752013
0.257000000000000117,0.010014805941415706
0.258000000000000118,-0.325595055969007952
0.259000000000000119,-0.653527394259119876
0.260000000000000120,-0.973864323691489786
0.261000000000000121,-1.286685690438872598
0.262000000000000122,-1.592069403572949016
0.263000000000000123,-1.890091756443940341
0.264000000000000123,-2.180827735511158938
0.265000000000000124,-2.464351314589332986
0.266000000000000125,-2.740735732852058071
0.267000000000000126,-3.010053755280809540
0.268000000000000127,-3.272377914566601653
0.269000000000000128,-3.527780733760764953
0.270000000000000129,-3.776334929233489568
0.271000000000000130,-4.018113593734010891
0.272000000000000131,-4.253190359555254929
0.273000000000000131,-4.481639541990647402
0.274000000000000132,-4.703536263431827180
0.275000000000000133,-4.918956558595590778
0.276000000000000134,-5.127977461487263966
0.277000000000000135,-5.330677074806899896
0.278000000000000136,-5.527134622587576374
0.279000000000000137,-5.717430486920314081
0.280000000000000138,-5.901646229671213995
0.281000000000000139,-6.079864600134208708
0.282000000000000139,-6.252169529587704666
0.283000000000000140,-6.418646113738182279
0.284000000000000141,-6.579380584038114321
0.285000000000000142,-6.734460268861792720
0.286000000000000143,-6.883973545511082648
0.287000000000000144,-7.028009784004757066
0.288000000000000145,-7.166659283581926942
0.289000000000000146,-7.300013202820674785
0.290000000000000147,-7.428163484241371961
0.291000000000000147,-7.551202774227673054
0.292000000000000148,-7.669224339060302320
0.293000000000000149,-7.782321977817970193
0.294000000000000150,-7.890589932858217637
0.295000000000000151,-7.994122798548001008
0.296000000000000152,-8.093015428870558026
0.297000000000000153,-8.187362844491646641
0.298000000000000154,-8.277260139824946350
0.299000000000000155,-8.362802390593637725
0.300000000000000155,-8.444084562343224576
0.301000000000000156,-8.521201420319496123
0.302000000000000157,-8.594247441085883565
0.303000000000000158,-8.663316726215693819
0.304000000000000159,-8.728502918357829543
0.305000000000000160,-8.789899119938869632
0.306000000000000161,-8.847597814730686849
0.307000000000000162,-8.901690792480481562
0.308000000000000163,-8.952269076769571399
0.309000000000000163,-8.999422856238670221
0.310000000000000164,-9.043241419290396266
0.311000000000000165,-9.083813092354391827
0.312000000000000166,-9.121225181777223412
0.313000000000000167,-9.155563919377168958
0.314000000000000168,-9.186914411684057313
0.315000000000000169,-9.215360592865751599
0.316000000000000170,-9.240985181326076159
0.317000000000000171,-9.263869639943438372
0.318000000000000171,-9.284094139905496590
0.319000000000000172,-9.301737528082920647
0.320000000000000173,-9.316877297873720210
0.321000000000000174,-9.329589563439991906
0.322000000000000175,-9.339949037250121933
0.323000000000000176,-9.348029010831929497
0.324000000000000177,-9.353901338635637330
0.325000000000000178,-9.357636424900169558
0.326000000000000179,-9.359303213411770628
0.327000000000000179,-9.358969180040055846
0.328000000000000180,-9.356700327933841876
0.329000000000000181,-9.352561185257254550
0.330000000000000182,-9.346614805344589882
0.331000000000000183,-9.338922769152393499
0.332000000000000184,-9.329545189886349732
0.333000000000000185,-9.318540719681372764
0.334000000000000186,-9.305966558213951245
0.335000000000000187,-9.291878463127009269
0.336000000000000187,-9.276330762149445519
0.337000000000000188,-9.259376366794073832
0.338000000000000189,-9.241066787520573200
0.339000000000000190,-9.221452150252190449
0.340000000000000191,-9.200581214137899977
0.341000000000000192,-9.178501390454869124
0.342000000000000193,-9.155258762549067342
0.343000000000000194,-9.130898106715418905
0.344000000000000195,-9.105462913922043100
0.345000000000000195,-9.078995412287072853
0.346000000000000196,-9.051536590219782852
0.347000000000000197,-9.023126220141614695
0.348000000000000198,-8.993802882706356527
0.349000000000000199,-8.963603991442351315
0.350000000000000200,-8.932565817743421732
0.351000000000000201,-8.900723516138750568
0.352000000000000202,-8.868111149775605995
0.353000000000000203,-8.834761716052559777
0.354000000000000203,-8.800707172344166551
0.355000000000000204,-8.765978461761598339
0.356000000000000205,-8.730605538897295403
0.357000000000000206,-8.694617395504856461
0.358000000000000207,-8.658042086068579835
0.359000000000000208,-8.620906753220427987
0.360000000000000209,-8.583237652965078013
0.361000000000000210,-8.545060179676744028
0.362000000000000210,-8.506398890834198312
0.363000000000000211,-8.467277531463432538
0.364000000000000212,-8.427719058259764751
0.365000000000000213,-8.387745663363883608
0.366000000000000214,-8.347378797768769232
0.367000000000000215,-8.306639194336732146
0.368000000000000216,-8.265546890408012715
0.369000000000000217,-8.224121249984587934
0.370000000000000218,-8.182380985474782875
0.371000000000000218,-8.140344178986200774
0.372000000000000219,-8.098028303156359797
0.373000000000000220,-8.055450241512136955
0.374000000000000221,-8.012626308350707660
0.375000000000000222,-7.969572268136142945
0.376000000000000223,-7.926303354407499668
0.377000000000000224,-7.882834288195293304
0.378000000000000225,-7.839179295944698644
0.379000000000000226,-7.795352126944938398
0.380000000000000226,-7.751366070265508945
0.381000000000000227,-7.707233971200674105
0.382000000000000228,-7.662968247224954510
0.383000000000000229,-7.618580903462941478
0.384000000000000230,-7.574083547677622263
0.385000000000000231,-7.529487404782297055
0.386000000000000232,-7.484803330881637073
0.387000000000000233,-7.440041826848191597
0.388000000000000234,-7.395213051441098528
0.389000000000000234,-7.350326833974442309
0.390000000000000235,-7.305392686542854896
0.391000000000000236,-7.260419815812717559
0.392000000000000237,-7.215417134387306142
0.393000000000000238,-7.170393271754887721
0.394000000000000239,-7.125356584828708151
0.395000000000000240,-7.080315168088300304
0.396000000000000241,-7.035276863331633379
0.397000000000000242,-6.990249269047654757
0.398000000000000242,-6.945239749419201303
0.399000000000000243,-6.900255442965982589
0.400000000000000244,-6.855303270837692864
0.401000000000000245,-6.810389944767221593
0.402000000000000246,-6.765521974693880836
0.403000000000000247,-6.720705676066704548
0.404000000000000248,-6.675947176837718544
0.405000000000000249,-6.631252424155095859
0.406000000000000250,-6.586627190765961259
0.407000000000000250,-6.542077081138645944
0.408000000000000251,-6.497607537313927040
0.409000000000000252,-6.453223844494817563
0.410000000000000253,-6.408931136384249605
0.411000000000000254,-6.364734400279882465
0.412000000000000255,-6.320638481935088926
0.413000000000000256,-6.276648090195094731
0.414000000000000257,-6.232767801416909670
0.415000000000000258,-6.189002063681731336
0.416000000000000258,-6.145355200808111817
0.417000000000000259,-6.101831416174119838
0.418000000000000260,-6.058434796356502616
0.419000000000000261,-6.015169314594629668
0.420000000000000262,-5.972038834086835557
0.421000000000000263,-5.929047111126584113
0.422000000000000264,-5.886197798085587962
0.423000000000000265,-5.843494446250932839
0.424000000000000266,-5.800940508523003025
0.425000000000000266,-5.758539341980741355
0.426000000000000267,-5.716294210320649327
0.427000000000000268,-5.674208286175718818
0.428000000000000269,-5.632284653320216883
0.429000000000000270,-5.590526308766174068
0.430000000000000271,-5.548936164757039435
0.431000000000000272,-5.507517050663997438
0.432000000000000273,-5.466271714790016389
0.433000000000000274,-5.425202826086719554
0.434000000000000274,-5.384312975788779099
0.435000000000000275,-5.343604678970530486
0.436000000000000276,-5.303080376029219778
0.437000000000000277,-5.262742434099086708
0.438000000000000278,-5.222593148400436647
0.439000000000000279,-5.182634743527602339
0.440000000000000280,-5.142869374679462702
0.441000000000000281,-5.103299128836193077
0.442000000000000282,-5.063926025885641558
0.443000000000000282,-5.024752019702528827
0.444000000000000283,-4.985778999183714255
0.445000000000000284,-4.947008789242386406
0.446000000000000285,-4.908443151764015688
0.447000000000000286,-4.870083786526873126
0.448000000000000287,-4.831932332089491133
0.449000000000000288,-4.793990366647652657
0.450000000000000289,-4.756259408863090954
0.451000000000000290,-4.718740918666142647
0.452000000000000290,-4.681436298034403087
0.453000000000000291,-4.644346891749302486
0.454000000000000292,-4.607473988132483989
0.455000000000000293,-4.570818819763652563
0.456000000000000294,-4.534382564181596464
0.457000000000000295,-4.498166344569872521
0.458000000000000296,-4.462171230428562119
0.459000000000000297,-4.426398238233534066
0.460000000000000298,-4.390848332084365424
0.461000000000000298,-4.355522424342195720
0.462000000000000299,-4.320421376258548385
0.463000000000000300,-4.285545998596138162
0.464000000000000301,-4.250897052242670782
0.465000000000000302,-4.216475248818451149
0.466000000000000303,-4.182281251278626044
0.467000000000000304,-4.148315674510824280
0.468000000000000305,-4.114579085928870228
0.469000000000000306,-4.081072006063171997
0.470000000000000306,-4.047794909148447751
0.471000000000000307,-4.014748223709139197
0.472000000000000308,-3.981932333143203717
0.473000000000000309,-3.949347576304498286
0.474000000000000310,-3.916994248084291197
0.475000000000000311,-3.884872599992109876
0.476000000000000312,-3.852982840736377312
0.477000000000000313,-3.821325136804903710
0.478000000000000314,-3.789899613045605520
0.479000000000000314,-3.758706353247608156
0.480000000000000315,-3.727745400722795921
0.481000000000000316,-3.697016758888114651
0.482000000000000317,-3.666520391848524074
0.483000000000000318,-3.636256224980845442
0.484000000000000319,-3.606224145518422741
0.485000000000000320,-3.576424003136737362
0.486000000000000321,-3.546855610539892290
0.487000000000000322,-3.517518744047995138
0.488000000000000322,-3.488413144185373849
0.489000000000000323,-3.459538516269650810
0.490000000000000324,-3.430894531001514647
0.491000000000000325,-3.402480825055185676
0.492000000000000326,-3.374297001669414264
0.493000000000000327,-3.346342631238997889
0.494000000000000328,-3.318617251906603283
0.495000000000000329,-3.291120370154867025
0.496000000000000330,-3.263851461398534326
0.497000000000000330,-3.236809970576621343
0.498000000000000331,-3.209995312744302165
0.499000000000000332,-3.183406873664539116
0.500000000000000333,-3.157044010399149503
0.501000000000000334,-3.130906051899211118
0.502000000000000335,-3.104992299594649729
0.503000000000000336,-3.079302027982811829
0.504000000000000337,-3.053834485215854322
0.505000000000000338,-3.028588893686787298
0.506000000000000338,-3.003564450613995351
0.507000000000000339,-2.978760328624030507
0.508000000000000340,-2.954175676332529754
0.509000000000000341,-2.929809618923111092
0.510000000000000342,-2.905661258723970519
0.511000000000000343,-2.881729675782128020
0.512000000000000344,-2.858013928435047646
0.513000000000000345,-2.834513053879518907
0.514000000000000346,-2.811226068737636474
0.515000000000000346,-2.788151969619646842
0.516000000000000347,-2.765289733683548690
0.517000000000000348,-2.742638319191330165
0.518000000000000349,-2.720196666061535318
0.519000000000000350,-2.697963696418187673
0.520000000000000351,-2.675938315135771184
0.521000000000000352,-2.654119410380226363
0.522000000000000353,-2.632505854145748447
0.523000000000000353,-2.611096502787259688
0.524000000000000354,-2.589890197548482043
0.525000000000000355,-2.568885765085382911
0.526000000000000356,-2.548082017984925951
0.527000000000000357,-2.527477755279032401
0.528000000000000358,-2.507071762953521521
0.529000000000000359,-2.486862814452079018
0.530000000000000360,-2.466849671174985215
0.531000000000000361,-2.447031082972618066
0.532000000000000361,-2.427405788633559602
0.533000000000000362,-2.407972516367254734
0.534000000000000363,-2.388729984281103835
0.535000000000000364,-2.369676900851918955
0.536000000000000365,-2.350811965391657488
0.537000000000000366,-2.332133868507376917
0.538000000000000367,-2.313641292555267626
0.539000000000000368,-2.295332912088841937
0.540000000000000369,-2.277207394301027144
0.541000000000000369,-2.259263399460284649
0.542000000000000370,-2.241499581340576697
0.543000000000000371,-2.223914587645183349
0.544000000000000372,-2.206507060424333755
0.545000000000000373,-2.189275636486594401
0.546000000000000374,-2.172218947803962852
0.547000000000000375,-2.155335621910656307
0.548000000000000376,-2.138624282295596757
0.549000000000000377,-2.122083548788496365
0.550000000000000377,-2.105712037939576398
0.551000000000000378,-2.089508363392893031
0.552000000000000379,-2.073471136253254077
0.553000000000000380,-2.057598965446719497
0.554000000000000381,-2.041890458074660408
0.555000000000000382,-2.026344219761435639
0.556000000000000383,-2.010958854995589906
0.557000000000000384,-1.995732967464686869
0.558000000000000385,-1.980665160383691115
0.559000000000000385,-1.965754036816981243
0.560000000000000386,-1.950998199993956517
0.561000000000000387,-1.936396253618295038
0.562000000000000388,-1.921946802170842572
0.563000000000000389,-1.907648451206201745
0.564000000000000390,-1.893499807643003408
0.565000000000000391,-1.879499480047912119
0.566000000000000392,-1.865646078913389072
0.567000000000000393,-1.851938216929258640
0.568000000000000393,-1.838374509248082322
0.569000000000000394,-1.824953573744406032
0.570000000000000395,-1.811674031267922258
0.571000000000000396,-1.798534505890546198
0.572000000000000397,-1.785533625147525116
0.573000000000000398,-1.772670020272532510
0.574000000000000399,-1.759942326426887416
0.575000000000000400,-1.747349182922864674
0.576000000000000401,-1.734889233441204270
0.577000000000000401,-1.722561126242860841
0.578000000000000402,-1.710363514375019989
0.579000000000000403,-1.698295055871447357
0.580000000000000404,-1.686354413947269038
0.581000000000000405,-1.674540257188162684
0.582000000000000406,-1.662851259734090092
0.583000000000000407,-1.651286101457579480
0.584000000000000408,-1.639843468136656268
0.585000000000000409,-1.628522051622448785
0.586000000000000409,-1.617320550001562385
0.587000000000000410,-1.606237667753269704
0.588000000000000411,-1.595272115901569476
0.589000000000000412,-1.584422612162220023
0.590000000000000413,-1.573687881084750995
0.591000000000000414,-1.563066654189571469
0.592000000000000415,-1.552557670100237264
0.593000000000000416,-1.542159674670890102
0.594000000000000417,-1.531871421109000320
0.595000000000000417,-1.521691670093481275
0.596000000000000418,-1.511619189888143477
0.597000000000000419,-1.501652756450723825
0.598000000000000420,-1.491791153537386450
0.599000000000000421,-1.482033172802895260
0.600000000000000422,-1.472377613896448612
0.601000000000000423,-1.462823284553282921
0.602000000000000424,-1.453369000682094292
0.603000000000000425,-1.444013586448371855
0.604000000000000425,-1.434755874353669469
0.605000000000000426,-1.425594705310928578
0.606000000000000427,-1.416528928715925950
0.607000000000000428,-1.407557402514810541
0.608000000000000429,-1.398678993268001935
0.609000000000000430,-1.389892576210265185
0.610000000000000431,-1.381197035307272669
0.611000000000000432,-1.372591263308542198
0.612000000000000433,-1.364074161796892781
0.613000000000000433,-1.355644641234510672
