# Pyrophyllite-001_NMETHYLMETHANAMINE-AC
# h[nm],U(h)[kJ/mol]
0.149999999999999994,55.492499357564177842
0.150999999999999995,53.508075577272315115
0.151999999999999996,52.740955814670734014
0.152999999999999997,52.232230037797968691
0.153999999999999998,51.632070583958537213
0.154999999999999999,50.876105495381665378
0.156000000000000000,50.011017241595098426
0.157000000000000001,49.107870575107099853
0.158000000000000002,48.224858477212450225
0.159000000000000002,47.396193276131484140
0.160000000000000003,46.633469130830349059
0.161000000000000004,45.931828580440736687
0.162000000000000005,45.276929464760982569
0.163000000000000006,44.650867835215265700
0.164000000000000007,44.036424565803692133
0.165000000000000008,43.419633814126243010
0.166000000000000009,42.790956643932439363
0.167000000000000010,42.145433021941876461
0.168000000000000010,41.482173003583909576
0.169000000000000011,40.803489002559537369
0.170000000000000012,40.113897560323103164
0.171000000000000013,39.419148038154197877
0.172000000000000014,38.725375119202155361
0.173000000000000015,38.038424613416459863
0.174000000000000016,37.363367594436482477
0.175000000000000017,36.704194740971537669
0.176000000000000018,36.063668749684993031
0.177000000000000018,35.443305638399493773
0.178000000000000019,34.843453690700762593
0.179000000000000020,34.263440053542169039
0.180000000000000021,33.701758283611432887
0.181000000000000022,33.156274466079118213
0.182000000000000023,32.624434201332249472
0.183000000000000024,32.103457300839139066
0.184000000000000025,31.590511160637014143
0.185000000000000026,31.082857332245339421
0.186000000000000026,30.577968724278100865
0.187000000000000027,30.073617147308947750
0.188000000000000028,29.567932604949930919
0.189000000000000029,29.059436904777989241
0.190000000000000030,28.547054893731790060
0.191000000000000031,28.030106995925912372
0.192000000000000032,27.508286824626303257
0.193000000000000033,26.981627525124196154
0.194000000000000034,26.450460242920939891
0.195000000000000034,25.915367753608222756
0.196000000000000035,25.377135879017892250
0.197000000000000036,24.836704881535659695
0.198000000000000037,24.295122599795075047
0.199000000000000038,23.753500682234875541
0.200000000000000039,23.212974902349454709
0.201000000000000040,22.674670208297818874
0.202000000000000041,22.139670873535596485
0.203000000000000042,21.608995875108995222
0.204000000000000042,21.083579430899252571
0.205000000000000043,20.564256473654449309
0.206000000000000044,20.051752724345831780
0.207000000000000045,19.546678945941117433
0.208000000000000046,19.049528906559690000
0.209000000000000047,18.560680553633520873
0.210000000000000048,18.080399893784615983
0.211000000000000049,17.608847082587399058
0.212000000000000050,17.146084250519358250
0.213000000000000050,16.692084622941997907
0.214000000000000051,16.246742530041235142
0.215000000000000052,15.809883944864793648
0.216000000000000053,15.381277231895305491
0.217000000000000054,14.960643833338318487
0.218000000000000055,14.547668664171549580
0.219000000000000056,14.142010028985529502
0.220000000000000057,13.743308912998918103
0.221000000000000058,13.351197535839949282
0.222000000000000058,12.965307089417887454
0.223000000000000059,12.585274610302514375
0.224000000000000060,12.210748962444046839
0.225000000000000061,11.841395927865349336
0.226000000000000062,11.476902421284600919
0.227000000000000063,11.116979859679331000
0.228000000000000064,10.761366729822256616
0.229000000000000065,10.409830406070980757
0.230000000000000066,10.062168277458454213
0.231000000000000066,9.718208247691123347
0.232000000000000067,9.377808674299053848
0.233000000000000068,9.040857814165658368
0.234000000000000069,8.707272842252297806
0.235000000000000070,8.376998508763065843
0.236000000000000071,8.050005497489147288
0.237000000000000072,7.726288544828811666
0.238000000000000073,7.405864375179322501
0.239000000000000073,7.088769504198973337
0.240000000000000074,6.775057956978602469
0.241000000000000075,6.464798943564812994
0.242000000000000076,6.158074529640659378
0.243000000000000077,5.854977335580317188
0.244000000000000078,5.555608292622097544
0.245000000000000079,5.260074480604133740
0.246000000000000080,4.968487067624563380
0.247000000000000081,4.680959368153170708
0.248000000000000081,4.397605032560326421
0.249000000000000082,4.118536377754063338
0.250000000000000111,3.843862865636055837
0.251000000000000112,3.573689733403749180
0.252000000000000113,3.308116777334718428
0.253000000000000114,3.047237289585065678
0.254000000000000115,2.791137145702765388
0.255000000000000115,2.539894038989079839
0.256000000000000116,2.293576856519327301
0.257000000000000117,2.052245190542820286
0.258000000000000118,1.815948978103955280
0.259000000000000119,1.584728261043280684
0.260000000000000120,1.358613058032057008
0.261000000000000121,1.137623339948942824
0.262000000000000122,0.921769099704625838
0.263000000000000123,0.711050507544487287
0.264000000000000123,0.505458142893418394
0.265000000000000124,0.304973293936902090
0.266000000000000125,0.109568316343640421
0.267000000000000126,-0.080792957185288825
0.268000000000000127,-0.266154764520067366
0.269000000000000128,-0.446568926456382909
0.270000000000000129,-0.622094331001872058
0.271000000000000130,-0.792796396333903197
0.272000000000000131,-0.958746518706999007
0.273000000000000131,-1.120021511117072155
0.274000000000000132,-1.276703038053520256
0.275000000000000133,-1.428877051195587722
0.276000000000000134,-1.576633230440386502
0.277000000000000135,-1.720064434190561986
0.278000000000000136,-1.859266162384172860
0.279000000000000137,-1.994336035319375977
0.280000000000000138,-2.125373290915054447
0.281000000000000139,-2.252478302657673570
0.282000000000000139,-2.375752120114554167
0.283000000000000140,-2.495296033546792192
0.284000000000000141,-2.611211163830578386
0.285000000000000142,-2.723598078594923422
0.286000000000000143,-2.832556435206142975
0.287000000000000144,-2.938184650974890566
0.288000000000000145,-3.040579600730193732
0.289000000000000146,-3.139836341694854038
0.290000000000000147,-3.236047865409025892
0.291000000000000147,-3.329304876280934966
0.292000000000000148,-3.419695596196353993
0.293000000000000149,-3.507305594489199763
0.294000000000000150,-3.592217642464701211
0.295000000000000151,-3.674511591572025004
0.296000000000000152,-3.754264274244426325
0.297000000000000153,-3.831549426360697730
0.298000000000000154,-3.906437630230980229
0.299000000000000155,-3.978996276971592749
0.300000000000000155,-4.049289547106594611
0.301000000000000156,-4.117378408217222230
0.302000000000000157,-4.183320628453301993
0.303000000000000158,-4.247170804721894122
0.304000000000000159,-4.308980404377579454
0.305000000000000160,-4.368797819254290893
0.306000000000000161,-4.426668430900305040
0.307000000000000162,-4.482634685904818284
0.308000000000000163,-4.536736180235696025
0.309000000000000163,-4.589009751543100535
0.310000000000000164,-4.639489578421998495
0.311000000000000165,-4.688207285667260749
0.312000000000000166,-4.735192054598170053
0.313000000000000167,-4.780470737573582873
0.314000000000000168,-4.824067975864695157
0.315000000000000169,-4.866006320098851035
0.316000000000000170,-4.906306352534718584
0.317000000000000171,-4.944986810475890948
0.318000000000000171,-4.982064710176869582
0.319000000000000172,-5.017555470641461568
0.320000000000000173,-5.051473036759102975
0.321000000000000174,-5.083830001269219245
0.322000000000000175,-5.114637725087264997
0.323000000000000176,-5.143906455568175495
0.324000000000000177,-5.171645442324097175
0.325000000000000178,-5.197863050252395034
0.326000000000000179,-5.222566869468149520
0.327000000000000179,-5.245763821871344490
0.328000000000000180,-5.267460264113704049
0.329000000000000181,-5.287662086763160296
0.330000000000000182,-5.306374809494839084
0.331000000000000183,-5.323603672167365630
0.332000000000000184,-5.339353721670660136
0.333000000000000185,-5.353629894457784033
0.334000000000000186,-5.366437094697548815
0.335000000000000187,-5.377780268007500197
0.336000000000000187,-5.387664470747902890
0.337000000000000188,-5.396094934876829008
0.338000000000000189,-5.403077128384553340
0.339000000000000190,-5.408616811341893538
0.340000000000000191,-5.412720087612081343
0.341000000000000192,-5.415393452289618104
0.342000000000000193,-5.416643834941700320
0.343000000000000194,-5.416478638739066653
0.344000000000000195,-5.414905775572679048
0.345000000000000195,-5.411933697261789966
0.346000000000000196,-5.407571422966047869
0.347000000000000197,-5.401828562921259014
0.348000000000000198,-5.394715338623865541
0.349000000000000199,-5.386242599593782820
0.350000000000000200,-5.376421836849308633
0.351000000000000201,-5.365265193230575491
0.352000000000000202,-5.352785470710378135
0.353000000000000203,-5.338996134832845186
0.354000000000000203,-5.323911316421237494
0.355000000000000204,-5.307545810696472799
0.356000000000000205,-5.289915073947821789
0.357000000000000206,-5.271035217896509195
0.358000000000000207,-5.250923001891557362
0.359000000000000208,-5.229595823075892547
0.360000000000000209,-5.207071704658548406
0.361000000000000210,-5.183369282426532720
0.362000000000000210,-5.158507789627308604
0.363000000000000211,-5.132507040349930882
0.364000000000000212,-5.105387411529797248
0.365000000000000213,-5.077169823698531204
0.366000000000000214,-5.047875720597136073
0.367000000000000215,-5.017527047766772164
0.368000000000000216,-4.986146230227842757
0.369000000000000217,-4.953756149354065386
0.370000000000000218,-4.920380119044387435
0.371000000000000218,-4.886041861291380961
0.372000000000000219,-4.850765481240913779
0.373000000000000220,-4.814575441833632397
0.374000000000000221,-4.777496538114817781
0.375000000000000222,-4.739553871294933884
0.376000000000000223,-4.700772822639377679
0.377000000000000224,-4.661179027261647789
0.378000000000000225,-4.620798347890317181
0.379000000000000226,-4.579656848676205705
0.380000000000000226,-4.537780769102387701
0.381000000000000227,-4.495196498055628709
0.382000000000000228,-4.451930548114452435
0.383000000000000229,-4.408009530105161389
0.384000000000000230,-4.363460127973629810
0.385000000000000231,-4.318309074017421700
0.386000000000000232,-4.272583124519144349
0.387000000000000233,-4.226309035818975879
0.388000000000000234,-4.179513540860932075
0.389000000000000234,-4.132223326244616857
0.390000000000000235,-4.084465009811065528
0.391000000000000236,-4.036265118788636030
0.392000000000000237,-3.987650068522055502
0.393000000000000238,-3.938646141805262069
0.394000000000000239,-3.889279468836044806
0.395000000000000240,-3.839576007808233271
0.396000000000000241,-3.789561526154842763
0.397000000000000242,-3.739261582453359267
0.398000000000000242,-3.688701509002464629
0.399000000000000243,-3.637906395077332267
0.400000000000000244,-3.586901070868855790
0.401000000000000245,-3.535710092110527114
0.402000000000000246,-3.484357725394791938
0.403000000000000247,-3.432867934179316016
0.404000000000000248,-3.381264365482112400
0.405000000000000249,-3.329570337263024093
0.406000000000000250,-3.277808826487814464
0.407000000000000250,-3.226002457869937778
0.408000000000000251,-3.174173493283863667
0.409000000000000252,-3.122343821842882505
0.410000000000000253,-3.070534950633264870
0.411000000000000254,-3.018767996095829798
0.412000000000000255,-2.967063676045116782
0.413000000000000256,-2.915442302315628176
0.414000000000000257,-2.863923774023906077
0.415000000000000258,-2.812527571434631390
0.416000000000000258,-2.761272750418331867
0.417000000000000259,-2.710177937487805888
0.418000000000000260,-2.659261325399952192
0.419000000000000261,-2.608540669309244997
0.420000000000000262,-2.558033283458828411
0.421000000000000263,-2.507756038394853171
0.422000000000000264,-2.457725358689502926
0.423000000000000265,-2.407957221157815741
0.424000000000000266,-2.358467153553504225
0.425000000000000266,-2.309270233728531352
0.426000000000000267,-2.260381089241395802
0.427000000000000268,-2.211813897398858142
0.428000000000000269,-2.163582385715885348
0.429000000000000270,-2.115699832778651590
0.430000000000000271,-2.068179069495307054
0.431000000000000272,-2.021032480719523683
0.432000000000000273,-1.974272007231717696
0.433000000000000274,-1.927909148063115641
0.434000000000000274,-1.881954963147803195
0.435000000000000275,-1.836420076288260317
0.436000000000000276,-1.791314678419868356
0.437000000000000277,-1.746648531160155615
0.438000000000000278,-1.702430970628773022
0.439000000000000279,-1.658670911524362079
0.440000000000000280,-1.615376851444710882
0.441000000000000281,-1.572556875436879498
0.442000000000000282,-1.530218660764219640
0.443000000000000282,-1.488369481877399814
0.444000000000000283,-1.447016215576962583
0.445000000000000284,-1.406165346355092938
0.446000000000000285,-1.365822971904556482
0.447000000000000286,-1.325994808783244494
0.448000000000000287,-1.286686198222736666
0.449000000000000288,-1.247902112069934066
0.450000000000000289,-1.209647158850813309
0.451000000000000290,-1.171925589945878698
0.452000000000000290,-1.134741305867068339
0.453000000000000291,-1.098097862626193244
0.454000000000000292,-1.061998478185349981
0.455000000000000293,-1.026446038979946573
0.456000000000000294,-0.991443106505402794
0.457000000000000295,-0.956991923958793733
0.458000000000000296,-0.923094422927032587
0.459000000000000297,-0.889752230113521114
0.460000000000000298,-0.856966674095411940
0.461000000000000298,-0.824738792104021123
0.462000000000000299,-0.793069336821105919
0.463000000000000300,-0.761958783184081612
0.464000000000000301,-0.731407335193506869
0.465000000000000302,-0.701414932716471262
0.466000000000000303,-0.671981258279685800
0.467000000000000304,-0.643105743846493549
0.468000000000000305,-0.614787577572182942
0.469000000000000306,-0.587025710532227407
0.470000000000000306,-0.559818863418433343
0.471000000000000307,-0.533165533198067587
0.472000000000000308,-0.507063999731440562
0.473000000000000309,-0.481512332343513982
0.474000000000000310,-0.456508396345458145
0.475000000000000311,-0.432049859502151912
0.476000000000000312,-0.408134198442079099
0.477000000000000313,-0.384758705005955159
0.478000000000000314,-0.361920492530953708
0.479000000000000314,-0.339616502067408121
0.480000000000000315,-0.317843508525083751
0.481000000000000316,-0.296598126746392687
0.482000000000000317,-0.275876817503983907
0.483000000000000318,-0.255675893420444944
0.484000000000000319,-0.235991524807909636
0.485000000000000320,-0.216819745425649302
0.486000000000000321,-0.198156458153767673
0.487000000000000322,-0.179997440581389473
0.488000000000000322,-0.162338350507777479
0.489000000000000323,-0.145174731355087128
0.490000000000000324,-0.128502017491460119
0.491000000000000325,-0.112315539463430800
0.492000000000000326,-0.096610529136640408
0.493000000000000327,-0.081382124744077244
0.494000000000000328,-0.066625375841112541
0.495000000000000329,-0.052335248166725322
0.496000000000000330,-0.038506628410482510
0.497000000000000330,-0.025134328884855096
0.498000000000000331,-0.012213092102629797
0.499000000000000332,0.000262404740751854
0.500000000000000333,0.012297545380012020
0.501000000000000334,0.023897770188011980
0.502000000000000335,0.035068571978747201
0.503000000000000336,0.045815491905210906
0.504000000000000337,0.056144115451862819
0.505000000000000338,0.066060068521351531
0.506000000000000338,0.075569013615096936
0.507000000000000339,0.084676646107273296
0.508000000000000340,0.093388690611638375
0.509000000000000341,0.101710897440614276
0.510000000000000342,0.109649039155986186
0.511000000000000343,0.117208907210502297
0.512000000000000344,0.124396308679619289
0.513000000000000345,0.131217063082593455
0.514000000000000346,0.137676999292067864
0.515000000000000346,0.143781952531275986
0.516000000000000347,0.149537761457932628
0.517000000000000348,0.154950265333821724
0.518000000000000349,0.160025301279138887
0.519000000000000350,0.164768701610515544
0.520000000000000351,0.169186291261674115
0.521000000000000352,0.173283885285658051
0.522000000000000353,0.177067286437492422
0.523000000000000353,0.180542282836184287
0.524000000000000354,0.183714645704876389
0.525000000000000355,0.186590127188013877
0.526000000000000356,0.189174458244335819
0.527000000000000357,0.191473346614468826
0.528000000000000358,0.193492474861967523
0.529000000000000359,0.195237498486507260
0.530000000000000360,0.196714044108071029
0.531000000000000361,0.197927707720833290
0.532000000000000361,0.198884053015549567
0.533000000000000362,0.199588609769140390
0.534000000000000363,0.200046872300283951
0.535000000000000364,0.200264297989713513
0.536000000000000365,0.200246305863980817
0.537000000000000366,0.199998275241436513
0.538000000000000367,0.199525544439159097
0.539000000000000368,0.198833409539589223
0.540000000000000369,0.197927123215621087
0.541000000000000369,0.196811893612902244
0.542000000000000370,0.195492883288098357
0.543000000000000371,0.193975208201912025
0.544000000000000372,0.192263936765593890
0.545000000000000373,0.190364088939760062
0.546000000000000374,0.188280635384289047
0.547000000000000375,0.186018496658102162
0.548000000000000376,0.183582542467626869
0.549000000000000377,0.180977590962777712
0.550000000000000377,0.178208408079279734
0.551000000000000378,0.175279706926152162
0.552000000000000379,0.172196147217255457
0.553000000000000380,0.168962334745704240
0.554000000000000381,0.165582820900080890
0.555000000000000382,0.162062102221303600
0.556000000000000383,0.158404619999067908
0.557000000000000384,0.154614759906781807
0.558000000000000385,0.150696851673918580
0.559000000000000385,0.146655168794734253
0.560000000000000386,0.142493928272329401
0.561000000000000387,0.138217290397002146
0.562000000000000388,0.133829358557905481
0.563000000000000389,0.129334179087005813
0.564000000000000390,0.124735741134368847
0.565000000000000391,0.120037976573804259
0.566000000000000392,0.115244759937930083
0.567000000000000393,0.110359908381716693
0.568000000000000393,0.105387181673601241
0.569000000000000394,0.100330282213261388
0.570000000000000395,0.095192855075192456
0.571000000000000396,0.089978488077176649
0.572000000000000397,0.084690711872824037
0.573000000000000398,0.079333000067349377
0.574000000000000399,0.073908769355735399
0.575000000000000400,0.068421379682514147
0.576000000000000401,0.062874134422349792
0.577000000000000401,0.057270280580663926
0.578000000000000402,0.051613009013532427
0.579000000000000403,0.045905454666138421
0.580000000000000404,0.040150696829017486
0.581000000000000405,0.034351759411414232
0.582000000000000406,0.028511611231043309
0.583000000000000407,0.022633166319558241
0.584000000000000408,0.016719284243103337
0.585000000000000409,0.010772770437255396
0.586000000000000409,0.004796376555730930
0.587000000000000410,-0.001207199167739537
0.588000000000000411,-0.007235311545010542
0.589000000000000412,-0.013285368047168188
0.590000000000000413,-0.019354828406799435
0.591000000000000414,-0.025441204209464087
0.592000000000000415,-0.031542058474902976
0.593000000000000416,-0.037655005228534086
0.594000000000000417,-0.043777709063750725
0.595000000000000417,-0.049907884695529703
0.596000000000000418,-0.056043296505865439
0.597000000000000419,-0.062181758081478612
0.598000000000000420,-0.068321131744313868
0.599000000000000421,-0.074459328075243220
0.600000000000000422,-0.080594305431460581
0.601000000000000423,-0.086724069457963265
0.602000000000000424,-0.092846672593572571
0.603000000000000425,-0.098960213571894065
0.604000000000000425,-0.105062836917607566
0.605000000000000426,-0.111152732438475899
0.606000000000000427,-0.117228134713476179
0.607000000000000428,-0.123287322577353864
0.608000000000000429,-0.129328618602052081
0.609000000000000430,-0.135350388575235570
0.610000000000000431,-0.141351040976366860
0.611000000000000432,-0.147329026450566308
0.612000000000000433,-0.153282837280598938
0.613000000000000433,-0.159211006857320425
0.614000000000000434,-0.165112109148813829
0.615000000000000435,-0.170984758168552797
