# Pyrophyllite-001_NETHYLFORMAMIDE-AC
# h[nm],U(h)[kJ/mol]
0.149999999999999994,65.330933771995290726
0.150999999999999995,63.979891397649247153
0.151999999999999996,62.799583440502217968
0.152999999999999997,61.709158243992042969
0.153999999999999998,60.663737000305864910
0.154999999999999999,59.640886684658212857
0.156000000000000000,58.631311735798249174
0.157000000000000001,57.632721928187585547
0.158000000000000002,56.646001148716720763
0.159000000000000002,55.672979345298109877
0.160000000000000003,54.715274227068753987
0.161000000000000004,53.773809960007291409
0.162000000000000005,52.848734263289564694
0.163000000000000006,51.939544175864817532
0.164000000000000007,51.045297461928555549
0.165000000000000008,50.164834963843077276
0.166000000000000009,49.296972973575854837
0.167000000000000010,48.440647285457387738
0.168000000000000010,47.595004900656022073
0.169000000000000011,46.759447718184993903
0.170000000000000012,45.933636801068196576
0.171000000000000013,45.117467340069794091
0.172000000000000014,44.311024275147104845
0.173000000000000015,43.514527407317089569
0.174000000000000016,42.728273244226514294
0.175000000000000017,41.952579103011181871
0.176000000000000018,41.187733349614539691
0.177000000000000018,40.433954200373321441
0.178000000000000019,39.691358303237620930
0.179000000000000020,38.959939365467278094
0.180000000000000021,38.239556389607365361
0.181000000000000022,37.529930593141394013
0.182000000000000023,36.830649785831354848
0.183000000000000024,36.141178827036171128
0.184000000000000025,35.460874749399614814
0.185000000000000026,34.789005184683155392
0.186000000000000026,34.124768835882626661
0.187000000000000027,33.467316885311973351
0.188000000000000028,32.815774393632892725
0.189000000000000029,32.169260916434211595
0.190000000000000030,31.526909733007755676
0.191000000000000031,30.887885239486699618
0.192000000000000032,30.251398201010498923
0.193000000000000033,29.616718682492443548
0.194000000000000034,28.983186583832594607
0.195000000000000034,28.350219793087216402
0.196000000000000035,27.717320041018883359
0.197000000000000036,27.084076593982501890
0.198000000000000037,26.450167960943417711
0.199000000000000038,25.815361816428236352
0.200000000000000039,25.179513356269765723
0.201000000000000040,24.542562308963880469
0.202000000000000041,23.904528824041573642
0.203000000000000042,23.265508451657730404
0.204000000000000042,22.625666416018937355
0.205000000000000043,21.985231370553712793
0.206000000000000044,21.344488805920470043
0.207000000000000045,20.703774263938253597
0.208000000000000046,20.063466492036504008
0.209000000000000047,19.423980654430739179
0.210000000000000048,18.785761698394203734
0.211000000000000049,18.149277957048205678
0.212000000000000050,17.515015054275899331
0.213000000000000050,16.883470162840019668
0.214000000000000051,16.255146653641837418
0.215000000000000052,15.630549162338477132
0.216000000000000053,15.010179089231559857
0.217000000000000054,14.394530539412594194
0.218000000000000055,13.784086702536367142
0.219000000000000056,13.179316665211507242
0.220000000000000057,12.580672643750093087
0.221000000000000058,11.988587620812159784
0.222000000000000058,11.403473366202767636
0.223000000000000059,10.825718819635886447
0.224000000000000060,10.255688811561574525
0.225000000000000061,9.693723097069558037
0.226000000000000062,9.140135677340017750
0.227000000000000063,8.595214383028189076
0.228000000000000064,8.059220694266013396
0.229000000000000065,7.532389772570232012
0.230000000000000066,7.014930680802434537
0.231000000000000066,6.507026768372917047
0.232000000000000067,6.008836200072418698
0.233000000000000068,5.520492608207907992
0.234000000000000069,5.042105849076540025
0.235000000000000070,4.573762846203784704
0.236000000000000071,4.115528504172666580
0.237000000000000072,3.667446678257846315
0.238000000000000073,3.229541186436112987
0.239000000000000073,2.801816851658844421
0.240000000000000074,2.384260563529951860
0.241000000000000075,1.976842349730591142
0.242000000000000076,1.579516448660513772
0.243000000000000077,1.192222375823141167
0.244000000000000078,0.814885977466053069
0.245000000000000079,0.447420465898521691
0.246000000000000080,0.089727431745623143
0.247000000000000081,-0.258302170836713085
0.248000000000000081,-0.596787069264445358
0.249000000000000082,-0.925854750594927389
0.250000000000000111,-1.245640574645760612
0.251000000000000112,-1.556286923738301464
0.252000000000000113,-1.857942390191060555
0.253000000000000114,-2.150761002288467783
0.254000000000000115,-2.434901489101423344
0.255000000000000115,-2.710526584229667968
0.256000000000000116,-2.977802368271866396
0.257000000000000117,-3.236897649602103577
0.258000000000000118,-3.487983382837863466
0.259000000000000119,-3.731232124222374047
0.260000000000000120,-3.966817523009340984
0.261000000000000121,-4.194913847827639763
0.262000000000000122,-4.415695546915900493
0.263000000000000123,-4.629336841048074191
0.264000000000000123,-4.836011347920226910
0.265000000000000124,-5.035891736732621915
0.266000000000000125,-5.229149411678568171
0.267000000000000126,-5.415954223040103876
0.268000000000000127,-5.596474204589632961
0.269000000000000128,-5.770875336003476797
0.270000000000000129,-5.939321329007789529
0.271000000000000130,-6.101973435997914308
0.272000000000000131,-6.258990279897462372
0.273000000000000131,-6.410527704053082587
0.274000000000000132,-6.556738640993712508
0.275000000000000133,-6.697772998918615883
0.276000000000000134,-6.833777564816020167
0.277000000000000135,-6.964895923152733204
0.278000000000000136,-7.091268389115415793
0.279000000000000137,-7.213031955424352937
0.280000000000000138,-7.330320251781129670
0.281000000000000139,-7.443263516052530449
0.282000000000000139,-7.551988576332837155
0.283000000000000140,-7.656618843066840263
0.284000000000000141,-7.757274310454638666
0.285000000000000142,-7.854071566397704096
0.286000000000000143,-7.947123810282948675
0.287000000000000144,-8.036540877937687455
0.288000000000000145,-8.122429273123913163
0.289000000000000146,-8.204892204973806002
0.290000000000000147,-8.284029630801848398
0.291000000000000147,-8.359938303760097611
0.292000000000000148,-8.432711824834170145
0.293000000000000149,-8.502440698706219990
0.294000000000000150,-8.569212393039766340
0.295000000000000151,-8.633111400767937482
0.296000000000000152,-8.694219304992437003
0.297000000000000153,-8.752614846125329251
0.298000000000000154,-8.808373990929165842
0.299000000000000155,-8.861570003133460105
0.300000000000000155,-8.912273515327029827
0.301000000000000156,-8.960552601845989784
0.302000000000000157,-9.006472852396770534
0.303000000000000158,-9.050097446171927018
0.304000000000000159,-9.091487226234217900
0.305000000000000160,-9.130700773960949590
0.306000000000000161,-9.167794483356709989
0.307000000000000162,-9.202822635057472667
0.308000000000000163,-9.235837469863506399
0.309000000000000163,-9.266889261651900966
0.310000000000000164,-9.296026389532595857
0.311000000000000165,-9.323295409123653954
0.312000000000000166,-9.348741122833342132
0.313000000000000167,-9.372406649047137606
0.314000000000000168,-9.394333490128337516
0.315000000000000169,-9.414561599150278681
0.316000000000000170,-9.433129445287843140
0.317000000000000171,-9.450074077803931161
0.318000000000000171,-9.465431188575115229
0.319000000000000172,-9.479235173108234491
0.320000000000000173,-9.491519190006702189
0.321000000000000174,-9.502315218852151801
0.322000000000000175,-9.511654116473362564
0.323000000000000176,-9.519565671580195954
0.324000000000000177,-9.526078657745909339
0.325000000000000178,-9.531220884726220532
0.326000000000000179,-9.535019248108472567
0.327000000000000179,-9.537499777288507730
0.328000000000000180,-9.538687681777117788
0.329000000000000181,-9.538607395841827596
0.330000000000000182,-9.537282621493044843
0.331000000000000183,-9.534736369827328417
0.332000000000000184,-9.530991000742991659
0.333000000000000185,-9.526068261046464869
0.334000000000000186,-9.519989320970109858
0.335000000000000187,-9.512774809124493913
0.336000000000000187,-9.504444845910350992
0.337000000000000188,-9.495019075417014065
0.338000000000000189,-9.484516695836182620
0.339000000000000190,-9.472956488421051091
0.340000000000000191,-9.460356845022229066
0.341000000000000192,-9.446735794233173777
0.342000000000000193,-9.432111026178640500
0.343000000000000194,-9.416499915980693913
0.344000000000000195,-9.399919545937351018
0.345000000000000195,-9.382386726449761127
0.346000000000000196,-9.363918015733968758
0.347000000000000197,-9.344529738353962500
0.348000000000000198,-9.324238002612780463
0.349000000000000199,-9.303058716838572551
0.350000000000000200,-9.281007604602706351
0.351000000000000201,-9.258100218906816892
0.352000000000000202,-9.234351955375638354
0.353000000000000203,-9.209778064492313732
0.354000000000000203,-9.184393662912553324
0.355000000000000204,-9.158213743893652392
0.356000000000000205,-9.131253186874086936
0.357000000000000206,-9.103526766238980272
0.358000000000000207,-9.075049159306022517
0.359000000000000208,-9.045834953566229686
0.360000000000000209,-9.015898653213117342
0.361000000000000210,-8.985254684993297047
0.362000000000000210,-8.953917403410937226
0.363000000000000211,-8.921901095317778640
0.364000000000000212,-8.889219983919776524
0.365000000000000213,-8.855888232230622492
0.366000000000000214,-8.821919946001816726
0.367000000000000215,-8.787329176157967936
0.368000000000000216,-8.752129920765570503
0.369000000000000217,-8.716336126562390874
0.370000000000000218,-8.679961690074057046
0.371000000000000218,-8.643020458343517731
0.372000000000000219,-8.605526229298307683
0.373000000000000220,-8.567492751779743898
0.374000000000000221,-8.528933725257440202
0.375000000000000222,-8.489862799251518766
0.376000000000000223,-8.450293572484474325
0.377000000000000224,-8.410239591783511770
0.378000000000000225,-8.369714350753582721
0.379000000000000226,-8.328731288240536657
0.380000000000000226,-8.287303786603077427
0.381000000000000227,-8.245445169811334907
0.382000000000000228,-8.203168701389307316
0.383000000000000229,-8.160487582217566427
0.384000000000000230,-8.117414948211855830
0.385000000000000231,-8.073963867892782531
0.386000000000000232,-8.030147339860690181
0.387000000000000233,-7.985978290189544637
0.388000000000000234,-7.941469569752636737
0.389000000000000234,-7.896633951492622927
0.390000000000000235,-7.851484127647407441
0.391000000000000236,-7.806032706943109467
0.392000000000000237,-7.760292211764476811
0.393000000000000238,-7.714275075312771790
0.394000000000000239,-7.667993638760314923
0.395000000000000240,-7.621460148410614366
0.396000000000000241,-7.574686752872250572
0.397000000000000242,-7.527685500254233553
0.398000000000000242,-7.480468335390173529
0.399000000000000243,-7.433047097097874811
0.400000000000000244,-7.385433515480711364
0.401000000000000245,-7.337639209276657581
0.402000000000000246,-7.289675683260261607
0.403000000000000247,-7.241554325702606043
0.404000000000000248,-7.193286405893831947
0.405000000000000249,-7.144883071732391677
0.406000000000000250,-7.096355347384838197
0.407000000000000250,-7.047714131019633399
0.408000000000000251,-6.998970192618054753
0.409000000000000252,-6.950134171865022026
0.410000000000000253,-6.901216576122290114
0.411000000000000254,-6.852227778486184029
0.412000000000000255,-6.803178015931774958
0.413000000000000256,-6.754077387545119215
0.414000000000000257,-6.704935852844871924
0.415000000000000258,-6.655763230194438052
0.416000000000000258,-6.606569195305493913
0.417000000000000259,-6.557363279833571923
0.418000000000000260,-6.508154870066107378
0.419000000000000261,-6.458953205703214628
0.420000000000000262,-6.409767378731240584
0.421000000000000263,-6.360606332389008521
0.422000000000000264,-6.311478860226395149
0.423000000000000265,-6.262393605254824358
0.424000000000000266,-6.213359059189162537
0.425000000000000266,-6.164383561780139686
0.426000000000000267,-6.115475300236569822
0.427000000000000268,-6.066642308736311051
0.428000000000000269,-6.017892468024923502
0.429000000000000270,-5.969233505100830506
0.430000000000000271,-5.920672992985638317
0.431000000000000272,-5.872218350578329193
0.432000000000000273,-5.823876842591809933
0.433000000000000274,-5.775655579570317499
0.434000000000000274,-5.727561517986046624
0.435000000000000275,-5.679601460413411296
0.436000000000000276,-5.631782055779179785
0.437000000000000277,-5.584109799686716613
0.438000000000000278,-5.536591034812571976
0.439000000000000279,-5.489231951373566787
0.440000000000000280,-5.442038587662449522
0.441000000000000281,-5.395016830650312123
0.442000000000000282,-5.348172416653794059
0.443000000000000282,-5.301510932065093940
0.444000000000000283,-5.255037814142924368
0.445000000000000284,-5.208758351862382341
0.446000000000000285,-5.162677686821714573
0.447000000000000286,-5.116800814204157000
0.448000000000000287,-5.071132583792655524
0.449000000000000288,-5.025677701035697886
0.450000000000000289,-4.980440728162130348
0.451000000000000290,-4.935426085343069147
0.452000000000000290,-4.890638051898969607
0.453000000000000291,-4.846080767549855395
0.454000000000000292,-4.801758233706843626
0.455000000000000293,-4.757674314803021609
0.456000000000000294,-4.713832739661794058
0.457000000000000295,-4.670237102900887116
0.458000000000000296,-4.626890866370080957
0.459000000000000297,-4.583797360620936345
0.460000000000000298,-4.540959786406662424
0.461000000000000298,-4.498381216210428413
0.462000000000000299,-4.456064595800322437
0.463000000000000300,-4.414012745809277938
0.464000000000000301,-4.372228363338302337
0.465000000000000302,-4.330714023581378136
0.466000000000000303,-4.289472181470375567
0.467000000000000304,-4.248505173338442020
0.468000000000000305,-4.207815218600328144
0.469000000000000306,-4.167404421448095420
0.470000000000000306,-4.127274772560815208
0.471000000000000307,-4.087428150826690754
0.472000000000000308,-4.047866325076353355
0.473000000000000309,-4.008590955825808599
0.474000000000000310,-3.969603597027833164
0.475000000000000311,-3.930905697830389123
0.476000000000000312,-3.892498604340969504
0.477000000000000313,-3.854383561395431368
0.478000000000000314,-3.816561714330311439
0.479000000000000314,-3.779034110757376830
0.480000000000000315,-3.741801702339281999
0.481000000000000316,-3.704865346565315853
0.482000000000000317,-3.668225808526107024
0.483000000000000318,-3.631883762686321404
0.484000000000000319,-3.595839794654350108
0.485000000000000320,-3.560094402948070780
0.486000000000000321,-3.524648000755713717
0.487000000000000322,-3.489500917691012116
0.488000000000000322,-3.454653401541709634
0.489000000000000323,-3.420105620010733816
0.490000000000000324,-3.385857662449114791
0.491000000000000325,-3.351909541580002205
0.492000000000000326,-3.318261195212971693
0.493000000000000327,-3.284912487948035142
0.494000000000000328,-3.251863212868581599
0.495000000000000329,-3.219113093222719435
0.496000000000000330,-3.186661784092329697
0.497000000000000330,-3.154508874049337219
0.498000000000000331,-3.122653886798566258
0.499000000000000332,-3.091096282806772955
0.500000000000000333,-3.059835460917262218
0.501000000000000334,-3.028870759949655600
0.502000000000000335,-2.998201460284401598
0.503000000000000336,-2.967826785431584291
0.504000000000000337,-2.937745903583633300
0.505000000000000338,-2.907957929151582910
0.506000000000000338,-2.878461924284551721
0.507000000000000339,-2.849256900372072021
0.508000000000000340,-2.820341819529006866
0.509000000000000341,-2.791715596062811056
0.510000000000000342,-2.763377097922788739
0.511000000000000343,-2.735325148131191320
0.512000000000000344,-2.707558526195891435
0.513000000000000345,-2.680075969504473576
0.514000000000000346,-2.652876174699536627
0.515000000000000346,-2.625957799035043116
0.516000000000000347,-2.599319461713579749
0.517000000000000348,-2.572959745204451476
0.518000000000000349,-2.546877196542374655
0.519000000000000350,-2.521070328606827005
0.520000000000000351,-2.495537621381850535
0.521000000000000352,-2.470277523196333203
0.522000000000000353,-2.445288451944664043
0.523000000000000353,-2.420568796287720481
0.524000000000000354,-2.396116916834254429
0.525000000000000355,-2.371931147302523524
0.526000000000000356,-2.348009795662303834
0.527000000000000357,-2.324351145257236961
0.528000000000000358,-2.300953455907504885
0.529000000000000359,-2.277814964992973756
0.530000000000000360,-2.254933888516732043
0.531000000000000361,-2.232308422149182459
0.532000000000000361,-2.209936742252680109
0.533000000000000362,-2.187817006886853211
0.534000000000000363,-2.165947356794652556
0.535000000000000364,-2.144325916369235419
0.536000000000000365,-2.122950794601795810
0.537000000000000366,-2.101820086010450339
0.538000000000000367,-2.080931871550260048
0.539000000000000368,-2.060284219504603609
0.540000000000000369,-2.039875186357900994
0.541000000000000369,-2.019702817649966953
0.542000000000000370,-1.999765148812031157
0.543000000000000371,-1.980060205984614186
0.544000000000000372,-1.960586006817437221
0.545000000000000373,-1.941340561251489349
0.546000000000000374,-1.922321872283419664
0.547000000000000375,-1.903527936712443136
0.548000000000000376,-1.884956745869934336
0.549000000000000377,-1.866606286331874642
0.550000000000000377,-1.848474540614308381
0.551000000000000378,-1.830559487852057909
0.552000000000000379,-1.812859104460827764
0.553000000000000380,-1.795371364782913925
0.554000000000000381,-1.778094241716691171
0.555000000000000382,-1.761025707330128087
0.556000000000000383,-1.744163733458429233
0.557000000000000384,-1.727506292286126399
0.558000000000000385,-1.711051356913707577
0.559000000000000385,-1.694796901909070952
0.560000000000000386,-1.678740903843955135
0.561000000000000387,-1.662881341815587444
0.562000000000000388,-1.647216197953728312
0.563000000000000389,-1.631743457913345408
0.564000000000000390,-1.616461111353104219
0.565000000000000391,-1.601367152399906901
0.566000000000000392,-1.586459580099659927
0.567000000000000393,-1.571736398854525429
0.568000000000000393,-1.557195618846806573
0.569000000000000394,-1.542835256449729631
0.570000000000000395,-1.528653334625317495
0.571000000000000396,-1.514647883309535814
0.572000000000000397,-1.500816939784978432
0.573000000000000398,-1.487158549041233346
0.574000000000000399,-1.473670764123211629
0.575000000000000400,-1.460351646467564546
0.576000000000000401,-1.447199266227468861
0.577000000000000401,-1.434211702585958648
0.578000000000000402,-1.421387044057985438
0.579000000000000403,-1.408723388781439656
0.580000000000000404,-1.396218844797347147
0.581000000000000405,-1.383871530319395804
0.582000000000000406,-1.371679573993040080
0.583000000000000407,-1.359641115144353929
0.584000000000000408,-1.347754304018838667
0.585000000000000409,-1.336017302010387819
0.586000000000000409,-1.324428281880585700
0.587000000000000410,-1.312985427968557106
0.588000000000000411,-1.301686936391533100
0.589000000000000412,-1.290531015236350498
0.590000000000000413,-1.279515884742036924
0.591000000000000414,-1.268639777473701047
0.592000000000000415,-1.257900938487905407
0.593000000000000416,-1.247297625489674822
0.594000000000000417,-1.236828108981351981
0.595000000000000417,-1.226490672403495852
0.596000000000000418,-1.216283612267911929
0.597000000000000419,-1.206205238283116987
0.598000000000000420,-1.196253873472288509
0.599000000000000421,-1.186427854283953920
0.600000000000000422,-1.176725530695539756
0.601000000000000423,-1.167145266309970619
0.602000000000000424,-1.157685438445474002
0.603000000000000425,-1.148344438218745100
0.604000000000000425,-1.139120670621651010
0.605000000000000426,-1.130012554591599105
0.606000000000000427,-1.121018523075782980
0.607000000000000428,-1.112137023089353249
0.608000000000000429,-1.103366515767824074
0.609000000000000430,-1.094705476413670109
0.610000000000000431,-1.086152394537450494
0.611000000000000432,-1.077705773893462560
0.612000000000000433,-1.069364132510120413
0.613000000000000433,-1.061126002715234051
