# Gypsum-010_GLNSCA-JS
# h[nm],U(h)[kJ/mol]
0.149999999999999994,139.509056200135120207
0.150999999999999995,137.455852215277815276
0.151999999999999996,135.177639389932664926
0.152999999999999997,132.884313460071155077
0.153999999999999998,130.656600485116598520
0.154999999999999999,128.510530809937023378
0.156000000000000000,126.434456881979301102
0.157000000000000001,124.408931709913986197
0.158000000000000002,122.416256897345306243
0.159000000000000002,120.444101615362754387
0.160000000000000003,118.485963486465635697
0.161000000000000004,116.540155857700057140
0.162000000000000005,114.608296053591814712
0.163000000000000006,112.693816858349237009
0.164000000000000007,110.800744663862204220
0.165000000000000008,108.932823721306107245
0.166000000000000009,107.092976181211923858
0.167000000000000010,105.283044442695171483
0.168000000000000010,103.503747206832713346
0.169000000000000011,101.754781349752633446
0.170000000000000012,100.035010492203980448
0.171000000000000013,98.342693121850146554
0.172000000000000014,96.675715493579019721
0.173000000000000015,95.031805765868185176
0.174000000000000016,93.408715228473539582
0.175000000000000017,91.804359842477524012
0.176000000000000018,90.216920739796165662
0.177000000000000018,88.644906054822200758
0.178000000000000019,87.087178784292092359
0.179000000000000020,85.542956596990194384
0.180000000000000021,84.011789923150388404
0.181000000000000022,82.493524486831645959
0.182000000000000023,80.988253902555328523
0.183000000000000024,79.496267197257751036
0.184000000000000025,78.017995258946356785
0.185000000000000026,76.553959340170948167
0.186000000000000026,75.104723916122011929
0.187000000000000027,73.670855450764392458
0.188000000000000028,72.252887980165070303
0.189000000000000029,70.851295887993543943
0.190000000000000030,69.466473823227062212
0.191000000000000031,68.098723387660498929
0.192000000000000032,66.748245990585544973
0.193000000000000033,65.415141117716103736
0.194000000000000034,64.099409178209967308
0.195000000000000034,62.800958064793007907
0.196000000000000035,61.519612575663472853
0.197000000000000036,60.255125892339400195
0.198000000000000037,59.007192375553245256
0.199000000000000038,57.775461023751006451
0.200000000000000039,56.559549029155711253
0.201000000000000040,55.359054959441927224
0.202000000000000041,54.173571184750095142
0.203000000000000042,53.002695257002734763
0.204000000000000042,51.846040029104941027
0.205000000000000043,50.703242374221566990
0.206000000000000044,49.573970429120343795
0.207000000000000045,48.457929340262126061
0.208000000000000046,47.354865536978785201
0.209000000000000047,46.264569593074760689
0.210000000000000048,45.186877767085924518
0.211000000000000049,44.121672332938182137
0.212000000000000050,43.068880827646488285
0.213000000000000050,42.028474351812285192
0.214000000000000051,41.000465062828425289
0.215000000000000052,39.984903000689357100
0.216000000000000053,38.981872382881775252
0.217000000000000054,37.991487498695747149
0.218000000000000055,37.013888325082405117
0.219000000000000056,36.049235976455506147
0.220000000000000057,35.097708090082214483
0.221000000000000058,34.159494237366260450
0.222000000000000058,33.234791439742309649
0.223000000000000059,32.323799856385001306
0.224000000000000060,31.426718699719891958
0.225000000000000061,30.543742424003891500
0.226000000000000062,29.675057222159885839
0.227000000000000063,28.820837856709875524
0.228000000000000064,27.981244842122986682
0.229000000000000065,27.156421988216543184
0.230000000000000066,26.346494307438756977
0.231000000000000066,25.551566282910908257
0.232000000000000067,24.771720488998084875
0.233000000000000068,24.007016551870925980
0.234000000000000069,23.257490433976776956
0.235000000000000070,22.523154023502403476
0.236000000000000071,21.803995007727973388
0.237000000000000072,21.099977007582886301
0.238000000000000073,20.411039949659453896
0.239000000000000073,19.737100651361977555
0.240000000000000074,19.078053594703010987
0.241000000000000075,18.433771864457163758
0.242000000000000076,17.804108226885542621
0.243000000000000077,17.188896326003963111
0.244000000000000078,16.587951975339475297
0.245000000000000079,16.001074524257745679
0.246000000000000080,15.428048279212376315
0.247000000000000081,14.868643961628398742
0.248000000000000081,14.322620185558047723
0.249000000000000082,13.789724939708268181
0.250000000000000111,13.269697059912420656
0.251000000000000112,12.762267679584331503
0.252000000000000113,12.267161647130913948
0.253000000000000114,11.784098900700266555
0.254000000000000115,11.312795791987404925
0.255000000000000115,10.852966352105987369
0.256000000000000116,10.404323493749860319
0.257000000000000117,9.966580145009908520
0.258000000000000118,9.539450311275532002
0.259000000000000119,9.122650062632734702
0.260000000000000120,8.715898445072101097
0.261000000000000121,8.318918314641111422
0.262000000000000122,7.931437094414685696
0.263000000000000123,7.553187454820768032
0.264000000000000123,7.183907918443518170
0.265000000000000124,6.823343390941206010
0.266000000000000125,6.471245620160272161
0.267000000000000126,6.127373585906937592
0.268000000000000127,5.791493823155326126
0.269000000000000128,5.463380681732715516
0.270000000000000129,5.142816525730106392
0.271000000000000130,4.829591876045363108
0.272000000000000131,4.523505499581085942
0.273000000000000131,4.224364448692949026
0.274000000000000132,3.931984054522047245
0.275000000000000133,3.646187877849078607
0.276000000000000134,3.366807621083866220
0.277000000000000135,3.093683004954123295
0.278000000000000136,2.826661613384371829
0.279000000000000137,2.565598709964890478
0.280000000000000138,2.310357029302790632
0.281000000000000139,2.060806546425563379
0.282000000000000139,1.816824227275233072
0.283000000000000140,1.578293763189549725
0.284000000000000141,1.345105292118728091
0.285000000000000142,1.117155109172893068
0.286000000000000143,0.894345368939261531
0.287000000000000144,0.676583781850302102
0.288000000000000145,0.463783306725455868
0.289000000000000146,0.255861841452390826
0.290000000000000147,0.052741913617708878
0.291000000000000147,-0.145649627254717029
0.292000000000000148,-0.339381914349054459
0.293000000000000149,-0.528520363721474262
0.294000000000000150,-0.713126968757816782
0.295000000000000151,-0.893260587833900055
0.296000000000000152,-1.068977224215941213
0.297000000000000153,-1.240330297360934919
0.298000000000000154,-1.407370904893196606
0.299000000000000155,-1.570148074643049840
0.300000000000000155,-1.728709006237259205
0.301000000000000156,-1.883099301827644512
0.302000000000000157,-2.033363185635384873
0.303000000000000158,-2.179543712072335993
0.304000000000000159,-2.321682962279261186
0.305000000000000160,-2.459822228992472937
0.306000000000000161,-2.594002189716770879
0.307000000000000162,-2.724263068242772867
0.308000000000000163,-2.850644784601468196
0.309000000000000163,-2.973187093598380404
0.310000000000000164,-3.091929712114126705
0.311000000000000165,-3.206912435397522021
0.312000000000000166,-3.318175242612499520
0.313000000000000167,-3.425758391930474822
0.314000000000000168,-3.529702505486236763
0.315000000000000169,-3.630048644537975377
0.316000000000000170,-3.726838375191088737
0.317000000000000171,-3.820113825060675872
0.318000000000000171,-3.909917731260107665
0.319000000000000172,-3.996293480112615093
0.320000000000000173,-4.079285138989331649
0.321000000000000174,-4.158937480681572652
0.322000000000000175,-4.235296000717166720
0.323000000000000176,-4.308406928030411365
0.324000000000000177,-4.378317229393408283
0.325000000000000178,-4.445074608012486550
0.326000000000000179,-4.508727496688761605
0.327000000000000179,-4.569325045934689022
0.328000000000000180,-4.626917107431015808
0.329000000000000181,-4.681554213199744297
0.330000000000000182,-4.733287550858539028
0.331000000000000183,-4.782168935311966962
0.332000000000000184,-4.828250777223240142
0.333000000000000185,-4.871586048598622654
0.334000000000000186,-4.912228245804255877
0.335000000000000187,-4.950231350322553681
0.336000000000000187,-4.985649787542571154
0.337000000000000188,-5.018538383865239538
0.338000000000000189,-5.048952322391746073
0.339000000000000190,-5.076947097449644453
0.340000000000000191,-5.102578468198124995
0.341000000000000192,-5.125902411540907977
0.342000000000000193,-5.146975074561896513
0.343000000000000194,-5.165852726686208207
0.344000000000000195,-5.182591711755965669
0.345000000000000195,-5.197248400198586360
0.346000000000000196,-5.209879141452349316
0.347000000000000197,-5.220540216802771027
0.348000000000000198,-5.229287792771442511
0.349000000000000199,-5.236177875187927988
0.350000000000000200,-5.241266264064491587
0.351000000000000201,-5.244608509382937989
0.352000000000000202,-5.246259867892700157
0.353000000000000203,-5.246275261009778923
0.354000000000000203,-5.244709233896798217
0.355000000000000204,-5.241615915795330594
0.356000000000000205,-5.237048981673505743
0.357000000000000206,-5.231061615243663532
0.358000000000000207,-5.223706473396906524
0.359000000000000208,-5.215035652094506702
0.360000000000000209,-5.205100653748946371
0.361000000000000210,-5.193952356120782987
0.362000000000000210,-5.181640982751656743
0.363000000000000211,-5.168216074947669547
0.364000000000000212,-5.153726465322159278
0.365000000000000213,-5.138220252901647633
0.366000000000000214,-5.121744779794179081
0.367000000000000215,-5.104346609414624147
0.368000000000000216,-5.086071506257785479
0.369000000000000217,-5.066964417205929827
0.370000000000000218,-5.047069454354338625
0.371000000000000218,-5.026429879334865625
0.372000000000000219,-5.005088089114901884
0.373000000000000220,-4.983085603246321327
0.374000000000000221,-4.960463052536648654
0.375000000000000222,-4.937260169112338559
0.376000000000000223,-4.913515777842588861
0.377000000000000224,-4.889267789089802640
0.378000000000000225,-4.864553192751778887
0.379000000000000226,-4.839408053559131062
0.380000000000000226,-4.813867507590546602
0.381000000000000227,-4.787965759967202750
0.382000000000000228,-4.761736083687324594
0.383000000000000229,-4.735210819560864870
0.384000000000000230,-4.708421377203953817
0.385000000000000231,-4.681398237052571965
0.386000000000000232,-4.654170953354361373
0.387000000000000233,-4.626768158097744887
0.388000000000000234,-4.599217565837252053
0.389000000000000234,-4.571545979374331381
0.390000000000000235,-4.543779296252875355
0.391000000000000236,-4.515942516029304521
0.392000000000000237,-4.488059748277095196
0.393000000000000238,-4.460154221286446230
0.394000000000000239,-4.432248291419991659
0.395000000000000240,-4.404363453086324043
0.396000000000000241,-4.376520349293557821
0.397000000000000242,-4.348738782745911635
0.398000000000000242,-4.321037727447118115
0.399000000000000243,-4.293435340775081599
0.400000000000000244,-4.265948975993123504
0.401000000000000245,-4.238595195164112539
0.402000000000000246,-4.211389782434324047
0.403000000000000247,-4.184347757655124234
0.404000000000000248,-4.157483390311273119
0.405000000000000249,-4.130810213725649049
0.406000000000000250,-4.104341039511060885
0.407000000000000250,-4.078087972240900250
0.408000000000000251,-4.052062424311172251
0.409000000000000252,-4.026275130967539084
0.410000000000000253,-4.000736165471871608
0.411000000000000254,-3.975454954383820905
0.412000000000000255,-3.950440292933821151
0.413000000000000256,-3.925700360464956074
0.414000000000000257,-3.901242735921901073
0.415000000000000258,-3.877074413366344174
0.416000000000000258,-3.853201817498884019
0.417000000000000259,-3.829630819168579503
0.418000000000000260,-3.806366750852055336
0.419000000000000261,-3.783414422085016326
0.420000000000000262,-3.760778134829825259
0.421000000000000263,-3.738461698763742902
0.422000000000000264,-3.716468446473103704
0.423000000000000265,-3.694801248539616889
0.424000000000000266,-3.673462528505845537
0.425000000000000266,-3.652454277707392727
0.426000000000000267,-3.631778069960468258
0.427000000000000268,-3.611435076093896690
0.428000000000000269,-3.591426078315541837
0.429000000000000270,-3.571751484403762333
0.430000000000000271,-3.552411341715102644
0.431000000000000272,-3.533405351000233452
0.432000000000000273,-3.514732880020588368
0.433000000000000274,-3.496392976958939247
0.434000000000000274,-3.478384383617588504
0.435000000000000275,-3.460705548398505194
0.436000000000000276,-3.443354639060274280
0.437000000000000277,-3.426329555247185965
0.438000000000000278,-3.409627940786394085
0.439000000000000279,-3.393247195749507394
0.440000000000000280,-3.377184488275401186
0.441000000000000281,-3.361436766151548738
0.442000000000000282,-3.346000768151659255
0.443000000000000282,-3.330873035127555504
0.444000000000000283,-3.316049920854016619
0.445000000000000284,-3.301527602625303981
0.446000000000000285,-3.287302091602632093
0.447000000000000286,-3.273369242912286037
0.448000000000000287,-3.259724765494076415
0.449000000000000288,-3.246364231700531011
0.450000000000000289,-3.233283086647170457
0.451000000000000290,-3.220476657314716107
0.452000000000000290,-3.207940161404258639
0.453000000000000291,-3.195668715946581528
0.454000000000000292,-3.183657345667247895
0.455000000000000293,-3.171900991109091184
0.456000000000000294,-3.160394516514061891
0.457000000000000295,-3.149132717466570863
0.458000000000000296,-3.138110328300549146
0.459000000000000297,-3.127322029272773918
0.460000000000000298,-3.116762453505004249
0.461000000000000298,-3.106426193697708893
0.462000000000000299,-3.096307808618311785
0.463000000000000300,-3.086401829366865357
0.464000000000000301,-3.076702765422411723
0.465000000000000302,-3.067205110473149254
0.466000000000000303,-3.057903348033778279
0.467000000000000304,-3.048791956853409424
0.468000000000000305,-3.039865416117527364
0.469000000000000306,-3.031118210447534711
0.470000000000000306,-3.022544834701551331
0.471000000000000307,-3.014139798579994700
0.472000000000000308,-3.005897631039804452
0.473000000000000309,-2.997812884520943300
0.474000000000000310,-2.989880138988979308
0.475000000000000311,-2.982094005797568226
0.476000000000000312,-2.974449131374645283
0.477000000000000313,-2.966940200736147837
0.478000000000000314,-2.959561940831111571
0.479000000000000314,-2.952309123722034023
0.480000000000000315,-2.945176569604261552
0.481000000000000316,-2.938159149668346348
0.482000000000000317,-2.931251788809102088
0.483000000000000318,-2.924449468185251977
0.484000000000000319,-2.917747227633419538
0.485000000000000320,-2.911140167940268419
0.486000000000000321,-2.904623452976526909
0.487000000000000322,-2.898192311696640822
0.488000000000000322,-2.891842040007697623
0.489000000000000323,-2.885568002511365471
0.490000000000000324,-2.879365634122414086
0.491000000000000325,-2.873230441567415472
0.492000000000000326,-2.867158004767150548
0.493000000000000327,-2.861143978106299279
0.494000000000000328,-2.855184091593776952
0.495000000000000329,-2.849274151917210229
0.496000000000000330,-2.843410043394842379
0.497000000000000330,-2.837587728828300904
0.498000000000000331,-2.831803250259322002
0.499000000000000332,-2.826052729633826921
0.500000000000000333,-2.820332369376419734
0.501000000000000334,-2.814638452878371666
0.502000000000000335,-2.808967344902274288
0.503000000000000336,-2.803315491906249513
0.504000000000000337,-2.797679422290721529
0.505000000000000338,-2.792055746570610175
0.506000000000000338,-2.786441157475799013
0.507000000000000339,-2.780832429982650567
0.508000000000000340,-2.775226421279247457
0.509000000000000341,-2.769620070667125233
0.510000000000000342,-2.764010399401962470
0.511000000000000343,-2.758394510475911776
0.512000000000000344,-2.752769588343947582
0.513000000000000345,-2.747132898596739370
0.514000000000000346,-2.741481787582443097
0.515000000000000346,-2.735813681979637924
0.516000000000000347,-2.730126088323757916
0.517000000000000348,-2.724416592489231626
0.518000000000000349,-2.718682859129405660
0.519000000000000350,-2.712922631076447377
0.520000000000000351,-2.707133728703193576
0.521000000000000352,-2.701314049249007088
0.522000000000000353,-2.695461566111509999
0.523000000000000353,-2.689574328106116408
0.524000000000000354,-2.683650458695222785
0.525000000000000355,-2.677688155188780783
0.526000000000000356,-2.671685687917999541
0.527000000000000357,-2.665641399383916088
0.528000000000000358,-2.659553703382361967
0.529000000000000359,-2.653421084107018046
0.530000000000000360,-2.647242095231988834
0.531000000000000361,-2.641015358975469685
0.532000000000000361,-2.634739565145893359
0.533000000000000362,-2.628413470171977018
0.534000000000000363,-2.622035896117993481
0.535000000000000364,-2.615605729685620773
0.536000000000000365,-2.609121921203559236
0.537000000000000366,-2.602583483606232040
0.538000000000000367,-2.595989491402616700
0.539000000000000368,-2.589339079636514107
0.540000000000000369,-2.582631442839175673
0.541000000000000369,-2.575865833975487185
0.542000000000000370,-2.569041563384638849
0.543000000000000371,-2.562157997716305591
0.544000000000000372,-2.555214558863279528
0.545000000000000373,-2.548210722891449898
0.546000000000000374,-2.541146018968007514
0.547000000000000375,-2.534020028288711757
0.548000000000000376,-2.526832383005052307
0.549000000000000377,-2.519582765152034831
0.550000000000000377,-2.512270905577358882
0.551000000000000378,-2.504896582872682131
0.552000000000000379,-2.497459622307683702
0.553000000000000380,-2.489959894767527437
0.554000000000000381,-2.482397315694359730
0.555000000000000382,-2.474771844033498702
0.556000000000000383,-2.467083481184736193
0.557000000000000384,-2.459332269959476402
0.558000000000000385,-2.451518293544033611
0.559000000000000385,-2.443641674469736458
0.560000000000000386,-2.435702573590190934
0.561000000000000387,-2.427701189066205245
0.562000000000000388,-2.419637755358735376
0.563000000000000389,-2.411512542230317191
0.564000000000000390,-2.403325853755280406
0.565000000000000391,-2.395078027339136106
0.566000000000000392,-2.386769432747454012
0.567000000000000393,-2.378400471144569650
0.568000000000000393,-2.369971574142330617
0.569000000000000394,-2.361483202859238961
0.570000000000000395,-2.352935846990215740
0.571000000000000396,-2.344330023887167602
0.572000000000000397,-2.335666277650682243
0.573000000000000398,-2.326945178232932232
0.574000000000000399,-2.318167320552081190
0.575000000000000400,-2.309333323618271372
0.576000000000000401,-2.300443829671399154
0.577000000000000401,-2.291499503330851617
0.578000000000000402,-2.282501030757222882
0.579000000000000403,-2.273449118826218474
0.580000000000000404,-2.264344494314848522
0.581000000000000405,-2.255187903099912461
0.582000000000000406,-2.245980109368966193
0.583000000000000407,-2.236721894843717973
0.584000000000000408,-2.227414058016031984
0.585000000000000409,-2.218057413396468114
0.586000000000000409,-2.208652790775456065
0.587000000000000410,-2.199201034497140661
0.588000000000000411,-2.189703002745821525
0.589000000000000412,-2.180159566845133234
0.590000000000000413,-2.170571610569810961
0.591000000000000414,-2.160940029470134860
0.592000000000000415,-2.151265730209017679
0.593000000000000416,-2.141549629911644992
0.594000000000000417,-2.131792655527696034
0.595000000000000417,-2.121995743206127383
0.596000000000000418,-2.112159837682335173
0.597000000000000419,-2.102285891677845520
0.598000000000000420,-2.092374865312258692
0.599000000000000421,-2.082427725527558060
0.600000000000000422,-2.072445445524597751
0.601000000000000423,-2.062429004211732142
0.602000000000000424,-2.052379385665525469
0.603000000000000425,-2.042297578603413211
0.604000000000000425,-2.032184575868250853
0.605000000000000426,-2.022041373924633234
0.606000000000000427,-2.011868972366959163
0.607000000000000428,-2.001668373438958870
0.608000000000000429,-1.991440581564863921
0.609000000000000430,-1.981186602891771953
0.610000000000000431,-1.970907444843411627
0.611000000000000432,-1.960604115684962068
0.612000000000000433,-1.950277624098907481
0.613000000000000433,-1.939928978771829904
