# Gypsum-010_ETA-JS
# h[nm],U(h)[kJ/mol]
0.149999999999999994,96.246753245571539992
0.150999999999999995,94.930488349977764528
0.151999999999999996,93.373546479038068924
0.152999999999999997,91.718699380977369628
0.153999999999999998,90.046173477843794331
0.154999999999999999,88.395938710343926914
0.156000000000000000,86.783784403557746145
0.157000000000000001,85.212294211745799544
0.158000000000000002,83.677904618973627748
0.159000000000000002,82.175119645285633396
0.160000000000000003,80.698768550576318148
0.161000000000000004,79.244994074611128099
0.162000000000000005,77.811476562737155405
0.163000000000000006,76.397246922942827041
0.164000000000000007,75.002321544437393186
0.165000000000000008,73.627302777360938535
0.166000000000000009,72.273024782592486304
0.167000000000000010,70.940281354107455059
0.168000000000000010,69.629644791036341189
0.169000000000000011,68.341368802748050371
0.170000000000000012,67.075360302901273712
0.171000000000000013,65.831202092131690051
0.172000000000000014,64.608208831545624662
0.173000000000000015,63.405500927022686142
0.174000000000000016,62.222083986243866605
0.175000000000000017,61.056924730818934677
0.176000000000000018,59.909017254230590765
0.177000000000000018,58.777436102988794175
0.178000000000000019,57.661374737195117746
0.179000000000000020,56.560169491130849906
0.180000000000000021,55.473310245693014053
0.181000000000000022,54.400439708771060054
0.182000000000000023,53.341343552964090691
0.183000000000000024,52.295933758150610515
0.184000000000000025,51.264227418958647320
0.185000000000000026,50.246323064485189036
0.186000000000000026,49.242376249539283606
0.187000000000000027,48.252575852638017295
0.188000000000000028,47.277122185713253089
0.189000000000000029,46.316207705253681581
0.190000000000000030,45.370000828558985972
0.191000000000000031,44.438633110302042439
0.192000000000000032,43.522189827582245414
0.193000000000000033,42.620703856646990459
0.194000000000000034,41.734152599622497348
0.195000000000000034,40.862457631493413146
0.196000000000000035,40.005486681830355167
0.197000000000000036,39.163057537553086718
0.198000000000000037,38.334943447421082396
0.199000000000000038,37.520879621227379630
0.200000000000000039,36.720570442459077753
0.201000000000000040,35.933697048564411602
0.202000000000000041,35.159924974535996967
0.203000000000000042,34.398911600428071722
0.204000000000000042,33.650313189326837460
0.205000000000000043,32.913791347344442784
0.206000000000000044,32.189018779995137720
0.207000000000000045,31.475684258823378059
0.208000000000000046,30.773496747707611121
0.209000000000000047,30.082188669460418140
0.210000000000000048,29.401518320019853547
0.211000000000000049,28.731271459696323234
0.212000000000000050,28.071262128758707632
0.213000000000000050,27.421332748381292532
0.214000000000000051,26.781353577959009726
0.215000000000000052,26.151221606418175725
0.216000000000000053,25.530858958805687564
0.217000000000000054,24.920210900545260557
0.218000000000000055,24.319243520706159245
0.219000000000000056,23.727941172827620164
0.220000000000000057,23.146303747637411163
0.221000000000000058,22.574343846732386254
0.222000000000000058,22.012083920242904611
0.223000000000000059,21.459553424951931078
0.224000000000000060,20.916786052506004978
0.225000000000000061,20.383817070437057595
0.226000000000000062,19.860680811872260421
0.227000000000000063,19.347408343176795142
0.228000000000000064,18.844025332456478594
0.229000000000000065,18.350550135923391792
0.230000000000000066,17.866992113657477859
0.231000000000000066,17.393350181317916991
0.232000000000000067,16.929611599893810592
0.233000000000000068,16.475751001641505411
0.234000000000000069,16.031729646933072786
0.235000000000000070,15.597494903823735157
0.236000000000000071,15.172979939715640185
0.237000000000000072,14.758103612523024495
0.238000000000000073,14.352770547201640028
0.239000000000000073,13.956871382357997291
0.240000000000000074,13.570283170865375055
0.241000000000000075,13.192869917950224234
0.242000000000000076,12.824483240035585041
0.243000000000000077,12.464963127703233781
0.244000000000000078,12.114138796429170242
0.245000000000000079,11.771829609224152335
0.246000000000000080,11.437846055942781476
0.247000000000000081,11.111990774780378999
0.248000000000000081,10.794059602332152892
0.249000000000000082,10.483842639518602624
0.250000000000000111,10.181125321662753080
0.251000000000000112,9.885689482020207919
0.252000000000000113,9.597314399093241022
0.253000000000000114,9.315777819092849299
0.254000000000000115,9.040856945931343702
0.255000000000000115,8.772329392125111980
0.256000000000000116,8.509974084950933104
0.257000000000000117,8.253572123123369408
0.258000000000000118,8.002907580139392962
0.259000000000000119,7.757768251263717829
0.260000000000000120,7.517946341902441709
0.261000000000000121,7.283239095830301935
0.262000000000000122,7.053449362396949418
0.263000000000000123,6.828386102440381578
0.264000000000000123,6.607864833180089548
0.265000000000000124,6.391708012850917164
0.266000000000000125,6.179745366271403029
0.267000000000000126,5.971814152920072338
0.268000000000000127,5.767759379421394605
0.269000000000000128,5.567433958623235313
0.270000000000000129,5.370698817681502923
0.271000000000000130,5.177422957758409439
0.272000000000000131,4.987483468091810757
0.273000000000000131,4.800765497306598739
0.274000000000000132,4.617162184918827350
0.275000000000000133,4.436574556031573024
0.276000000000000134,4.258911382241775456
0.277000000000000135,4.084089011772419120
0.278000000000000136,3.912031171816284569
0.279000000000000137,3.742668746029971683
0.280000000000000138,3.575939530051758908
0.281000000000000139,3.411787967836219959
0.282000000000000139,3.250164871505536013
0.283000000000000140,3.091027127313213274
0.284000000000000141,2.934337390203078932
0.285000000000000142,2.780063769326337475
0.286000000000000143,2.628179506754008354
0.287000000000000144,2.478662651492792079
0.288000000000000145,2.331495730780122511
0.289000000000000146,2.186665420501319623
0.290000000000000147,2.044162216437679369
0.291000000000000147,1.903980107922014442
0.292000000000000148,1.766116255346489750
0.293000000000000149,1.630570672839233071
0.294000000000000150,1.497345917300041407
0.295000000000000151,1.366446784863466934
0.296000000000000152,1.237880015739363682
0.297000000000000153,1.111654008267329630
0.298000000000000154,0.987778542912460145
0.299000000000000155,0.866264516825975273
0.300000000000000155,0.747123689495564625
0.301000000000000156,0.630368439916954237
0.302000000000000157,0.516011535630060525
0.303000000000000158,0.404065913880824634
0.304000000000000159,0.294544475092426816
0.305000000000000160,0.187459888758142512
0.306000000000000161,0.082824411801470932
0.307000000000000162,-0.019350280611931094
0.308000000000000163,-0.119053251882059993
0.309000000000000163,-0.216274448524923335
0.310000000000000164,-0.311004832634631023
0.311000000000000165,-0.403236502468161728
0.312000000000000166,-0.492962801401248540
0.313000000000000167,-0.580178415536890202
0.314000000000000168,-0.664879460277243428
0.315000000000000169,-0.747063556194932477
0.316000000000000170,-0.826729894561685219
0.317000000000000171,-0.903879292910404919
0.318000000000000171,-0.978514241022015563
0.319000000000000172,-1.050638937740698609
0.320000000000000173,-1.120259319030377787
0.321000000000000174,-1.187383077692174771
0.322000000000000175,-1.252019675167089563
0.323000000000000176,-1.314180345850199050
0.324000000000000177,-1.373878094343034206
0.325000000000000178,-1.431127686068939919
0.326000000000000179,-1.485945631673182943
0.327000000000000179,-1.538350165624377208
0.328000000000000180,-1.588361219427795401
0.329000000000000181,-1.636000389853712322
0.330000000000000182,-1.681290902575146573
0.331000000000000183,-1.724257571600244621
0.332000000000000184,-1.764926754873930692
0.333000000000000185,-1.803326306412589064
0.334000000000000186,-1.839485525323886650
0.335000000000000187,-1.873435102051663081
0.336000000000000187,-1.905207062173417842
0.337000000000000188,-1.934834708064774755
0.338000000000000189,-1.962352558732566976
0.339000000000000190,-1.987796288104677345
0.340000000000000191,-2.011202662051369661
0.341000000000000192,-2.032609474399708294
0.342000000000000193,-2.052055482188968050
0.343000000000000194,-2.069580340401960150
0.344000000000000195,-2.085224536393624373
0.345000000000000195,-2.099029324225756277
0.346000000000000196,-2.111036659103381563
0.347000000000000197,-2.121289132096113583
0.348000000000000198,-2.129829905315374194
0.349000000000000199,-2.136702647706300251
0.350000000000000200,-2.141951471601617474
0.351000000000000201,-2.145620870173224226
0.352000000000000202,-2.147755655906316896
0.353000000000000203,-2.148400900210231335
0.354000000000000203,-2.147601874269883915
0.355000000000000204,-2.145403991231722429
0.356000000000000205,-2.141852749808709433
0.357000000000000206,-2.136993679379734168
0.358000000000000207,-2.130872286649915459
0.359000000000000208,-2.123534003930208414
0.360000000000000209,-2.115024139086632005
0.361000000000000210,-2.105387827201816275
0.362000000000000210,-2.094669983984563277
0.363000000000000211,-2.082915260956176517
0.364000000000000212,-2.070168002435999632
0.365000000000000213,-2.056472204342463250
0.366000000000000214,-2.041871474820319499
0.367000000000000215,-2.026408996699328391
0.368000000000000216,-2.010127491784774900
0.369000000000000217,-1.993069186975349627
0.370000000000000218,-1.975275782199773289
0.371000000000000218,-1.956788420159315312
0.372000000000000219,-1.937647657859801198
0.373000000000000220,-1.917893439913122666
0.374000000000000221,-1.897565073585199880
0.375000000000000222,-1.876701205564303976
0.376000000000000223,-1.855339800421242469
0.377000000000000224,-1.833518120730274648
0.378000000000000225,-1.811272708817627031
0.379000000000000226,-1.788639370102468318
0.380000000000000226,-1.765653157993605449
0.381000000000000227,-1.742348360303423105
0.382000000000000228,-1.718758487139573798
0.383000000000000229,-1.694916260233557237
0.384000000000000230,-1.670853603664417708
0.385000000000000231,-1.646601635935158736
0.386000000000000232,-1.622190663358563212
0.387000000000000233,-1.597650174708875603
0.388000000000000234,-1.573008837095223544
0.389000000000000234,-1.548294493012653872
0.390000000000000235,-1.523534158526323790
0.391000000000000236,-1.498754022544584341
0.392000000000000237,-1.473979447136650744
0.393000000000000238,-1.449234968850900307
0.394000000000000239,-1.424544300989976087
0.395000000000000240,-1.399930336799401820
0.396000000000000241,-1.375415153526775125
0.397000000000000242,-1.351020017309112253
0.398000000000000242,-1.326765388846618654
0.399000000000000243,-1.302670929821656554
0.400000000000000244,-1.278755510022426378
0.401000000000000245,-1.255037215131750816
0.402000000000000246,-1.231533355141863684
0.403000000000000247,-1.208260473357177789
0.404000000000000248,-1.185234355947739404
0.405000000000000249,-1.162470042016966021
0.406000000000000250,-1.139981834148173778
0.407000000000000250,-1.117783309395368407
0.408000000000000251,-1.095887330684626404
0.409000000000000252,-1.074306058593468949
0.410000000000000253,-1.053050963476472646
0.411000000000000254,-1.032132837906442280
0.412000000000000255,-1.011561809401362533
0.413000000000000256,-0.991347353408433940
0.414000000000000257,-0.971498306517314725
0.415000000000000258,-0.952022879875897177
0.416000000000000258,-0.932928672782667889
0.417000000000000259,-0.914222686430914755
0.418000000000000260,-0.895911337780801675
0.419000000000000261,-0.878000473536424075
0.420000000000000262,-0.860495384205825831
0.421000000000000263,-0.843400818222936666
0.422000000000000264,-0.826720996111237838
0.423000000000000265,-0.810459624669914502
0.424000000000000266,-0.794619911164204495
0.425000000000000266,-0.779204577502319085
0.426000000000000267,-0.764215874382413007
0.427000000000000268,-0.749655595393736163
0.428000000000000269,-0.735525091056977720
0.429000000000000270,-0.721825282789664846
0.430000000000000271,-0.708556676783120953
0.431000000000000272,-0.695719377778408754
0.432000000000000273,-0.683313102729294686
0.433000000000000274,-0.671337194341063315
0.434000000000000274,-0.659790634474678672
0.435000000000000275,-0.648672057406471048
0.436000000000000276,-0.637979762934215655
0.437000000000000277,-0.627711729321035028
0.438000000000000278,-0.617865626069264762
0.439000000000000279,-0.608438826516974895
0.440000000000000280,-0.599428420250381344
0.441000000000000281,-0.590831225325989751
0.442000000000000282,-0.582643800296892111
0.443000000000000282,-0.574862456037977254
0.444000000000000283,-0.567483267365570532
0.445000000000000284,-0.560502084447268123
0.446000000000000285,-0.553914543998283215
0.447000000000000286,-0.547716080261162808
0.448000000000000287,-0.541901935765908060
0.449000000000000288,-0.536467171868230230
0.450000000000000289,-0.531406679063807452
0.451000000000000290,-0.526715187076946978
0.452000000000000290,-0.522387274722352579
0.453000000000000291,-0.518417379538986034
0.454000000000000292,-0.514799807195448711
0.455000000000000293,-0.511528740666480020
0.456000000000000294,-0.508598249180575612
0.457000000000000295,-0.506002296938932838
0.458000000000000296,-0.503734751606208953
0.459000000000000297,-0.501789392573841475
0.460000000000000298,-0.500159918996895270
0.461000000000000298,-0.498839957605620832
0.462000000000000299,-0.497823070293142877
0.463000000000000300,-0.497102761480825883
0.464000000000000301,-0.496672485263154329
0.465000000000000302,-0.496525652334019241
0.466000000000000303,-0.496655636696544556
0.467000000000000304,-0.497055782158699888
0.468000000000000305,-0.497719408617105619
0.469000000000000306,-0.498639818131520585
0.470000000000000306,-0.499810300792712769
0.471000000000000307,-0.501224140386378081
0.472000000000000308,-0.502874619856051863
0.473000000000000309,-0.504755026567882847
0.474000000000000310,-0.506858657380327537
0.475000000000000311,-0.509178823521867940
0.476000000000000312,-0.511708855279914610
0.477000000000000313,-0.514442106504128582
0.478000000000000314,-0.517371958927430375
0.479000000000000314,-0.520491826308066452
0.480000000000000315,-0.523795158396047844
0.481000000000000316,-0.527275444727428044
0.482000000000000317,-0.530926218249789250
0.483000000000000318,-0.534741058782461698
0.484000000000000319,-0.538713596314883025
0.485000000000000320,-0.542837514146648936
0.486000000000000321,-0.547106551872698965
0.487000000000000322,-0.551514508217177069
0.488000000000000322,-0.556055243719420611
0.489000000000000323,-0.560722683275627354
0.490000000000000324,-0.565510818539633697
0.491000000000000325,-0.570413710186315148
0.492000000000000326,-0.575425490041028942
0.493000000000000327,-0.580540363078580923
0.494000000000000328,-0.585752609295098425
0.495000000000000329,-0.591056585456216310
0.496000000000000330,-0.596446726724930265
0.497000000000000330,-0.601917548172491546
0.498000000000000331,-0.607463646175567473
0.499000000000000332,-0.613079699703023562
0.500000000000000333,-0.618760471495523157
0.501000000000000334,-0.624500809141103730
0.502000000000000335,-0.630295646049968128
0.503000000000000336,-0.636140002331522125
0.504000000000000337,-0.642028985576797551
0.505000000000000338,-0.647957791549234940
0.506000000000000338,-0.653921704786854852
0.507000000000000339,-0.659916099118734278
0.508000000000000340,-0.665936438098662209
0.509000000000000341,-0.671978275358872779
0.510000000000000342,-0.678037254886578289
0.511000000000000343,-0.684109111226120059
0.512000000000000344,-0.690189669609372780
0.513000000000000345,-0.696274846017081339
0.514000000000000346,-0.702360647173746577
0.515000000000000346,-0.708443170478538886
0.516000000000000347,-0.714518603874797265
0.517000000000000348,-0.720583225660544890
0.518000000000000349,-0.726633404242374770
0.519000000000000350,-0.732665597835101323
0.520000000000000351,-0.738676354109420341
0.521000000000000352,-0.744662309789863364
0.522000000000000353,-0.750620190205180116
0.523000000000000353,-0.756546808793331804
0.524000000000000354,-0.762439066563162626
0.525000000000000355,-0.768293951514793738
0.526000000000000356,-0.774108538020699677
0.527000000000000357,-0.779879986169458195
0.528000000000000358,-0.785605541074004599
0.529000000000000359,-0.791282532146274531
0.530000000000000360,-0.796908372339986792
0.531000000000000361,-0.802480557363353553
0.532000000000000361,-0.807996664863379621
0.533000000000000362,-0.813454353583418999
0.534000000000000363,-0.818851362495578661
0.535000000000000364,-0.824185509909558411
0.536000000000000365,-0.829454692559389861
0.537000000000000366,-0.834656884669608745
0.538000000000000367,-0.839790137002210613
0.539000000000000368,-0.844852575885860602
0.540000000000000369,-0.849842402228612848
0.541000000000000369,-0.854757890515512542
0.542000000000000370,-0.859597387792271794
0.543000000000000371,-0.864359312636299393
0.544000000000000372,-0.869042154116221099
0.545000000000000373,-0.873644470741052226
0.546000000000000374,-0.878164889400114390
0.547000000000000375,-0.882602104294761602
0.548000000000000376,-0.886954875862958403
0.549000000000000377,-0.891222029697679496
0.550000000000000377,-0.895402455460114433
0.551000000000000378,-0.899495105788568394
0.552000000000000379,-0.903498995203983357
0.553000000000000380,-0.907413199012913507
0.554000000000000381,-0.911236852208769932
0.555000000000000382,-0.914969148372173691
0.556000000000000383,-0.918609338571106049
0.557000000000000384,-0.922156730261668778
0.558000000000000385,-0.925610686190080578
0.559000000000000385,-0.928970623296640041
0.560000000000000386,-0.932236011622270766
0.561000000000000387,-0.935406373218276022
0.562000000000000388,-0.938481281059881489
0.563000000000000389,-0.941460357964165828
0.564000000000000390,-0.944343275512866343
0.565000000000000391,-0.947129752980626849
0.566000000000000392,-0.949819556269135612
0.567000000000000393,-0.952412496847662382
0.568000000000000393,-0.954908430700393440
0.569000000000000394,-0.957307257281028945
0.570000000000000395,-0.959608918475021277
0.571000000000000396,-0.961813397569830308
0.572000000000000397,-0.963920718233581164
0.573000000000000398,-0.965930943502433026
0.574000000000000399,-0.967844174777000910
0.575000000000000400,-0.969660550828125523
0.576000000000000401,-0.971380246812263315
0.577000000000000401,-0.973003473296801813
0.578000000000000402,-0.974530475295500742
0.579000000000000403,-0.975961531314311848
0.580000000000000404,-0.977296952407822994
0.581000000000000405,-0.978537081246470875
0.582000000000000406,-0.979682291194765797
0.583000000000000407,-0.980732985400655677
0.584000000000000408,-0.981689595896222178
0.585000000000000409,-0.982552582709827371
0.586000000000000409,-0.983322432989854001
0.587000000000000410,-0.983999660140175925
0.588000000000000411,-0.984584802967411798
0.589000000000000412,-0.985078424840132860
0.590000000000000413,-0.985481112860038144
0.591000000000000414,-0.985793477045208810
0.592000000000000415,-0.986016149525507535
0.593000000000000416,-0.986149783750137843
0.594000000000000417,-0.986195053707444425
0.595000000000000417,-0.986152653156987191
0.596000000000000418,-0.986023294873858425
0.597000000000000419,-0.985807709905347496
0.598000000000000420,-0.985506646839864997
0.599000000000000421,-0.985120871088208339
0.600000000000000422,-0.984651164177101856
0.601000000000000423,-0.984098323055013657
0.602000000000000424,-0.983463159410244869
0.603000000000000425,-0.982746499001240670
0.604000000000000425,-0.981949180999071247
0.605000000000000426,-0.981072057342082360
0.606000000000000427,-0.980115992102654765
0.607000000000000428,-0.979081860865951725
0.608000000000000429,-0.977970550120740634
0.609000000000000430,-0.976782956662042623
0.610000000000000431,-0.975519987005708189
0.611000000000000432,-0.974182556814731759
0.612000000000000433,-0.972771590337263348
0.613000000000000433,-0.971288019856268448
0.614000000000000434,-0.969732785150694276
