# Gypsum-010_CS-280-AC
# h[nm],U(h)[kJ/mol]
0.149999999999999994,119.788470529962367550
0.150999999999999995,117.967804511181796556
0.151999999999999996,115.994843004381010587
0.152999999999999997,114.020906241023979533
0.153999999999999998,112.103324719280337263
0.154999999999999999,110.252240450499272129
0.156000000000000000,108.457711805219645385
0.157000000000000001,106.704372577831506419
0.158000000000000002,104.978501808258897654
0.159000000000000002,103.270688942191966930
0.160000000000000003,101.576127621844264581
0.161000000000000004,99.893791651532453102
0.162000000000000005,98.225229025341690203
0.163000000000000006,96.573374724298901128
0.164000000000000007,94.941572935754336982
0.165000000000000008,93.332873540126001899
0.166000000000000009,91.749597360474652419
0.167000000000000010,90.193129780348243685
0.168000000000000010,88.663889237713888747
0.169000000000000011,87.161416640475820827
0.170000000000000012,85.684537938684670166
0.171000000000000013,84.231561148286644425
0.172000000000000014,82.800478770683341168
0.173000000000000015,81.389155513354026539
0.174000000000000016,79.995488862438747901
0.175000000000000017,78.617536169343836150
0.176000000000000018,77.253606512785793825
0.177000000000000018,75.902318839197306488
0.178000000000000019,74.562629981743938856
0.179000000000000020,73.233837340153826290
0.180000000000000021,71.915561488040168570
0.181000000000000022,70.607713954535299195
0.182000000000000023,69.310455065398173247
0.183000000000000024,68.024146156313292977
0.184000000000000025,66.749299789296316021
0.185000000000000026,65.486530887242949461
0.186000000000000026,64.236511004900052058
0.187000000000000027,62.999927312107104171
0.188000000000000028,61.777447298097925454
0.189000000000000029,60.569689724251247753
0.190000000000000030,59.377201959340183635
0.191000000000000031,58.200443522955559672
0.192000000000000032,57.039775432676698586
0.193000000000000033,55.895454789913891602
0.194000000000000034,54.767633938322362042
0.195000000000000034,53.656363477258025796
0.196000000000000035,52.561598401235912092
0.197000000000000036,51.483206655824368170
0.198000000000000037,50.420979442857962738
0.199000000000000038,49.374642666334203511
0.200000000000000039,48.343868978997164731
0.201000000000000040,47.328289963564500908
0.202000000000000041,46.327508057955796517
0.203000000000000042,45.341107907729266913
0.204000000000000042,44.368666898999059356
0.205000000000000043,43.409764689816235261
0.206000000000000044,42.463991616328797818
0.207000000000000045,41.530955901425954835
0.208000000000000046,40.610289637810886632
0.209000000000000047,39.701653554611951336
0.210000000000000048,38.804740607020164589
0.211000000000000049,37.919278452471942842
0.212000000000000050,37.045030895115971248
0.213000000000000050,36.181798393316917384
0.214000000000000051,35.329417733379827382
0.215000000000000052,34.487760977159531706
0.216000000000000053,33.656733792359688096
0.217000000000000054,32.836273272706890225
0.218000000000000055,32.026345351343579182
0.219000000000000056,31.226941905211752726
0.220000000000000057,30.438077641331055645
0.221000000000000058,29.659786848105238022
0.222000000000000058,28.892120086442599103
0.223000000000000059,28.135140886846112807
0.224000000000000060,27.388922509946048933
0.225000000000000061,26.653544819412218203
0.226000000000000062,25.929091307948397116
0.227000000000000063,25.215646309257657265
0.228000000000000064,24.513292421566728052
0.229000000000000065,23.822108161567310702
0.230000000000000066,23.142165861517828063
0.231000000000000066,22.473529816764457934
0.232000000000000067,21.816254686093003556
0.233000000000000068,21.170384143100502428
0.234000000000000069,20.535949773158499454
0.235000000000000070,19.912970207499821385
0.236000000000000071,19.301450483462438967
0.237000000000000072,18.701381617928682033
0.238000000000000073,18.112740379464540297
0.239000000000000073,17.535489243549605476
0.240000000000000074,16.969576514546854895
0.241000000000000075,16.414936597655582773
0.242000000000000076,15.871490403973231409
0.243000000000000077,15.339145871926572084
0.244000000000000078,14.817798588680176408
0.245000000000000079,14.307332495656130078
0.246000000000000080,13.807620662970620629
0.247000000000000081,13.318526118379917733
0.248000000000000081,12.839902717204887850
0.249000000000000082,12.371596040644117664
0.250000000000000111,11.913444310869518716
0.251000000000000112,11.465279312306858372
0.252000000000000113,11.026927309518725906
0.253000000000000114,10.598209953118372439
0.254000000000000115,10.178945166132463029
0.255000000000000115,9.768948004194673018
0.256000000000000116,9.368031483877540921
0.257000000000000117,8.976007374353265789
0.258000000000000118,8.592686948409514969
0.259000000000000119,8.217881689629482622
0.260000000000000120,7.851403953274254555
0.261000000000000121,7.493067579079631280
0.262000000000000122,7.142688454795811381
0.263000000000000123,6.800085029860140295
0.264000000000000123,6.465078779098016426
0.265000000000000124,6.137494616799293645
0.266000000000000125,5.817161261916716342
0.267000000000000126,5.503911555482781992
0.268000000000000127,5.197582731642947707
0.269000000000000128,4.898016643960697358
0.270000000000000129,4.605059948864601793
0.271000000000000130,4.318564248283065510
0.272000000000000131,4.038386193652028666
0.273000000000000131,3.764387553586432400
0.274000000000000132,3.496435247581812344
0.275000000000000133,3.234401348159766432
0.276000000000000134,2.978163053893547296
0.277000000000000135,2.727602635750772553
0.278000000000000136,2.482607359170111216
0.279000000000000137,2.243069384252214693
0.280000000000000138,2.008885646393338664
0.281000000000000139,1.779957719624628565
0.282000000000000139,1.556191664844575717
0.283000000000000140,1.337497865046708423
0.284000000000000141,1.123790849552296800
0.285000000000000142,0.914989109159346392
0.286000000000000143,0.711014904016349925
0.287000000000000144,0.511794065923567021
0.288000000000000145,0.317255796656186806
0.289000000000000146,0.127332463795656631
0.290000000000000147,-0.058040604554107936
0.291000000000000147,-0.238925324896227670
0.292000000000000148,-0.415381062153678815
0.293000000000000149,-0.587464831106694674
0.294000000000000150,-0.755231494498012190
0.295000000000000151,-0.918733956947365704
0.296000000000000152,-1.078023353911551352
0.297000000000000153,-1.233149235017351630
0.298000000000000154,-1.384159741181662184
0.299000000000000155,-1.531101775015728972
0.300000000000000155,-1.674021164088839608
0.301000000000000156,-1.812962816700437019
0.302000000000000157,-1.947970869879321665
0.303000000000000158,-2.079088829393000104
0.304000000000000159,-2.206359701610995039
0.305000000000000160,-2.329826117121444273
0.306000000000000161,-2.449530446052263777
0.307000000000000162,-2.565514905095270137
0.308000000000000163,-2.677821656274876894
0.309000000000000163,-2.786492897542300007
0.310000000000000164,-2.891570945311609631
0.311000000000000165,-2.993098309085528541
0.312000000000000166,-3.091117758347341038
0.313000000000000167,-3.185672381919931517
0.314000000000000168,-3.276805640014737175
0.315000000000000169,-3.364561409212101672
0.316000000000000170,-3.448984020630484260
0.317000000000000171,-3.530118291555046195
0.318000000000000171,-3.608009550807004473
0.319000000000000172,-3.682703658143687164
0.320000000000000173,-3.754247017985414381
0.321000000000000174,-3.822686587769749345
0.322000000000000175,-3.888069881236296599
0.323000000000000176,-3.950444966945953151
0.324000000000000177,-4.009860462338106224
0.325000000000000178,-4.066365523626976675
0.326000000000000179,-4.120009831835438341
0.327000000000000179,-4.170843575259949532
0.328000000000000180,-4.218917428655023727
0.329000000000000181,-4.264282529419604728
0.330000000000000182,-4.306990451060293879
0.331000000000000183,-4.347093174199269328
0.332000000000000184,-4.384643055385981647
0.333000000000000185,-4.419692793963372779
0.334000000000000186,-4.452295397230027874
0.335000000000000187,-4.482504144130327717
0.336000000000000187,-4.510372547695050471
0.337000000000000188,-4.535954316444673395
0.338000000000000189,-4.559303314958121689
0.339000000000000190,-4.580473523799254210
0.340000000000000191,-4.599518998983326057
0.341000000000000192,-4.616493831155877636
0.342000000000000193,-4.631452104646133883
0.343000000000000194,-4.644447856547499143
0.344000000000000195,-4.655535035967482749
0.345000000000000195,-4.664767463580489881
0.346000000000000196,-4.672198791606799517
0.347000000000000197,-4.677882464332473234
0.348000000000000198,-4.681871679275645626
0.349000000000000199,-4.684219349096141016
0.350000000000000200,-4.684978064336958070
0.351000000000000201,-4.684200057077918977
0.352000000000000202,-4.681937165574072246
0.353000000000000203,-4.678240799943863770
0.354000000000000203,-4.673161908964866385
0.355000000000000204,-4.666750948027828194
0.356000000000000205,-4.659057848293352677
0.357000000000000206,-4.650131987089185515
0.358000000000000207,-4.640022159579844541
0.359000000000000208,-4.628776551735017009
0.360000000000000209,-4.616442714617475573
0.361000000000000210,-4.603067540006247071
0.362000000000000210,-4.588697237366063497
0.363000000000000211,-4.573377312169442099
0.364000000000000212,-4.557152545573742941
0.365000000000000213,-4.540066975451365394
0.366000000000000214,-4.522163878767772260
0.367000000000000215,-4.503485755298438420
0.368000000000000216,-4.484074312672855278
0.369000000000000217,-4.463970452730551486
0.370000000000000218,-4.443214259171673675
0.371000000000000218,-4.421844986481949569
0.372000000000000219,-4.399901050109855660
0.373000000000000220,-4.377420017871612501
0.374000000000000221,-4.354438602557917370
0.375000000000000222,-4.330992655714504203
0.376000000000000223,-4.307117162567489110
0.377000000000000224,-4.282846238062811395
0.378000000000000225,-4.258213123988233484
0.379000000000000226,-4.233250187145224608
0.380000000000000226,-4.207988918537470369
0.381000000000000227,-4.182459933541734287
0.382000000000000228,-4.156692973026654414
0.383000000000000229,-4.130716905384341331
0.384000000000000230,-4.104559729439441362
0.385000000000000231,-4.078248578200285301
0.386000000000000232,-4.051809723416377018
0.387000000000000233,-4.025268580906760540
0.388000000000000234,-3.998649716623687844
0.389000000000000234,-3.971976853416394615
0.390000000000000235,-3.945272878459820109
0.391000000000000236,-3.918559851313676567
0.392000000000000237,-3.891859012577416621
0.393000000000000238,-3.865190793107363021
0.394000000000000239,-3.838574823762485266
0.395000000000000240,-3.812029945646119078
0.396000000000000241,-3.785574220811355417
0.397000000000000242,-3.759224943398474572
0.398000000000000242,-3.732998651173610849
0.399000000000000243,-3.706911137438315684
0.400000000000000244,-3.680977463280567186
0.401000000000000245,-3.655211970138565025
0.402000000000000246,-3.629628292649191845
0.403000000000000247,-3.604239371754089039
0.404000000000000248,-3.579057468036897838
0.405000000000000249,-3.554094175266142575
0.406000000000000250,-3.529360434118938628
0.407000000000000250,-3.504866546061688126
0.408000000000000251,-3.480622187364596165
0.409000000000000252,-3.456636423227780419
0.410000000000000253,-3.432917721997517990
0.411000000000000254,-3.409473969452050390
0.412000000000000255,-3.386312483137076779
0.413000000000000256,-3.363440026732094079
0.414000000000000257,-3.340862824429238653
0.415000000000000258,-3.318586575307442388
0.416000000000000258,-3.296616467685161034
0.417000000000000259,-3.274957193435986458
0.418000000000000260,-3.253612962252014462
0.419000000000000261,-3.232587515840740000
0.420000000000000262,-3.211884142041866674
0.421000000000000263,-3.191505688851274947
0.422000000000000264,-3.171454578339921948
0.423000000000000265,-3.151732820456303763
0.424000000000000266,-3.132342026701751436
0.425000000000000266,-3.113283423668343097
0.426000000000000267,-3.094557866430081905
0.427000000000000268,-3.076165851778447369
0.428000000000000269,-3.058107531294069759
0.429000000000000270,-3.040382724246952328
0.430000000000000271,-3.022990930318063540
0.431000000000000272,-3.005931342135868434
0.432000000000000273,-2.989202857621750642
0.433000000000000274,-2.972804092138873422
0.434000000000000274,-2.956733390439501452
0.435000000000000275,-2.940988838406284778
0.436000000000000276,-2.925568274583491224
0.437000000000000277,-2.910469301494560845
0.438000000000000278,-2.895689296742870233
0.439000000000000279,-2.881225423892947557
0.440000000000000280,-2.867074643129778444
0.441000000000000281,-2.853233721694209635
0.442000000000000282,-2.839699244092937391
0.443000000000000282,-2.826467622081656916
0.444000000000000283,-2.813535104420613830
0.445000000000000284,-2.800897786401821854
0.446000000000000285,-2.788551619147630056
0.447000000000000286,-2.776492418680734708
0.448000000000000287,-2.764715874765692138
0.449000000000000288,-2.753217559522593394
0.450000000000000289,-2.741992935813539756
0.451000000000000290,-2.731037365402927186
0.452000000000000290,-2.720346116892754296
0.453000000000000291,-2.709914373434296309
0.454000000000000292,-2.699737240217783274
0.455000000000000293,-2.689809751741823796
0.456000000000000294,-2.680126878864522499
0.457000000000000295,-2.670683535638412653
0.458000000000000296,-2.661474585931405734
0.459000000000000297,-2.652494849836192881
0.460000000000000298,-2.643739109870584691
0.461000000000000298,-2.635202116971423703
0.462000000000000299,-2.626878596284845102
0.463000000000000300,-2.618763252755654580
0.464000000000000301,-2.610850776518850225
0.465000000000000302,-2.603135848096242988
0.466000000000000303,-2.595613143401282574
0.467000000000000304,-2.588277338555265317
0.468000000000000305,-2.581123114518139694
0.469000000000000306,-2.574145161537158888
0.470000000000000306,-2.567338183416778996
0.471000000000000307,-2.560696901613058518
0.472000000000000308,-2.554216059156051877
0.473000000000000309,-2.547890424403586263
0.474000000000000310,-2.541714794629855501
0.475000000000000311,-2.535683999452335691
0.476000000000000312,-2.529792904100483408
0.477000000000000313,-2.524036412529719886
0.478000000000000314,-2.518409470384151305
0.479000000000000314,-2.512907067811606332
0.480000000000000315,-2.507524242134367753
0.481000000000000316,-2.502256080379187786
0.482000000000000317,-2.497097721669958581
0.483000000000000318,-2.492044359486563554
0.484000000000000319,-2.487091243793291717
0.485000000000000320,-2.482233683040262928
0.486000000000000321,-2.477467046041231136
0.487000000000000322,-2.472786763731134485
0.488000000000000322,-2.468188330806688313
0.489000000000000323,-2.463667307253392558
0.490000000000000324,-2.459219319762149247
0.491000000000000325,-2.454840063038741249
0.492000000000000326,-2.450525301009359058
0.493000000000000327,-2.446270867925341541
0.494000000000000328,-2.442072669370215721
0.495000000000000329,-2.437926683172125131
0.496000000000000330,-2.433828960224627025
0.497000000000000330,-2.429775625218922208
0.498000000000000331,-2.425762877290312147
0.499000000000000332,-2.421786990581917820
0.500000000000000333,-2.417844314728400779
0.501000000000000334,-2.413931275262475307
0.502000000000000335,-2.410044373947005436
0.503000000000000336,-2.406180189035324268
0.504000000000000337,-2.402335375462443245
0.505000000000000338,-2.398506664969712876
0.506000000000000338,-2.394690866165498200
0.507000000000000339,-2.390884864524341680
0.508000000000000340,-2.387085622327024037
0.509000000000000341,-2.383290178543976623
0.510000000000000342,-2.379495648664275098
0.511000000000000343,-2.375699224472588522
0.512000000000000344,-2.371898173776251006
0.513000000000000345,-2.368089840084642184
0.514000000000000346,-2.364271642243065408
0.515000000000000346,-2.360441074023085228
0.516000000000000347,-2.356595703671444220
0.517000000000000348,-2.352733173419518486
0.518000000000000349,-2.348851198955185460
0.519000000000000350,-2.344947568859047760
0.520000000000000351,-2.341020144006786374
0.521000000000000352,-2.337066856939480353
0.522000000000000353,-2.333085711203551238
0.523000000000000353,-2.329074780662073962
0.524000000000000354,-2.325032208779095555
0.525000000000000355,-2.320956207878491107
0.526000000000000356,-2.316845058378970368
0.527000000000000357,-2.312697108006708469
0.528000000000000358,-2.308510770987044047
0.529000000000000359,-2.304284527216699185
0.530000000000000360,-2.300016921417829430
0.531000000000000361,-2.295706562275298346
0.532000000000000361,-2.291352121558415611
0.533000000000000362,-2.286952333228418510
0.534000000000000363,-2.282505992532855021
0.535000000000000364,-2.278011955088101281
0.536000000000000365,-2.273469135951074804
0.537000000000000366,-2.268876508681287874
0.538000000000000367,-2.264233104394227869
0.539000000000000368,-2.259538010807180974
0.540000000000000369,-2.254790371278351468
0.541000000000000369,-2.249989383840350410
0.542000000000000370,-2.245134300228848634
0.543000000000000371,-2.240224424907355960
0.544000000000000372,-2.235259114088933963
0.545000000000000373,-2.230237774755654989
0.546000000000000374,-2.225159863676589911
0.547000000000000375,-2.220024886425071564
0.548000000000000376,-2.214832396395983061
0.549000000000000377,-2.209581993823703350
0.550000000000000377,-2.204273324801433898
0.551000000000000378,-2.198906080302482913
0.552000000000000379,-2.193479995204177246
0.553000000000000380,-2.187994847314918001
0.554000000000000381,-2.182450456404965600
0.555000000000000382,-2.176846683241522307
0.556000000000000383,-2.171183428628506995
0.557000000000000384,-2.165460632451648326
0.558000000000000385,-2.159678272729212090
0.559000000000000385,-2.153836364668913816
0.560000000000000386,-2.147934959731350624
0.561000000000000387,-2.141974144700396376
0.562000000000000388,-2.135954040760874140
0.563000000000000389,-2.129874802583942017
0.564000000000000390,-2.123736617420425521
0.565000000000000391,-2.117539704202487272
0.566000000000000392,-2.111284312653879613
0.567000000000000393,-2.104970722409102102
0.568000000000000393,-2.098599242141656607
0.569000000000000394,-2.092170208701710443
0.570000000000000395,-2.085683986263363821
0.571000000000000396,-2.079140965481704573
0.572000000000000397,-2.072541562659921066
0.573000000000000398,-2.065886218926556328
0.574000000000000399,-2.059175399423160080
0.575000000000000400,-2.052409592502423941
0.576000000000000401,-2.045589308936965445
0.577000000000000401,-2.038715081138921192
0.578000000000000402,-2.031787462390393095
0.579000000000000403,-2.024807026084883610
0.580000000000000404,-2.017774364979862511
0.581000000000000405,-2.010690090460433233
0.582000000000000406,-2.003554831814280401
0.583000000000000407,-1.996369235517867935
0.584000000000000408,-1.989133964534010257
0.585000000000000409,-1.981849697620798878
0.586000000000000409,-1.974517128651931852
0.587000000000000410,-1.967136965948507399
0.588000000000000411,-1.959709931622205970
0.589000000000000412,-1.952236760929980663
0.590000000000000413,-1.944718201640133870
0.591000000000000414,-1.937155013409859405
0.592000000000000415,-1.929547967174209733
0.593000000000000416,-1.921897844546420320
0.594000000000000417,-1.914205437229611562
0.595000000000000417,-1.906471546439850062
0.596000000000000418,-1.898696982340411621
0.597000000000000419,-1.890882563487366497
0.598000000000000420,-1.883029116286268678
0.599000000000000421,-1.875137474460015552
0.600000000000000422,-1.867208478527738080
0.601000000000000423,-1.859242975294676636
0.602000000000000424,-1.851241817352984764
0.603000000000000425,-1.843205862593370936
0.604000000000000425,-1.835135973727469505
0.605000000000000426,-1.827033017820908212
0.606000000000000427,-1.818897865836975880
0.607000000000000428,-1.810731392190702227
0.608000000000000429,-1.802534474313459256
0.609000000000000430,-1.794307992227722082
0.610000000000000431,-1.786052828132148829
0.611000000000000432,-1.777769865996686294
0.612000000000000433,-1.769459991167673163
0.613000000000000433,-1.761124089982854857
