# Gypsum-010_CS-582-AC
# h[nm],U(h)[kJ/mol]
0.149999999999999994,151.228291462806623713
0.150999999999999995,149.258105851344083703
0.151999999999999996,146.726395895265710578
0.152999999999999997,144.091178318055881391
0.153999999999999998,141.533477003851032805
0.154999999999999999,139.096826838903837142
0.156000000000000000,136.765829289406042335
0.157000000000000001,134.507572715140042874
0.158000000000000002,132.291209905951006931
0.159000000000000002,130.095309600084931390
0.160000000000000003,127.908868252669634558
0.161000000000000004,125.729456138203133264
0.162000000000000005,123.560443735402174070
0.163000000000000006,121.408311587956319499
0.164000000000000007,119.280485743125382214
0.165000000000000008,117.183823842953444228
0.166000000000000009,115.123712124379636634
0.167000000000000010,113.103660526003864106
0.168000000000000010,111.125262724192822361
0.169000000000000011,109.188395542144689898
0.170000000000000012,107.291552668014489313
0.171000000000000013,105.432232112020869863
0.172000000000000014,103.607320464932925574
0.173000000000000015,101.813437428117111949
0.174000000000000016,100.047220406320292341
0.175000000000000017,98.305541178908995903
0.176000000000000018,96.585655224018807985
0.177000000000000018,94.885289780345161148
0.178000000000000019,93.202679848084102332
0.179000000000000020,91.536562664748814200
0.180000000000000021,89.886141271186289714
0.181000000000000022,88.251027039772395710
0.182000000000000023,86.631169807575346908
0.183000000000000024,85.026782794188278558
0.184000000000000025,83.438267966570407452
0.185000000000000026,81.866146062469468347
0.186000000000000026,80.310994174764303466
0.187000000000000027,78.773392671678607257
0.188000000000000028,77.253882297518515543
0.189000000000000029,75.752931563276291627
0.190000000000000030,74.270913982768774986
0.191000000000000031,72.808094317959771047
0.192000000000000032,71.364622743553795203
0.193000000000000033,69.940535701844311234
0.194000000000000034,68.535762170993734799
0.195000000000000034,67.150134092114257101
0.196000000000000035,65.783399773857141213
0.197000000000000036,64.435239201549606491
0.198000000000000037,63.105280307803489848
0.199000000000000038,61.793115402118630186
0.200000000000000039,60.498317099839447053
0.201000000000000040,59.220453229513758231
0.202000000000000041,57.959100327671670527
0.203000000000000042,56.713855448221544009
0.204000000000000042,55.484346118209565191
0.205000000000000043,54.270238361764981505
0.206000000000000044,53.071242789548385588
0.207000000000000045,51.887118812417725167
0.208000000000000046,50.717677086189645763
0.209000000000000047,49.562780330448994448
0.210000000000000048,48.422342689642341895
0.211000000000000049,47.296327820556861354
0.212000000000000050,46.184745898108459983
0.213000000000000050,45.087649732483448872
0.214000000000000051,44.005130186348466736
0.215000000000000052,42.937311072226002295
0.216000000000000053,41.884343698267585410
0.217000000000000054,40.846401216465423545
0.218000000000000055,39.823672911624875326
0.219000000000000056,38.816358552855668052
0.220000000000000057,37.824662912492534872
0.221000000000000058,36.848790540696185758
0.222000000000000058,35.888940867870225304
0.223000000000000059,34.945303691752869213
0.224000000000000060,34.018055091803503842
0.225000000000000061,33.107353800451832626
0.226000000000000062,32.213338048998480190
0.227000000000000063,31.336122895493002005
0.228000000000000064,30.475798032775752944
0.229000000000000065,29.632426067023647676
0.230000000000000066,28.806041250544115684
0.231000000000000066,27.996648647143416611
0.232000000000000067,27.204223704079300461
0.233000000000000068,26.428712201302793972
0.234000000000000069,25.670030546307508246
0.235000000000000070,24.928066381340237001
0.236000000000000071,24.202679468890487158
0.237000000000000072,23.493702821172103512
0.238000000000000073,22.800944039652044637
0.239000000000000073,22.124186831482639093
0.240000000000000074,21.463192670873628032
0.241000000000000075,20.817702574930393666
0.242000000000000076,20.187438965214273168
0.243000000000000077,19.572107588191162364
0.244000000000000078,18.971399469773022162
0.245000000000000079,18.384992881273944931
0.246000000000000080,17.812555296259663606
0.247000000000000081,17.253745319927588753
0.248000000000000081,16.708214574787099593
0.249000000000000082,16.175609528489587774
0.250000000000000111,15.655573251663685852
0.251000000000000112,15.147747095528748318
0.252000000000000113,14.651772280872728871
0.253000000000000114,14.167291391684619484
0.254000000000000115,13.693949768313984805
0.255000000000000115,13.231396796492074230
0.256000000000000116,12.779287089885581707
0.257000000000000117,12.337281565066039235
0.258000000000000118,11.905048408868617926
0.259000000000000119,11.482263939083045656
0.260000000000000120,11.068613360274289548
0.261000000000000121,10.663791417274293138
0.262000000000000122,10.267502949524242695
0.263000000000000123,9.879463349986734144
0.264000000000000123,9.499398932793440054
0.265000000000000124,9.127047214154920596
0.266000000000000125,8.762157111340112436
0.267000000000000126,8.404489064741934357
0.268000000000000127,8.053815088187253224
0.269000000000000128,7.709918752732815683
0.270000000000000129,7.372595109217567888
0.271000000000000130,7.041650554823651653
0.272000000000000131,6.716902648838444456
0.273000000000000131,6.398179882713635358
0.274000000000000132,6.085321409389672809
0.275000000000000133,5.778176736699635718
0.276000000000000134,5.476605389489933806
0.277000000000000135,5.180476544901318370
0.278000000000000136,4.889668645043796502
0.279000000000000137,4.604068991079598661
0.280000000000000138,4.323573322500246618
0.281000000000000139,4.048085385150298698
0.282000000000000139,3.777516491314703906
0.283000000000000140,3.511785074949886898
0.284000000000000141,3.250816244903856678
0.285000000000000142,2.994541338738273328
0.286000000000000143,2.742897479538027206
0.287000000000000144,2.495827137872203672
0.288000000000000145,2.253277700854818821
0.289000000000000146,2.015201050047214615
0.290000000000000147,1.781553149744164344
0.291000000000000147,1.552293646996467213
0.292000000000000148,1.327385484541449667
0.293000000000000149,1.106794527642311454
0.294000000000000150,0.890489205675561890
0.295000000000000151,0.678440169154582939
0.296000000000000152,0.470619962735879305
0.297000000000000153,0.267002714622960324
0.298000000000000154,0.067563842660705919
0.299000000000000155,-0.127720222699223646
0.300000000000000155,-0.318872298484783934
0.301000000000000156,-0.505914692358458318
0.302000000000000157,-0.688869428943535089
0.303000000000000158,-0.867758459501179358
0.304000000000000159,-1.042603855207551611
0.305000000000000160,-1.213427984341427956
0.306000000000000161,-1.380253673747511511
0.307000000000000162,-1.543104354988182436
0.308000000000000163,-1.702004195637456307
0.309000000000000163,-1.856978216206193633
0.310000000000000164,-2.008052393217065301
0.311000000000000165,-2.155253748971889927
0.312000000000000166,-2.298610428573346631
0.313000000000000167,-2.438151764777792163
0.314000000000000168,-2.573908331266475003
0.315000000000000169,-2.705911984929195491
0.316000000000000170,-2.834195897757852745
0.317000000000000171,-2.958794578947117060
0.318000000000000171,-3.079743887796777102
0.319000000000000172,-3.197081038005062936
0.320000000000000173,-3.310844593934142210
0.321000000000000174,-3.421074459419409575
0.322000000000000175,-3.527811859682567164
0.323000000000000176,-3.631099316895111340
0.324000000000000177,-3.730980619924429309
0.325000000000000178,-3.827500788778635865
0.326000000000000179,-3.920706034249941130
0.327000000000000179,-4.010643713238250641
0.328000000000000180,-4.097362280218803221
0.329000000000000181,-4.180911235298776951
0.330000000000000182,-4.261341069288501870
0.331000000000000183,-4.338703206193862627
0.332000000000000184,-4.413049943516572426
0.333000000000000185,-4.484434390729648001
0.334000000000000186,-4.552910406275898048
0.335000000000000187,-4.618532533417721631
0.336000000000000187,-4.681355935247657030
0.337000000000000188,-4.741436329149729012
0.338000000000000189,-4.798829920983722630
0.339000000000000190,-4.853593339245988680
0.340000000000000191,-4.905783569442583314
0.341000000000000192,-4.955457888893729290
0.342000000000000193,-5.002673802171434758
0.343000000000000194,-5.047488977356207940
0.344000000000000195,-5.089961183282808221
0.345000000000000195,-5.130148227930445337
0.346000000000000196,-5.168107898097714425
0.347000000000000197,-5.203897900489146799
0.348000000000000198,-5.237575804326751516
0.349000000000000199,-5.269198985587166817
0.350000000000000200,-5.298824572953171774
0.351000000000000201,-5.326509395556565885
0.352000000000000202,-5.352309932578623197
0.353000000000000203,-5.376282264764073560
0.354000000000000203,-5.398482027894767832
0.355000000000000204,-5.418964368259848285
0.356000000000000205,-5.437783900150896521
0.357000000000000206,-5.454994665402393750
0.358000000000000207,-5.470650094989916390
0.359000000000000208,-5.484802972691983136
0.360000000000000209,-5.497505400814562293
0.361000000000000210,-5.508808767971172138
0.362000000000000210,-5.518763718906141591
0.363000000000000211,-5.527420126343099760
0.364000000000000212,-5.534827064836334465
0.365000000000000213,-5.541032786598064419
0.366000000000000214,-5.546084699270916296
0.367000000000000215,-5.550029345611156018
0.368000000000000216,-5.552912385045272181
0.369000000000000217,-5.554778577059255262
0.370000000000000218,-5.555671766377817455
0.371000000000000218,-5.555634869888070426
0.372000000000000219,-5.554709865260686108
0.373000000000000220,-5.552937781219552171
0.374000000000000221,-5.550358689409677915
0.375000000000000222,-5.547011697811753628
0.376000000000000223,-5.542934945651140310
0.377000000000000224,-5.538165599747921775
0.378000000000000225,-5.532739852254397128
0.379000000000000226,-5.526692919725864961
0.380000000000000226,-5.520059043470585181
0.381000000000000227,-5.512871491124426093
0.382000000000000228,-5.505162559396227451
0.383000000000000229,-5.496963577929895095
0.384000000000000230,-5.488304914229665599
0.385000000000000231,-5.479215979595704056
0.386000000000000232,-5.469725236017432657
0.387000000000000233,-5.459860203973095238
0.388000000000000234,-5.449647471084450245
0.389000000000000234,-5.439112701576790165
0.390000000000000235,-5.428280646494975770
0.391000000000000236,-5.417175154627587474
0.392000000000000237,-5.405819184091992469
0.393000000000000238,-5.394234814534559774
0.394000000000000239,-5.382443259901107169
0.395000000000000240,-5.370464881734067220
0.396000000000000241,-5.358319202953987670
0.397000000000000242,-5.346024922084121833
0.398000000000000242,-5.333599927878394098
0.399000000000000243,-5.321061314313920043
0.400000000000000244,-5.308425395910860267
0.401000000000000245,-5.295707723343597628
0.402000000000000246,-5.282923099308312054
0.403000000000000247,-5.270085594613639124
0.404000000000000248,-5.257208564462137801
0.405000000000000249,-5.244304664891717316
0.406000000000000250,-5.231385869347297657
0.407000000000000250,-5.218463485354412512
0.408000000000000251,-5.205548171267546209
0.409000000000000252,-5.192649953067316915
0.410000000000000253,-5.179778241181779208
0.411000000000000254,-5.166941847308347491
0.412000000000000255,-5.154149001213911063
0.413000000000000256,-5.141407367492070613
0.414000000000000257,-5.128724062257179028
0.415000000000000258,-5.116105669756422891
0.416000000000000258,-5.103558258881809806
0.417000000000000259,-5.091087399565305205
0.418000000000000260,-5.078698179041136740
0.419000000000000261,-5.066395217960463881
0.420000000000000262,-5.054182686344383058
0.421000000000000263,-5.042064319362400404
0.422000000000000264,-5.030043432924083291
0.423000000000000265,-5.018122939072809707
0.424000000000000266,-5.006305361171241586
0.425000000000000266,-4.994592848868805390
0.426000000000000267,-4.982987192842556645
0.427000000000000268,-4.971489839303346869
0.428000000000000269,-4.960101904259970773
0.429000000000000270,-4.948824187534791363
0.430000000000000271,-4.937657186524832653
0.431000000000000272,-4.926601109703192094
0.432000000000000273,-4.915655889856016536
0.433000000000000274,-4.904821197051107973
0.434000000000000274,-4.894096451334606357
0.435000000000000275,-4.883480835152860244
0.436000000000000276,-4.872973305497081853
0.437000000000000277,-4.862572605768830769
0.438000000000000278,-4.852277277364930974
0.439000000000000279,-4.842085670980821099
0.440000000000000280,-4.831995957631739280
0.441000000000000281,-4.822006139391580071
0.442000000000000282,-4.812114059849720071
0.443000000000000282,-4.802317414286243036
0.444000000000000283,-4.792613759566654252
0.445000000000000284,-4.783000523757184652
0.446000000000000285,-4.773475015462259385
0.447000000000000286,-4.764034432886079529
0.448000000000000287,-4.754675872620181210
0.449000000000000288,-4.745396338159548755
0.450000000000000289,-4.736192748149673726
0.451000000000000290,-4.727061944367433100
0.452000000000000290,-4.718000699438809065
0.453000000000000291,-4.709005724296492446
0.454000000000000292,-4.700073675380870064
0.455000000000000293,-4.691201161587776447
0.456000000000000294,-4.682384750966718023
0.457000000000000295,-4.673620977173355229
0.458000000000000296,-4.664906345680049249
0.459000000000000297,-4.656237339748601656
0.460000000000000298,-4.647610426169191733
0.461000000000000298,-4.639022060769721456
0.462000000000000299,-4.630468693699856253
0.463000000000000300,-4.621946774494015031
0.464000000000000301,-4.613452756917775233
0.465000000000000302,-4.604983103602064531
0.466000000000000303,-4.596534290469606709
0.467000000000000304,-4.588102810958154976
0.468000000000000305,-4.579685180044981152
0.469000000000000306,-4.571277938077190406
0.470000000000000306,-4.562877654412446304
0.471000000000000307,-4.554480930874522215
0.472000000000000308,-4.546084405028387287
0.473000000000000309,-4.537684753279261685
0.474000000000000310,-4.529278693800164568
0.475000000000000311,-4.520862989292513845
0.476000000000000312,-4.512434449584209695
0.477000000000000313,-4.503989934069669410
0.478000000000000314,-4.495526353996194047
0.479000000000000314,-4.487040674601153079
0.480000000000000315,-4.478529917104153490
0.481000000000000316,-4.469991160558690169
0.482000000000000317,-4.461421543567347214
0.483000000000000318,-4.452818265864883607
0.484000000000000319,-4.444178589773267518
0.485000000000000320,-4.435499841532803522
0.486000000000000321,-4.426779412513361933
0.487000000000000322,-4.418014760309722178
0.488000000000000322,-4.409203409724860023
0.489000000000000323,-4.400342953645173694
0.490000000000000324,-4.391431053811333030
0.491000000000000325,-4.382465441488501590
0.492000000000000326,-4.373443918039604306
0.493000000000000327,-4.364364355405264462
0.494000000000000328,-4.355224696493846359
0.495000000000000329,-4.346022955485186579
0.496000000000000330,-4.336757218051259244
0.497000000000000330,-4.327425641497262276
0.498000000000000331,-4.318026454826155103
0.499000000000000332,-4.308557958730069082
0.500000000000000333,-4.299018525511529631
0.501000000000000334,-4.289406598937550719
0.502000000000000335,-4.279720694029632178
0.503000000000000336,-4.269959396792511797
0.504000000000000337,-4.260121363884510792
0.505000000000000338,-4.250205322232208260
0.506000000000000338,-4.240210068592165982
0.507000000000000339,-4.230134469062313052
0.508000000000000340,-4.219977458545489668
0.509000000000000341,-4.209738040167768425
0.510000000000000342,-4.199415284653776226
0.511000000000000343,-4.189008329661545460
0.512000000000000344,-4.178516379079061593
0.513000000000000345,-4.167938702284760488
0.514000000000000346,-4.157274633374180794
0.515000000000000346,-4.146523570354757382
0.516000000000000347,-4.135684974310862572
0.517000000000000348,-4.124758368541069586
0.518000000000000349,-4.113743337669459876
0.519000000000000350,-4.102639526732925646
0.520000000000000351,-4.091446640246148903
0.521000000000000352,-4.080164441246112439
0.522000000000000353,-4.068792750317662410
0.523000000000000353,-4.057331444601864234
0.524000000000000354,-4.045780456788662605
0.525000000000000355,-4.034139774095351960
0.526000000000000356,-4.022409437232285612
0.527000000000000357,-4.010589539357313882
0.528000000000000358,-3.998680225020183165
0.529000000000000359,-3.986681689098321435
0.530000000000000360,-3.974594175725132406
0.531000000000000361,-3.962417977212123965
0.532000000000000361,-3.950153432965959333
0.533000000000000362,-3.937800928401565592
0.534000000000000363,-3.925360893852354760
0.535000000000000364,-3.912833803478620531
0.536000000000000365,-3.900220174175028198
0.537000000000000366,-3.887520564478236018
0.538000000000000367,-3.874735573475402983
0.539000000000000368,-3.861865839714646143
0.540000000000000369,-3.848912040118048772
0.541000000000000369,-3.835874888898213264
0.542000000000000370,-3.822755136478932059
0.543000000000000371,-3.809553568420817271
0.544000000000000372,-3.796271004352509859
0.545000000000000373,-3.782908296908131351
0.546000000000000374,-3.769466330671580323
0.547000000000000375,-3.755946021128259815
0.548000000000000376,-3.742348313624818790
0.549000000000000377,-3.728674182337379683
0.550000000000000377,-3.714924629248781862
0.551000000000000378,-3.701100683135261527
0.552000000000000379,-3.687203398563106305
0.553000000000000380,-3.673233854895548323
0.554000000000000381,-3.659193155310396683
0.555000000000000382,-3.645082425828773953
0.556000000000000383,-3.630902814355152941
0.557000000000000384,-3.616655489729233786
0.558000000000000385,-3.602341640789718635
0.559000000000000385,-3.587962475450440447
0.560000000000000386,-3.573519219788977352
0.561000000000000387,-3.559013117148050132
0.562000000000000388,-3.544445427249851122
0.563000000000000389,-3.529817425323581226
0.564000000000000390,-3.515130401246254088
0.565000000000000391,-3.500385658697040103
0.566000000000000392,-3.485584514325189787
0.567000000000000393,-3.470728296931745227
0.568000000000000393,-3.455818346665059160
0.569000000000000394,-3.440856014230270432
0.570000000000000395,-3.425842660112841997
0.571000000000000396,-3.410779653816090384
0.572000000000000397,-3.395668373112952221
0.573000000000000398,-3.380510203311839490
0.574000000000000399,-3.365306536536745163
0.575000000000000400,-3.350058771021520165
0.576000000000000401,-3.334768310418360748
0.577000000000000401,-3.319436563120554240
0.578000000000000402,-3.304064941599329952
0.579000000000000403,-3.288654861754900516
0.580000000000000404,-3.273207742281647903
0.581000000000000405,-3.257725004047320461
0.582000000000000406,-3.242208069486300026
0.583000000000000407,-3.226658362006765479
0.584000000000000408,-3.211077305411793592
0.585000000000000409,-3.195466323334213765
0.586000000000000409,-3.179826838685193557
0.587000000000000410,-3.164160273116474187
0.588000000000000411,-3.148468046496072592
0.589000000000000412,-3.132751576397481585
0.590000000000000413,-3.117012277602111858
0.591000000000000414,-3.101251561614962071
0.592000000000000415,-3.085470836193398902
0.593000000000000416,-3.069671504888816571
0.594000000000000417,-3.053854966601169618
0.595000000000000417,-3.038022615146236838
0.596000000000000418,-3.022175838835318373
0.597000000000000419,-3.006316020067504979
0.598000000000000420,-2.990444534934079801
0.599000000000000421,-2.974562752835150370
0.600000000000000422,-2.958672036108199510
0.601000000000000423,-2.942773739668477440
0.602000000000000424,-2.926869210661080523
0.603000000000000425,-2.910959788124543035
0.604000000000000425,-2.895046802665763863
0.605000000000000426,-2.879131576146153115
0.606000000000000427,-2.863215421378861425
0.607000000000000428,-2.847299641836752659
0.608000000000000429,-2.831385531371276354
0.609000000000000430,-2.815474373941705188
0.610000000000000431,-2.799567443354898710
0.611000000000000432,-2.783666003015200729
0.612000000000000433,-2.767771305684399330
0.613000000000000433,-2.751884593251602062
