# Gypsum-010_CS-3530-AC
# h[nm],U(h)[kJ/mol]
0.149999999999999994,109.904645007606546869
0.150999999999999995,108.149479753648577685
0.151999999999999996,106.241734511904795113
0.152999999999999997,104.309750916051058311
0.153999999999999998,102.415360205925026094
0.154999999999999999,100.580281987961896562
0.156000000000000000,98.804605598191869831
0.157000000000000001,97.078866598656389897
0.158000000000000002,95.391303433227847108
0.159000000000000002,93.731710157777456516
0.160000000000000003,92.093038650835865155
0.161000000000000004,90.471628608764618207
0.162000000000000005,88.866695863057998395
0.163000000000000006,87.279505150831710125
0.164000000000000007,85.712495198342509184
0.165000000000000008,84.168507899446780129
0.166000000000000009,82.650192698637127364
0.167000000000000010,81.159604575729730414
0.168000000000000010,79.697982314962118267
0.169000000000000011,78.265677062934926767
0.170000000000000012,76.862194726916115428
0.171000000000000013,75.486315835821685027
0.172000000000000014,74.136260351607944585
0.173000000000000015,72.809870652554508297
0.174000000000000016,71.504792218481767918
0.175000000000000017,70.218637617291761899
0.176000000000000018,68.949124758123915058
0.177000000000000018,67.694184819804291919
0.178000000000000019,66.452038728893469965
0.179000000000000020,65.221243596947857668
0.180000000000000021,64.000712237418056816
0.181000000000000022,62.789709902003401965
0.182000000000000023,61.587832843916956449
0.183000000000000024,60.394973364457442244
0.184000000000000025,59.211275748561988053
0.185000000000000026,58.037087045965563448
0.186000000000000026,56.872906089935725049
0.187000000000000027,55.719333530063657633
0.188000000000000028,54.577025037810187769
0.189000000000000029,53.446649257913655617
0.190000000000000030,52.328851548127332194
0.191000000000000031,51.224224087409695017
0.192000000000000032,50.133282544665476621
0.193000000000000033,49.056449186981396338
0.194000000000000034,47.994042064690390248
0.195000000000000034,46.946269734601990820
0.196000000000000035,45.913230864871387382
0.197000000000000036,44.894917997010423960
0.198000000000000037,43.891224714074802193
0.199000000000000038,42.901955470980752239
0.200000000000000039,41.926837375666750063
0.201000000000000040,40.965533261625012074
0.202000000000000041,40.017655457235257188
0.203000000000000042,39.082779730272228846
0.204000000000000042,38.160458962712304753
0.205000000000000043,37.250236188145912308
0.206000000000000044,36.351656699049421206
0.207000000000000045,35.464279001902504262
0.208000000000000046,34.587684463236342935
0.209000000000000047,33.721485548246569408
0.210000000000000048,32.865332605088056539
0.211000000000000049,32.018919192206666935
0.212000000000000050,31.181985983132257445
0.213000000000000050,30.354323313343002155
0.214000000000000051,29.535772457533226998
0.215000000000000052,28.726225743407685087
0.216000000000000053,27.925625620570265539
0.217000000000000054,27.133962810798198717
0.218000000000000055,26.351273669618613837
0.219000000000000056,25.577636889252481467
0.220000000000000057,24.813169670242189113
0.221000000000000058,24.058023483993359548
0.222000000000000058,23.312379541533495342
0.223000000000000059,22.576444075486826080
0.224000000000000060,21.850443532984769490
0.225000000000000061,21.134619767334960727
0.226000000000000062,20.429225306061162826
0.227000000000000063,19.734518762662627722
0.228000000000000064,19.050760449338035585
0.229000000000000065,18.378208238147557552
0.230000000000000066,17.717113708788172488
0.231000000000000066,17.067718612429860769
0.232000000000000067,16.430251672983921196
0.233000000000000068,15.804925739793777240
0.234000000000000069,15.191935299084255107
0.235000000000000070,14.591454345584528696
0.236000000000000071,14.003634610547837980
0.237000000000000072,13.428604137908189742
0.238000000000000073,12.866466196513311360
0.239000000000000073,12.317298513219068212
0.240000000000000074,11.781152809078694332
0.241000000000000075,11.258054618870726671
0.242000000000000076,10.748003372730495997
0.243000000000000077,10.250972717635031373
0.244000000000000078,9.766911055891911886
0.245000000000000079,9.295742277550193222
0.246000000000000080,8.837366663741201833
0.247000000000000081,8.391661938322517500
0.248000000000000081,7.958484445800690921
0.249000000000000082,7.537670434305799638
0.250000000000000111,7.129037423348840719
0.251000000000000112,6.732385637177870308
0.252000000000000113,6.347499485729429125
0.253000000000000114,5.974149076423843852
0.254000000000000115,5.612091741347825291
0.255000000000000115,5.261073565688579201
0.256000000000000116,4.920830904608211043
0.257000000000000117,4.591091877061098003
0.258000000000000118,4.271577826346636186
0.259000000000000119,3.962004738442220120
0.260000000000000120,3.662084610368269377
0.261000000000000121,3.371526761991051835
0.262000000000000122,3.090039085762629867
0.263000000000000123,2.817329229927798995
0.264000000000000123,2.553105711690523805
0.265000000000000124,2.297078957726757409
0.266000000000000125,2.048962270254415685
0.267000000000000126,1.808472717625768000
0.268000000000000127,1.575331949092240169
0.269000000000000128,1.349266934009372365
0.270000000000000129,1.130010626301098497
0.271000000000000130,0.917302555490543958
0.272000000000000131,0.710889346032387737
0.273000000000000131,0.510525167051520845
0.274000000000000132,0.315972114908371016
0.275000000000000133,0.127000531275561990
0.276000000000000134,-0.056610740372675751
0.277000000000000135,-0.235074156784067290
0.278000000000000136,-0.408593332259138353
0.279000000000000137,-0.577362947988824926
0.280000000000000138,-0.741568710037794010
0.281000000000000139,-0.901387352582796120
0.282000000000000139,-1.056986683012965944
0.283000000000000140,-1.208525665521591685
0.284000000000000141,-1.356154539862896247
0.285000000000000142,-1.500014972010761172
0.286000000000000143,-1.640240233536067738
0.287000000000000144,-1.776955406613104582
0.288000000000000145,-1.910277611671732156
0.289000000000000146,-2.040316254827119646
0.290000000000000147,-2.167173292343203883
0.291000000000000147,-2.290943509515375176
0.292000000000000148,-2.411714811492974064
0.293000000000000149,-2.529568523699537330
0.294000000000000150,-2.644579699648665461
0.295000000000000151,-2.756817434093777663
0.296000000000000152,-2.866345179590042758
0.297000000000000153,-2.973221064685774628
0.298000000000000154,-3.077498212097407926
0.299000000000000155,-3.179225055356338814
0.300000000000000155,-3.278445652546770894
0.301000000000000156,-3.375199995880503678
0.302000000000000157,-3.469524315977678519
0.303000000000000158,-3.561451379840131271
0.304000000000000159,-3.651010781617654910
0.305000000000000160,-3.738229225375159892
0.306000000000000161,-3.823130799171825966
0.307000000000000162,-3.905737239860686660
0.308000000000000163,-3.986068188109045174
0.309000000000000163,-4.064141433226774680
0.310000000000000164,-4.139973147470694670
0.311000000000000165,-4.213578109568938856
0.312000000000000166,-4.284969917279814133
0.313000000000000167,-4.354161188864931198
0.314000000000000168,-4.421163753416592179
0.315000000000000169,-4.485988830034901120
0.316000000000000170,-4.548647195900689333
0.317000000000000171,-4.609149343336304661
0.318000000000000171,-4.667505625988056295
0.319000000000000172,-4.723726394301676734
0.320000000000000173,-4.777822120495523350
0.321000000000000174,-4.829803513265904513
0.322000000000000175,-4.879681622485181336
0.323000000000000176,-4.927467934175782105
0.324000000000000177,-4.973174456062849913
0.325000000000000178,-5.016813794024606921
0.326000000000000179,-5.058399219773406230
0.327000000000000179,-5.097944730111167111
0.328000000000000180,-5.135465098111682281
0.329000000000000181,-5.170975916588704813
0.330000000000000182,-5.204493634212608910
0.331000000000000183,-5.236035584641287599
0.332000000000000184,-5.265620009031007243
0.333000000000000185,-5.293266072292293067
0.334000000000000186,-5.318993873453267796
0.335000000000000187,-5.342824450489076504
0.336000000000000187,-5.364779779971263984
0.337000000000000188,-5.384882771884542230
0.338000000000000189,-5.403157259951923308
0.339000000000000190,-5.419627987801108659
0.340000000000000191,-5.434320591296517122
0.341000000000000192,-5.447261577352485062
0.342000000000000193,-5.458478299533263467
0.343000000000000194,-5.467998930735634033
0.344000000000000195,-5.475852433239202455
0.345000000000000195,-5.482068526399233477
0.346000000000000196,-5.486677652245400161
0.347000000000000197,-5.489710939239254017
0.348000000000000198,-5.491200164431765174
0.349000000000000199,-5.491177714251176845
0.350000000000000200,-5.489676544140317915
0.351000000000000201,-5.486730137251294437
0.352000000000000202,-5.482372462394380364
0.353000000000000203,-5.476637931427281281
0.354000000000000203,-5.469561356259935891
0.355000000000000204,-5.461177905639539532
0.356000000000000205,-5.451523061870216402
0.357000000000000206,-5.440632577611669518
0.358000000000000207,-5.428542432891043212
0.359000000000000208,-5.415288792453002209
0.360000000000000209,-5.400907963563515324
0.361000000000000210,-5.385436354373851486
0.362000000000000210,-5.368910432942699984
0.363000000000000211,-5.351366687005796763
0.364000000000000212,-5.332841584574530280
0.365000000000000213,-5.313371535437111604
0.366000000000000214,-5.292992853628559757
0.367000000000000215,-5.271741720928552866
0.368000000000000216,-5.249654151439584027
0.369000000000000217,-5.226765957291144460
0.370000000000000218,-5.203112715509773167
0.371000000000000218,-5.178729736088724778
0.372000000000000219,-5.153652031285699486
0.373000000000000220,-5.127914286171700198
0.374000000000000221,-5.101550830449243179
0.375000000000000222,-5.074595611553364805
0.376000000000000223,-5.047082169044758260
0.377000000000000224,-5.019043610300014002
0.378000000000000225,-4.990512587500297137
0.379000000000000226,-4.961521275916137341
0.380000000000000226,-4.932101353482813977
0.381000000000000227,-4.902283981657568290
0.382000000000000228,-4.872099787547218952
0.383000000000000229,-4.841578847292064225
0.384000000000000230,-4.810750670689452946
0.385000000000000231,-4.779644187038520897
0.386000000000000232,-4.748287732185175081
0.387000000000000233,-4.716709036745003303
0.388000000000000234,-4.684935215479829829
0.389000000000000234,-4.652992757802508095
0.390000000000000235,-4.620907519382896567
0.391000000000000236,-4.588704714827185782
0.392000000000000237,-4.556408911401441664
0.393000000000000238,-4.524044023769664413
0.394000000000000239,-4.491633309715671984
0.395000000000000240,-4.459199366817783172
0.396000000000000241,-4.426764130044603007
0.397000000000000242,-4.394348870239944915
0.398000000000000242,-4.361974193464659422
0.399000000000000243,-4.329660041162926021
0.400000000000000244,-4.297425691120499991
0.401000000000000245,-4.265289759182513407
0.402000000000000246,-4.233270201698310586
0.403000000000000247,-4.201384318661151696
0.404000000000000248,-4.169648757510740822
0.405000000000000249,-4.138079517566859877
0.406000000000000250,-4.106691955062664157
0.407000000000000250,-4.075500788746699854
0.408000000000000251,-4.044520106023023587
0.409000000000000252,-4.013763369599401720
0.410000000000000253,-3.983243424613966077
0.411000000000000254,-3.952972506211381187
0.412000000000000255,-3.922962247540046743
0.413000000000000256,-3.893223688142624095
0.414000000000000257,-3.863767282712575302
0.415000000000000258,-3.834602910190371805
0.416000000000000258,-3.805739883173408167
0.417000000000000259,-3.777186957614556029
0.418000000000000260,-3.748952342784900971
0.419000000000000261,-3.721043711476915039
0.420000000000000262,-3.693468210425108644
0.421000000000000263,-3.666232470921857445
0.422000000000000264,-3.639342619606857454
0.423000000000000265,-3.612804289409353942
0.424000000000000266,-3.586622630623212071
0.425000000000000266,-3.560802322095248940
0.426000000000000267,-3.535347582508381770
0.427000000000000268,-3.510262181741604870
0.428000000000000269,-3.485549452289583794
0.429000000000000270,-3.461212300725460267
0.430000000000000271,-3.437253219190973930
0.431000000000000272,-3.413674296898904004
0.432000000000000273,-3.390477231633332256
0.433000000000000274,-3.367663341234049312
0.434000000000000274,-3.345233575051937525
0.435000000000000275,-3.323188525362952728
0.436000000000000276,-3.301528438728857928
0.437000000000000277,-3.280253227293496110
0.438000000000000278,-3.259362480004027951
0.439000000000000279,-3.238855473747168645
0.440000000000000280,-3.218731184390917210
0.441000000000000281,-3.198988297722966667
0.442000000000000282,-3.179625220277520814
0.443000000000000282,-3.160640090042592831
0.444000000000000283,-3.142030787040691830
0.445000000000000284,-3.123794943775989985
0.446000000000000285,-3.105929955541710807
0.447000000000000286,-3.088432990582039572
0.448000000000000287,-3.071301000102997669
0.449000000000000288,-3.054530728127562433
0.450000000000000289,-3.038118721190387728
0.451000000000000290,-3.022061337868120923
0.452000000000000290,-3.006354758141614791
0.453000000000000291,-2.990994992586688994
0.454000000000000292,-2.975977891390544361
0.455000000000000293,-2.961299153191197853
0.456000000000000294,-2.946954333737704435
0.457000000000000295,-2.932938854369228743
0.458000000000000296,-2.919248010311328745
0.459000000000000297,-2.905876978788152876
0.460000000000000298,-2.892820826949465740
0.461000000000000298,-2.880074519611774964
0.462000000000000299,-2.867632926813013405
0.463000000000000300,-2.855490831180493849
0.464000000000000301,-2.843642935112145498
0.465000000000000302,-2.832083867771177932
0.466000000000000303,-2.820808191894571326
0.467000000000000304,-2.809810410416005766
0.468000000000000305,-2.799084972903997048
0.469000000000000306,-2.788626281816197761
0.470000000000000306,-2.778428698571033362
0.471000000000000307,-2.768486549437865651
0.472000000000000308,-2.758794131247250370
0.473000000000000309,-2.749345716922745542
0.474000000000000310,-2.740135560836043815
0.475000000000000311,-2.731157903987226021
0.476000000000000312,-2.722406979012116146
0.477000000000000313,-2.713877015018721028
0.478000000000000314,-2.705562242254935246
0.479000000000000314,-2.697456896609774724
0.480000000000000315,-2.689555223950363505
0.481000000000000316,-2.681851484297182786
0.482000000000000317,-2.674339955839927008
0.483000000000000318,-2.667014938796589796
0.484000000000000319,-2.659870759118266648
0.485000000000000320,-2.652901772042404183
0.486000000000000321,-2.646102365497077891
0.487000000000000322,-2.639466963359079266
0.488000000000000322,-2.632990028568502172
0.489000000000000323,-2.626666066102678609
0.490000000000000324,-2.620489625812206125
0.491000000000000325,-2.614455305121913486
0.492000000000000326,-2.608557751599588137
0.493000000000000327,-2.602791665395357334
0.494000000000000328,-2.597151801554514527
0.495000000000000329,-2.591632972206726837
0.496000000000000330,-2.586230048634404532
0.497000000000000330,-2.580937963223195908
0.498000000000000331,-2.575751711297331159
0.499000000000000332,-2.570666352842788438
0.500000000000000333,-2.565677014121050092
0.501000000000000334,-2.560778889176238859
0.502000000000000335,-2.555967241238524590
0.503000000000000336,-2.551237404026501121
0.504000000000000337,-2.546584782951353709
0.505000000000000338,-2.542004856225509535
0.506000000000000338,-2.537493175878526408
0.507000000000000339,-2.533045368682887322
0.508000000000000340,-2.528657136992328525
0.509000000000000341,-2.524324259495420719
0.510000000000000342,-2.520042591886872962
0.511000000000000343,-2.515808067459249564
0.512000000000000344,-2.511616697617513161
0.513000000000000345,-2.507464572318984786
0.514000000000000346,-2.503347860441136774
0.515000000000000346,-2.499262810079620589
0.516000000000000347,-2.495205748778937860
0.517000000000000348,-2.491173083698133173
0.518000000000000349,-2.487161301713718409
0.519000000000000350,-2.483166969462202722
0.520000000000000351,-2.479186733324376224
0.521000000000000352,-2.475217319353578027
0.522000000000000353,-2.471255533150059858
0.523000000000000353,-2.467298259683570194
0.524000000000000354,-2.463342463066215071
0.525000000000000355,-2.459385186277617930
0.526000000000000356,-2.455423550844320069
0.527000000000000357,-2.451454756475441421
0.528000000000000358,-2.447476080656387332
0.529000000000000359,-2.443484878202558885
0.530000000000000360,-2.439478580774780081
0.531000000000000361,-2.435454696358295923
0.532000000000000361,-2.431410808707011206
0.533000000000000362,-2.427344576754684624
0.534000000000000363,-2.423253733994704895
0.535000000000000364,-2.419136087830081827
0.536000000000000365,-2.414989518895175991
0.537000000000000366,-2.410811980350742623
0.538000000000000367,-2.406601497153701530
0.539000000000000368,-2.402356165303181079
0.540000000000000369,-2.398074151064127246
0.541000000000000369,-2.393753690169952986
0.542000000000000370,-2.389393087005466487
0.543000000000000371,-2.384990713771430570
0.544000000000000372,-2.380545009631993558
0.545000000000000373,-2.376054479846204881
0.546000000000000374,-2.371517694884791805
0.547000000000000375,-2.366933289533352358
0.548000000000000376,-2.362299961983096885
0.549000000000000377,-2.357616472910172511
0.550000000000000377,-2.352881644544658091
0.551000000000000378,-2.348094359730196423
0.552000000000000379,-2.343253560975301131
0.553000000000000380,-2.338358249497212604
0.554000000000000381,-2.333407484259267139
0.555000000000000382,-2.328400381002668773
0.556000000000000383,-2.323336111273448523
0.557000000000000384,-2.318213901445536074
0.558000000000000385,-2.313033031740634016
0.559000000000000385,-2.307792835245739749
0.560000000000000386,-2.302492696929003380
0.561000000000000387,-2.297132052654662804
0.562000000000000388,-2.291710388197684356
0.563000000000000389,-2.286227238258867978
0.564000000000000390,-2.280682185480910285
0.565000000000000391,-2.275074859466156063
0.566000000000000392,-2.269404935796531131
0.567000000000000393,-2.263672135056277845
0.568000000000000393,-2.257876221857954668
0.569000000000000394,-2.252017003872284207
0.570000000000000395,-2.246094330862296040
0.571000000000000396,-2.240108093722208871
0.572000000000000397,-2.234058223521575126
0.573000000000000398,-2.227944690555012208
0.574000000000000399,-2.221767503398011989
0.575000000000000400,-2.215526707969146081
0.576000000000000401,-2.209222386599062560
0.577000000000000401,-2.202854657106652958
0.578000000000000402,-2.196423671882635542
0.579000000000000403,-2.189929616980927030
0.580000000000000404,-2.183372711218112272
0.581000000000000405,-2.176753205281209524
0.582000000000000406,-2.170071380844082576
0.583000000000000407,-2.163327549692676932
0.584000000000000408,-2.156522052859348726
0.585000000000000409,-2.149655259766489301
0.586000000000000409,-2.142727567379634213
0.587000000000000410,-2.135739399370280012
0.588000000000000411,-2.128691205288522958
0.589000000000000412,-2.121583459745759903
0.590000000000000413,-2.114416661607511294
0.591000000000000414,-2.107191333196565708
0.592000000000000415,-2.099908019506568913
0.593000000000000416,-2.092567287426104983
0.594000000000000417,-2.085169724973449767
0.595000000000000417,-2.077715940542073092
0.596000000000000418,-2.070206562156882590
0.597000000000000419,-2.062642236741437429
0.598000000000000420,-2.055023629396033336
0.599000000000000421,-2.047351422686824129
0.600000000000000422,-2.039626315945971324
0.601000000000000423,-2.031849024582849328
0.602000000000000424,-2.024020279406376854
0.603000000000000425,-2.016140825958456784
0.604000000000000425,-2.008211423858527134
0.605000000000000426,-2.000232846159261335
0.606000000000000427,-1.992205878713414480
0.607000000000000428,-1.984131319551719397
0.608000000000000429,-1.976009978271985990
0.609000000000000430,-1.967842675439168021
0.610000000000000431,-1.959630241996575650
0.611000000000000432,-1.951373518688042541
0.612000000000000433,-1.943073355491074405
0.613000000000000433,-1.934730611060957228
