# Gypsum-010_CS-55104-AC
# h[nm],U(h)[kJ/mol]
0.149999999999999994,158.408316706570019505
0.150999999999999995,155.719069491527648097
0.151999999999999996,153.145353541569789968
0.152999999999999997,150.694263003682152657
0.153999999999999998,148.345574887077873427
0.154999999999999999,146.071666122974875179
0.156000000000000000,143.847303399499736543
0.157000000000000001,141.653516333653698211
0.158000000000000002,139.478240307251468266
0.159000000000000002,137.315388246742458023
0.160000000000000003,135.163331465821642041
0.161000000000000004,133.023330966007932830
0.162000000000000005,130.898185663915370469
0.163000000000000006,128.791198761449976473
0.164000000000000007,126.705470104531940478
0.165000000000000008,124.643474842347629306
0.166000000000000009,122.606869330953557551
0.167000000000000010,120.596462257881810842
0.168000000000000010,118.612294752551093779
0.169000000000000011,116.653782977384480546
0.170000000000000012,114.719887468756979843
0.171000000000000013,112.809283686480554820
0.172000000000000014,110.920517025432133096
0.173000000000000015,109.052132642416637509
0.174000000000000016,107.202775855362574475
0.175000000000000017,105.371262743217513957
0.176000000000000018,103.556623150628382746
0.177000000000000018,101.758119838844194760
0.178000000000000019,99.975248268852539013
0.179000000000000020,98.207721672038331917
0.180000000000000021,96.455445840137855384
0.181000000000000022,94.718487596463745604
0.182000000000000023,92.997040307224551725
0.183000000000000024,91.291389138669813974
0.184000000000000025,89.601878121426722146
0.185000000000000026,87.928880486414286111
0.186000000000000026,86.272773210196106675
0.187000000000000027,84.633916262868766012
0.188000000000000028,83.012636691394106947
0.189000000000000029,81.409217392621627596
0.190000000000000030,79.823890226296271067
0.191000000000000031,78.256832980129473754
0.192000000000000032,76.708169616575020200
0.193000000000000033,75.177973194219646302
0.194000000000000034,73.666270856058474692
0.195000000000000034,72.173050303581987919
0.196000000000000035,70.698267221794964144
0.197000000000000036,69.241853179380569827
0.198000000000000037,67.803723594693195764
0.199000000000000038,66.383785427667902468
0.200000000000000039,64.981944326604804019
0.201000000000000040,63.598111024523731771
0.202000000000000041,62.232206840549189053
0.203000000000000042,60.884168196362658421
0.204000000000000042,59.553950105460089048
0.205000000000000043,58.241528633506277401
0.206000000000000044,56.946902361526838376
0.207000000000000045,55.670092910323219826
0.208000000000000046,54.411144604791900292
0.209000000000000047,53.170123371358087638
0.210000000000000048,51.947114971139420447
0.211000000000000049,50.742222676412090721
0.212000000000000050,49.555564499129523881
0.213000000000000050,48.387270078301369836
0.214000000000000051,47.237477328581320535
0.215000000000000052,46.106328946008602543
0.216000000000000053,44.993968859002976046
0.217000000000000054,43.900538703879078639
0.218000000000000055,42.826174394711550519
0.219000000000000056,41.771002847681913295
0.220000000000000057,40.735138910344453222
0.221000000000000058,39.718682536793984639
0.222000000000000058,38.721716240671874232
0.223000000000000059,37.744302849454911097
0.224000000000000060,36.786483575625013032
0.225000000000000061,35.848276413187562639
0.226000000000000062,34.929674861629500526
0.227000000000000063,34.030646973799932198
0.228000000000000064,33.151134719354672598
0.229000000000000065,32.291053651308047279
0.230000000000000066,31.450292859853664851
0.231000000000000066,30.628715194906504848
0.232000000000000067,29.826157736735432024
0.233000000000000068,29.042432492545913192
0.234000000000000069,28.277327295883480929
0.235000000000000070,27.530606885202239198
0.236000000000000071,26.802014137826894569
0.237000000000000072,26.091271435774054055
0.238000000000000073,25.398082140440493504
0.239000000000000073,24.722132153962803613
0.240000000000000074,24.063091546055211722
0.241000000000000075,23.420616226304495910
0.242000000000000076,22.794349643198167144
0.243000000000000077,22.183924492551806651
0.244000000000000078,21.588964419453922972
0.245000000000000079,21.009085699330604768
0.246000000000000080,20.443898885227785200
0.247000000000000081,19.893010409890912626
0.248000000000000081,19.356024132676399319
0.249000000000000082,18.832542822739121391
0.250000000000000111,18.322169571294733004
0.251000000000000112,17.824509127043903334
0.252000000000000113,17.339169150061231051
0.253000000000000114,16.865761380589777474
0.254000000000000115,16.403902720236466450
0.255000000000000115,15.953216224035482895
0.256000000000000116,15.513332002732690640
0.257000000000000117,15.083888035445454534
0.258000000000000118,14.664530893571006587
0.259000000000000119,14.254916377453492160
0.260000000000000120,13.854710067878210467
0.261000000000000121,13.463587794946340281
0.262000000000000122,13.081236027295238600
0.263000000000000123,12.707352184975841070
0.264000000000000123,12.341644879580609739
0.265000000000000124,11.983834085440580708
0.266000000000000125,11.633651245879809366
0.267000000000000126,11.290839318637084787
0.268000000000000127,10.955152764639901619
0.269000000000000128,10.626357484351768079
0.270000000000000129,10.304230705911994193
0.271000000000000130,9.988560829253517070
0.272000000000000131,9.679147230322078244
0.273000000000000131,9.375800029432568294
0.274000000000000132,9.078339827689857700
0.275000000000000133,8.786597415274048473
0.276000000000000134,8.500413455247846528
0.277000000000000135,8.219638146389531386
0.278000000000000136,7.944130868389537525
0.279000000000000137,7.673759812577062078
0.280000000000000138,7.408401601165548023
0.281000000000000139,7.147940897824417661
0.282000000000000139,6.892270012202179608
0.283000000000000140,6.641288500842580156
0.284000000000000141,6.394902766754056778
0.285000000000000142,6.153025659713035722
0.286000000000000143,5.915576079205655979
0.287000000000000144,5.682478581741076340
0.288000000000000145,5.453662994102248973
0.289000000000000146,5.229064033939982536
0.290000000000000147,5.008620938960495650
0.291000000000000147,4.792277105809415794
0.292000000000000148,4.579979739613262879
0.293000000000000149,4.371679515006247740
0.294000000000000150,4.167330249343015325
0.295000000000000151,3.966888588679083227
0.296000000000000152,3.770313706988788205
0.297000000000000153,3.577567018986298031
0.298000000000000154,3.388611906818014941
0.299000000000000155,3.203413460804983348
0.300000000000000155,3.021938234330823203
0.301000000000000156,2.844154012895117045
0.302000000000000157,2.670029597282117528
0.303000000000000158,2.499534600732375988
0.304000000000000159,2.332639259947348442
0.305000000000000160,2.169314259706532244
0.306000000000000161,2.009530570830938778
0.307000000000000162,1.853259301186688690
0.308000000000000163,1.700471559387519704
0.309000000000000163,1.551138330824572975
0.310000000000000164,1.405230365625899314
0.311000000000000165,1.262718078126538357
0.312000000000000166,1.123571457412085417
0.313000000000000167,0.987759988484523510
0.314000000000000168,0.855252583588304360
0.315000000000000169,0.726017523226855976
0.316000000000000170,0.600022406394779440
0.317000000000000171,0.477234109548849428
0.318000000000000171,0.357618753840978409
0.319000000000000172,0.241141680138439257
0.320000000000000173,0.127767431361048928
0.321000000000000174,0.017459741670906182
0.322000000000000175,-0.089818467942313115
0.323000000000000176,-0.194105088128432468
0.324000000000000177,-0.295438814134203531
0.325000000000000178,-0.393859133677677165
0.326000000000000179,-0.489406310154420265
0.327000000000000179,-0.582121361577190077
0.328000000000000180,-0.672046035637478334
0.329000000000000181,-0.759222781263426905
0.330000000000000182,-0.843694717033781294
0.331000000000000183,-0.925505596793424035
0.332000000000000184,-1.004699772800580870
0.333000000000000185,-1.081322156720997851
0.334000000000000186,-1.155418178769276993
0.335000000000000187,-1.227033745282285704
0.336000000000000187,-1.296215194994876807
0.337000000000000188,-1.363009254272753656
0.338000000000000189,-1.427462991543240189
0.339000000000000190,-1.489623771149870324
0.340000000000000191,-1.549539206842532213
0.341000000000000192,-1.607257115101344613
0.342000000000000193,-1.662825468478571711
0.343000000000000194,-1.716292349130070338
0.344000000000000195,-1.767705902694522990
0.345000000000000195,-1.817114292667027176
0.346000000000000196,-1.864565655400972632
0.347000000000000197,-1.910108055861150289
0.348000000000000198,-1.953789444239728113
0.349000000000000199,-1.995657613536138797
0.350000000000000200,-2.035760158191911806
0.351000000000000201,-2.074144433861543568
0.352000000000000202,-2.110857518391414889
0.353000000000000203,-2.145946174069907730
0.354000000000000203,-2.179456811203540845
0.355000000000000204,-2.211435453065857981
0.356000000000000205,-2.241927702258537547
0.357000000000000206,-2.270978708517107147
0.358000000000000207,-2.298633137986667130
0.359000000000000208,-2.324935143987219011
0.360000000000000209,-2.349928339282161716
0.361000000000000210,-2.373655769857852871
0.362000000000000210,-2.396159890217430810
0.363000000000000211,-2.417482540186982387
0.364000000000000212,-2.437664923228040514
0.365000000000000213,-2.456747586246112114
0.366000000000000214,-2.474770400881400434
0.367000000000000215,-2.491772546264260590
0.368000000000000216,-2.507792493215086793
0.369000000000000217,-2.522867989865114957
0.370000000000000218,-2.537036048672428823
0.371000000000000218,-2.550332934804817153
0.372000000000000219,-2.562794155859319023
0.373000000000000220,-2.574454452886325129
0.374000000000000221,-2.585347792684523860
0.375000000000000222,-2.595507361331450102
0.376000000000000223,-2.604965558913550971
0.377000000000000224,-2.613753995418174991
0.378000000000000225,-2.621903487749440931
0.379000000000000226,-2.629444057828974390
0.380000000000000226,-2.636404931742323932
0.381000000000000227,-2.642814539890973258
0.382000000000000228,-2.648700518110180813
0.383000000000000229,-2.654089709712359912
0.384000000000000230,-2.659008168415774698
0.385000000000000231,-2.663481162118686463
0.386000000000000232,-2.667533177478851769
0.387000000000000233,-2.671187925259003393
0.388000000000000234,-2.674468346398936269
0.389000000000000234,-2.677396618775625736
0.390000000000000235,-2.679994164613014096
0.391000000000000236,-2.682281658503939958
0.392000000000000237,-2.684279036007107155
0.393000000000000238,-2.686005502782923493
0.394000000000000239,-2.687479544232525441
0.395000000000000240,-2.688718935605287630
0.396000000000000241,-2.689740752540836777
0.397000000000000242,-2.690561382012413905
0.398000000000000242,-2.691196533639418131
0.399000000000000243,-2.691661251337685634
0.400000000000000244,-2.691969925277115205
0.401000000000000245,-2.692136304117177747
0.402000000000000246,-2.692173507491594009
0.403000000000000247,-2.692094038714705206
0.404000000000000248,-2.691909797682758398
0.405000000000000249,-2.691632093944444470
0.406000000000000250,-2.691271659915851711
0.407000000000000250,-2.690838664216082865
0.408000000000000251,-2.690342725100615340
0.409000000000000252,-2.689792923970479421
0.410000000000000253,-2.689197818936261974
0.411000000000000254,-2.688565458416825926
0.412000000000000255,-2.687903394753560438
0.413000000000000256,-2.687218697821959879
0.414000000000000257,-2.686517968622954555
0.415000000000000258,-2.685807352837688455
0.416000000000000258,-2.685092554329818526
0.417000000000000259,-2.684378848580668553
0.418000000000000260,-2.683671096043058313
0.419000000000000261,-2.682973755400654525
0.420000000000000262,-2.682290896720274542
0.421000000000000263,-2.681626214485551163
0.422000000000000264,-2.680983040500813708
0.423000000000000265,-2.680364356655029479
0.424000000000000266,-2.679772807536251022
0.425000000000000266,-2.679210712887531542
0.426000000000000267,-2.678680079896208266
0.427000000000000268,-2.678182615308855485
0.428000000000000269,-2.677719737364899544
0.429000000000000270,-2.677292587542529301
0.430000000000000271,-2.676902042110978819
0.431000000000000272,-2.676548723483970438
0.432000000000000273,-2.676233011369439918
0.433000000000000274,-2.675955053711375875
0.434000000000000274,-2.675714777419936130
0.435000000000000275,-2.675511898886523632
0.436000000000000276,-2.675345934281006866
0.437000000000000277,-2.675216209628590747
0.438000000000000278,-2.675121870664334267
0.439000000000000279,-2.675061892463707736
0.440000000000000280,-2.675035088847872444
0.441000000000000281,-2.675040121562792361
0.442000000000000282,-2.675075509231676030
0.443000000000000282,-2.675139636080349437
0.444000000000000283,-2.675230760435803212
0.445000000000000284,-2.675347022998106450
0.446000000000000285,-2.675486454886342180
0.447000000000000286,-2.675646985459549931
0.448000000000000287,-2.675826449913582650
0.449000000000000288,-2.676022596655464714
0.450000000000000289,-2.676233094456593520
0.451000000000000290,-2.676455539386704885
0.452000000000000290,-2.676687461530495415
0.453000000000000291,-2.676926331488995281
0.454000000000000292,-2.677169566668062384
0.455000000000000293,-2.677414537356367141
0.456000000000000294,-2.677658572595488007
0.457000000000000295,-2.677898965844843548
0.458000000000000296,-2.678132980444249966
0.459000000000000297,-2.678357854877090993
0.460000000000000298,-2.678570807837121759
0.461000000000000298,-2.678769043102042335
0.462000000000000299,-2.678949754217061496
0.463000000000000300,-2.679110128991715190
0.464000000000000301,-2.679247353813335231
0.465000000000000302,-2.679358617780536189
0.466000000000000303,-2.679441116660199462
0.467000000000000304,-2.679492056671461064
0.468000000000000305,-2.679508658100221208
0.469000000000000306,-2.679488158747754145
0.470000000000000306,-2.679427817217049590
0.471000000000000307,-2.679324916040383808
0.472000000000000308,-2.679176764651868048
0.473000000000000309,-2.678980702208535014
0.474000000000000310,-2.678734100263573836
0.475000000000000311,-2.678434365295388808
0.476000000000000312,-2.678078941096081245
0.477000000000000313,-2.677665311022958683
0.478000000000000314,-2.677191000116624586
0.479000000000000314,-2.676653577089331826
0.480000000000000315,-2.676050656186999444
0.481000000000000316,-2.675379898928564870
0.482000000000000317,-2.674639015726043567
0.483000000000000318,-2.673825767388847474
0.484000000000000319,-2.672937966515747554
0.485000000000000320,-2.671973478777883937
0.486000000000000321,-2.670930224096191186
0.487000000000000322,-2.669806177716542717
0.488000000000000322,-2.668599371185844227
0.489000000000000323,-2.667307893232407690
0.490000000000000324,-2.665929890553669246
0.491000000000000325,-2.664463568514468861
0.492000000000000326,-2.662907191758903114
0.493000000000000327,-2.661259084738868630
0.494000000000000328,-2.659517632162196499
0.495000000000000329,-2.657681279363381499
0.496000000000000330,-2.655748532599699008
0.497000000000000330,-2.653717959275657901
0.498000000000000331,-2.651588188098388255
0.499000000000000332,-2.649357909166863756
0.500000000000000333,-2.647025873997503886
0.501000000000000334,-2.644590895488758697
0.502000000000000335,-2.642051847827301625
0.503000000000000336,-2.639407666338260405
0.504000000000000337,-2.636657347281955222
0.505000000000000338,-2.633799947599505309
0.506000000000000338,-2.630834584609657689
0.507000000000000339,-2.627760435659102889
0.508000000000000340,-2.624576737728444353
0.509000000000000341,-2.621282786996120162
0.510000000000000342,-2.617877938362185297
0.511000000000000343,-2.614361604934214434
0.512000000000000344,-2.610733257477150904
0.513000000000000345,-2.606992423829153527
0.514000000000000346,-2.603138688285343783
0.515000000000000346,-2.599171690951186608
0.516000000000000347,-2.595091127067393089
0.517000000000000348,-2.590896746308090748
0.518000000000000349,-2.586588352053838413
0.519000000000000350,-2.582165800641266440
0.520000000000000351,-2.577629000590799357
0.521000000000000352,-2.572977911814132490
0.522000000000000353,-2.568212544802807251
0.523000000000000353,-2.563332959799454969
0.524000000000000354,-2.558339265953064157
0.525000000000000355,-2.553231620459587070
0.526000000000000356,-2.548010227689245344
0.527000000000000357,-2.542675338301784826
0.528000000000000358,-2.537227248350883979
0.529000000000000359,-2.531666298378923763
0.530000000000000360,-2.525992872503208364
0.531000000000000361,-2.520207397494792723
0.532000000000000361,-2.514310341850931607
0.533000000000000362,-2.508302214862186297
0.534000000000000363,-2.502183565675137888
0.535000000000000364,-2.495954982351709983
0.536000000000000365,-2.489617090925928977
0.537000000000000366,-2.483170554459069201
0.538000000000000367,-2.476616072093907217
0.539000000000000368,-2.469954378109057380
0.540000000000000369,-2.463186240973939345
0.541000000000000369,-2.456312462405327857
0.542000000000000370,-2.449333876425992429
0.543000000000000371,-2.442251348426243140
0.544000000000000372,-2.435065774228942992
0.545000000000000373,-2.427778079158644964
0.546000000000000374,-2.420389217115379576
0.547000000000000375,-2.412900169653696469
0.548000000000000376,-2.405311945067493795
0.549000000000000377,-2.397625577481075076
0.550000000000000377,-2.389842125946982421
0.551000000000000378,-2.381962673550988008
0.552000000000000379,-2.373988326524743009
0.553000000000000380,-2.365920213366421887
0.554000000000000381,-2.357759483969742664
0.555000000000000382,-2.349507308761827673
0.556000000000000383,-2.341164877850041570
0.557000000000000384,-2.332733400178359506
0.558000000000000385,-2.324214102693324957
0.559000000000000385,-2.315608229520069727
0.560000000000000386,-2.306917041148534686
0.561000000000000387,-2.298141813630161234
0.562000000000000388,-2.289283837785272890
0.563000000000000389,-2.280344418421383246
0.564000000000000390,-2.271324873562543978
0.565000000000000391,-2.262226533689974950
0.566000000000000392,-2.253050740994085643
0.567000000000000393,-2.243798848638076215
0.568000000000000393,-2.234472220033165257
0.569000000000000394,-2.225072228125630769
0.570000000000000395,-2.215600254695762050
0.571000000000000396,-2.206057689668710964
0.572000000000000397,-2.196445930437472605
0.573000000000000398,-2.186766381197900788
0.574000000000000399,-2.177020452295936437
0.575000000000000400,-2.167209559586981804
0.576000000000000401,-2.157335123807516908
0.577000000000000401,-2.147398569958994141
0.578000000000000402,-2.137401326703923576
0.579000000000000403,-2.127344825774233339
0.580000000000000404,-2.117230501391905051
0.581000000000000405,-2.107059789701766661
0.582000000000000406,-2.096834128216551463
0.583000000000000407,-2.086554955274059431
0.584000000000000408,-2.076223709506489712
0.585000000000000409,-2.065841829321814149
0.586000000000000409,-2.055410752397177632
0.587000000000000410,-2.044931915184286630
0.588000000000000411,-2.034406752426616283
0.589000000000000412,-2.023836696688530168
0.590000000000000413,-2.013223177896048099
0.591000000000000414,-2.002567622889318333
0.592000000000000415,-1.991871454986660295
0.593000000000000416,-1.981136093560037281
0.594000000000000417,-1.970362953621923596
0.595000000000000417,-1.959553445423492857
0.596000000000000418,-1.948708974063855681
0.597000000000000419,-1.937830939110493089
0.598000000000000420,-1.926920734230506582
0.599000000000000421,-1.915979746832793484
0.600000000000000422,-1.905009357720864882
0.601000000000000423,-1.894010940756276851
0.602000000000000424,-1.882985862532520205
0.603000000000000425,-1.871935482059259304
0.604000000000000425,-1.860861150456732727
0.605000000000000426,-1.849764210660264752
0.606000000000000427,-1.838645997134751298
0.607000000000000428,-1.827507835598829455
0.608000000000000429,-1.816351042758900247
0.609000000000000430,-1.805176926052495689
0.610000000000000431,-1.793986783401200213
0.611000000000000432,-1.782781902972734089
0.612000000000000433,-1.771563562952167548
0.613000000000000433,-1.760333031322145469
