# Gypsum-010_GUANINEKETO
# h[nm],U(h)[kJ/mol]
0.149999999999999994,159.101803748394672766
0.150999999999999995,156.441781655511078952
0.151999999999999996,153.474634049143190850
0.152999999999999997,150.467183627882207020
0.153999999999999998,147.516972859738643820
0.154999999999999999,144.643510283268113881
0.156000000000000000,141.836511449354787828
0.157000000000000001,139.079287061509319301
0.158000000000000002,136.358427562172551006
0.159000000000000002,133.666442234271585221
0.160000000000000003,131.001181973146515247
0.161000000000000004,128.364132759089528690
0.162000000000000005,125.758625063788286980
0.163000000000000006,123.188405937523882017
0.164000000000000007,120.656696384553555390
0.165000000000000008,118.165697309598641596
0.166000000000000009,115.716443021849315187
0.167000000000000010,113.308888517613496560
0.168000000000000010,110.942129192670222437
0.169000000000000011,108.614673944010334594
0.170000000000000012,106.324716421621886298
0.171000000000000013,104.070370338674550226
0.172000000000000014,101.849851595843418295
0.173000000000000015,99.661602267080525053
0.174000000000000016,97.504359680005308064
0.175000000000000017,95.377178649217370321
0.176000000000000018,93.279417191232994355
0.177000000000000018,91.210696509685760702
0.178000000000000019,89.170845316406570191
0.179000000000000020,87.159837143179487384
0.180000000000000021,85.177727569239294780
0.181000000000000022,83.224596499889599954
0.182000000000000023,81.300498951196374264
0.183000000000000024,79.405426324088509205
0.184000000000000025,77.539278936368972950
0.185000000000000026,75.701849634826970714
0.186000000000000026,73.892817619582700672
0.187000000000000027,72.111751152235612494
0.188000000000000028,70.358117554078944522
0.189000000000000029,68.631298793852167250
0.190000000000000030,66.930610980342109428
0.191000000000000031,65.255326180679020354
0.192000000000000032,63.604695151592899549
0.193000000000000033,61.977969773982977131
0.194000000000000034,60.374424201351814645
0.195000000000000034,58.793373954764639677
0.196000000000000035,57.234192409763203102
0.197000000000000036,55.696324316232320939
0.198000000000000037,54.179296165577468969
0.199000000000000038,52.682723368017619237
0.200000000000000039,51.206314325431051770
0.201000000000000040,49.749871582467100950
0.202000000000000041,48.313290311995203297
0.203000000000000042,46.896554442495030912
0.204000000000000042,45.499730767187067215
0.205000000000000043,44.122961390246743463
0.206000000000000044,42.766454867044778609
0.207000000000000045,41.430476385647160953
0.208000000000000046,40.115337318250595899
0.209000000000000047,38.821384446069103547
0.210000000000000048,37.548989131419439502
0.211000000000000049,36.298536678108121123
0.212000000000000050,35.070416087167693320
0.213000000000000050,33.865010380741018992
0.214000000000000051,32.682687633444842845
0.215000000000000052,31.523792818619529754
0.216000000000000053,30.388640547060170150
0.217000000000000054,29.277508748522848236
0.218000000000000055,28.190633321765080410
0.219000000000000056,27.128203757245795913
0.220000000000000057,26.090359717905517556
0.221000000000000058,25.077188547635028470
0.222000000000000058,24.088723663997548385
0.223000000000000059,23.124943781351515071
0.224000000000000060,22.185772902528583472
0.225000000000000061,21.271081011446533182
0.226000000000000062,20.380685395253205883
0.227000000000000063,19.514352522574274218
0.228000000000000064,18.671800403949923464
0.229000000000000065,17.852701361366211330
0.230000000000000066,17.056685135712534418
0.231000000000000066,16.283342263821644735
0.232000000000000067,15.532227660297342808
0.233000000000000068,14.802864343435279793
0.234000000000000069,14.094747249048362292
0.235000000000000070,13.407347080784765225
0.236000000000000071,12.740114150458939690
0.237000000000000072,12.092482166901124430
0.238000000000000073,11.463871936785483996
0.239000000000000073,10.853694945749589706
0.240000000000000074,10.261356792805555571
0.241000000000000075,9.686260455525667723
0.242000000000000076,9.127809367720479017
0.243000000000000077,8.585410295290747840
0.244000000000000078,8.058475999608083029
0.245000000000000079,7.546427681149705968
0.246000000000000080,7.048697199177373029
0.247000000000000081,6.564729066006547598
0.248000000000000081,6.093982216867226853
0.249000000000000082,5.635931558518302076
0.250000000000000111,5.190069301654804512
0.251000000000000112,4.755906083756051395
0.252000000000000113,4.332971890375473478
0.253000000000000114,3.920816783990650922
0.254000000000000115,3.519011450425483023
0.255000000000000115,3.127147573549853288
0.256000000000000116,2.744838049467988483
0.257000000000000117,2.371717051745400706
0.258000000000000118,2.007439959412896879
0.259000000000000119,1.651683159539450774
0.260000000000000120,1.304143736101315953
0.261000000000000121,0.964539056708152431
0.262000000000000122,0.632606268490041423
0.263000000000000123,0.308101714118833525
0.264000000000000123,-0.009199721457877142
0.265000000000000124,-0.319505323436749089
0.266000000000000125,-0.623005309086639647
0.267000000000000126,-0.919873630055808356
0.268000000000000127,-1.210268806471392011
0.269000000000000128,-1.494334784799161708
0.270000000000000129,-1.772201811996045651
0.271000000000000130,-2.043987319053996110
0.272000000000000131,-2.309796807596369739
0.273000000000000131,-2.569724733743057321
0.274000000000000132,-2.823855384003629787
0.275000000000000133,-3.072263738485965678
0.276000000000000134,-3.315016317217847508
0.277000000000000135,-3.552172005868685201
0.278000000000000136,-3.783782857627092433
0.279000000000000137,-4.009894868434370707
0.280000000000000138,-4.230548723194417882
0.281000000000000139,-4.445780510976345745
0.282000000000000139,-4.655622407596042400
0.283000000000000140,-4.860103324308072459
0.284000000000000141,-5.059249521658668591
0.285000000000000142,-5.253085187845629278
0.286000000000000143,-5.441632981201193431
0.287000000000000144,-5.624914536660379660
0.288000000000000145,-5.802950936301590978
0.289000000000000146,-5.975763144246937664
0.290000000000000147,-6.143372406390880336
0.291000000000000147,-6.305800615585341440
0.292000000000000148,-6.463070643050876640
0.293000000000000149,-6.615206636905877069
0.294000000000000150,-6.762234288811815652
0.295000000000000151,-6.904181069822366013
0.296000000000000152,-7.041076436598925348
0.297000000000000153,-7.172952009216250424
0.298000000000000154,-7.299841721830091501
0.299000000000000155,-7.421781947515100342
0.300000000000000155,-7.538811598606912412
0.301000000000000156,-7.650972203897845603
0.302000000000000157,-7.758307964042650440
0.303000000000000158,-7.860865786529072530
0.304000000000000159,-7.958695301559544077
0.305000000000000160,-8.051848860174940725
0.306000000000000161,-8.140381515930624090
0.307000000000000162,-8.224350991408879707
0.308000000000000163,-8.303817630821503926
0.309000000000000163,-8.378844339922022044
0.310000000000000164,-8.449496514409826631
0.311000000000000165,-8.515841957968078191
0.312000000000000166,-8.577950791035263478
0.313000000000000167,-8.635895351365821426
0.314000000000000168,-8.689750087390134325
0.315000000000000169,-8.739591445337520526
0.316000000000000170,-8.785497751039020642
0.317000000000000171,-8.827549087279235707
0.318000000000000171,-8.865827167519009677
0.319000000000000172,-8.900415206763884868
0.320000000000000173,-8.931397790306002449
0.321000000000000174,-8.958860741021307916
0.322000000000000175,-8.982890985858427157
0.323000000000000176,-9.003576422111255084
0.324000000000000177,-9.021005784023934382
0.325000000000000178,-9.035268510234699235
0.326000000000000179,-9.046454612524531314
0.327000000000000179,-9.054654546296720952
0.328000000000000180,-9.059959083175606054
0.329000000000000181,-9.062459186076383233
0.330000000000000182,-9.062245887062223559
0.331000000000000183,-9.059410168272361119
0.332000000000000184,-9.054042846171856951
0.333000000000000185,-9.046234459344134393
0.334000000000000186,-9.036075160018153696
0.335000000000000187,-9.023654609494776935
0.336000000000000187,-9.009061877611459934
0.337000000000000188,-8.992385346359526466
0.338000000000000189,-8.973712617746178566
0.339000000000000190,-8.953130425971604467
0.340000000000000191,-8.930724553971561619
0.341000000000000192,-8.906579754357736078
0.342000000000000193,-8.880779674770248988
0.343000000000000194,-8.853406787641432629
0.344000000000000195,-8.824542324354545997
0.345000000000000195,-8.794266213768320739
0.346000000000000196,-8.762657025065204053
0.347000000000000197,-8.729791914870272507
0.348000000000000198,-8.695746578577404406
0.349000000000000199,-8.660595205810011521
0.350000000000000200,-8.624410439935493500
0.351000000000000201,-8.587263341545025241
0.352000000000000202,-8.549223355803782454
0.353000000000000203,-8.510358283571102689
0.354000000000000203,-8.470734256184989874
0.355000000000000204,-8.430415713801069799
0.356000000000000205,-8.389465387172696964
0.357000000000000206,-8.347944282755971557
0.358000000000000207,-8.305911671020721698
0.359000000000000208,-8.263425077847193378
0.360000000000000209,-8.220540278886682373
0.361000000000000210,-8.177311296763308590
0.362000000000000210,-8.133790400994222125
0.363000000000000211,-8.090028110505109282
0.364000000000000212,-8.046073198618652000
0.365000000000000213,-8.001972700393992000
0.366000000000000214,-7.957771922196636538
0.367000000000000215,-7.913514453379275615
0.368000000000000216,-7.869242179955945105
0.369000000000000217,-7.824995300153362976
0.370000000000000218,-7.780812341725765080
0.371000000000000218,-7.736730180921398414
0.372000000000000219,-7.692784062991478322
0.373000000000000220,-7.649007624134891437
0.374000000000000221,-7.605432914774485020
0.375000000000000222,-7.562090424063623750
0.376000000000000223,-7.519009105524649961
0.377000000000000224,-7.476216403723563886
0.378000000000000225,-7.433738281888468080
0.379000000000000226,-7.391599250382197006
0.380000000000000226,-7.349822395942789299
0.381000000000000227,-7.308429411608234894
0.382000000000000228,-7.267440627245480123
0.383000000000000229,-7.226875040606381972
0.384000000000000230,-7.186750348836524083
0.385000000000000231,-7.147082980366069371
0.386000000000000232,-7.107888127114546428
0.387000000000000233,-7.069179776944790383
0.388000000000000234,-7.030970746304001651
0.389000000000000234,-6.993272712993137574
0.390000000000000235,-6.956096249008341559
0.391000000000000236,-6.919450853401393431
0.392000000000000237,-6.883344985108593050
0.393000000000000238,-6.847786095700530318
0.394000000000000239,-6.812780662007535071
0.395000000000000240,-6.778334218578588199
0.396000000000000241,-6.744451389933669994
0.397000000000000242,-6.711135922572163182
0.398000000000000242,-6.678390716702407914
0.399000000000000243,-6.646217857659571848
0.400000000000000244,-6.614618646981490713
0.401000000000000245,-6.583593633114349863
0.402000000000000246,-6.553142641721865225
0.403000000000000247,-6.523264805574052971
0.404000000000000248,-6.493958593993395034
0.405000000000000249,-6.465221841838209471
0.406000000000000250,-6.437051778004767577
0.407000000000000250,-6.409445053431556794
0.408000000000000251,-6.382397768590643672
0.409000000000000252,-6.355905500452842638
0.410000000000000253,-6.329963328914780973
0.411000000000000254,-6.304565862677543819
0.412000000000000255,-6.279707264567880642
0.413000000000000256,-6.255381276294454729
0.414000000000000257,-6.231581242632636020
0.415000000000000258,-6.208300135032868816
0.416000000000000258,-6.185530574648459456
0.417000000000000259,-6.163264854780051039
0.418000000000000260,-6.141494962734770802
0.419000000000000261,-6.120212601099302319
0.420000000000000262,-6.099409208426765261
0.421000000000000263,-6.079075979338544933
0.422000000000000264,-6.059203884042476673
0.423000000000000265,-6.039783687270118051
0.424000000000000266,-6.020805966636301854
0.425000000000000266,-6.002261130424685120
0.426000000000000267,-5.984139434803966928
0.427000000000000268,-5.966431000479820668
0.428000000000000269,-5.949125828788130121
0.429000000000000270,-5.932213817235742148
0.430000000000000271,-5.915684774495255205
0.431000000000000272,-5.899528434860985548
0.432000000000000273,-5.883734472173379082
0.433000000000000274,-5.868292513219797613
0.434000000000000274,-5.853192150619682899
0.435000000000000275,-5.838422955202517528
0.436000000000000276,-5.823974487887284113
0.437000000000000277,-5.809836311072229087
0.438000000000000278,-5.795997999544118429
0.439000000000000279,-5.782449150916246339
0.440000000000000280,-5.769179395604603577
0.441000000000000281,-5.756178406351803112
0.442000000000000282,-5.743435907308528598
0.443000000000000282,-5.730941682682113125
0.444000000000000283,-5.718685584962312163
0.445000000000000284,-5.706657542734030031
0.446000000000000285,-5.694847568086939482
0.447000000000000286,-5.683245763632130299
0.448000000000000287,-5.671842329135492022
0.449000000000000288,-5.660627567778017344
0.450000000000000289,-5.649591892052812980
0.451000000000000290,-5.638725829308737225
0.452000000000000290,-5.628020026950586896
0.453000000000000291,-5.617465257305455317
0.454000000000000292,-5.607052422165137884
0.455000000000000293,-5.596772557014068283
0.456000000000000294,-5.586616834952406130
0.457000000000000295,-5.576576570323691584
0.458000000000000296,-5.566643222056350204
0.459000000000000297,-5.556808396728329491
0.460000000000000298,-5.547063851363907006
0.461000000000000298,-5.537401495971653986
0.462000000000000299,-5.527813395832402499
0.463000000000000300,-5.518291773545864309
0.464000000000000301,-5.508829010844539020
0.465000000000000302,-5.499417650183243467
0.466000000000000303,-5.490050396112552633
0.467000000000000304,-5.480720116444300238
0.468000000000000305,-5.471419843217036671
0.469000000000000306,-5.462142773469262025
0.470000000000000306,-5.452882269828160489
0.471000000000000307,-5.443631860921135157
0.472000000000000308,-5.434385241617686546
0.473000000000000309,-5.425136273108636331
0.474000000000000310,-5.415878982829751109
0.475000000000000311,-5.406607564236615815
0.476000000000000312,-5.397316376437411911
0.477000000000000313,-5.387999943690136462
0.478000000000000314,-5.378652954770535288
0.479000000000000314,-5.369270262217087364
0.480000000000000315,-5.359846881458885548
0.481000000000000316,-5.350377989832454162
0.482000000000000317,-5.340858925493082054
0.483000000000000318,-5.331285186226295991
0.484000000000000319,-5.321652428164843407
0.485000000000000320,-5.311956464416445201
0.486000000000000321,-5.302193263607397178
0.487000000000000322,-5.292358948346967296
0.488000000000000322,-5.282449793617319145
0.489000000000000323,-5.272462225093751620
0.490000000000000324,-5.262392817399583755
0.491000000000000325,-5.252238292300167366
0.492000000000000326,-5.241995516840145086
0.493000000000000327,-5.231661501428138905
0.494000000000000328,-5.221233397872699911
0.495000000000000329,-5.210708497373435222
0.496000000000000330,-5.200084228470865710
0.497000000000000330,-5.189358154958740421
0.498000000000000331,-5.178527973761999803
0.499000000000000332,-5.167591512783905827
0.500000000000000333,-5.156546728725418305
0.501000000000000334,-5.145391704879829220
0.502000000000000335,-5.134124648905711297
0.503000000000000336,-5.122743890580943926
0.504000000000000337,-5.111247879540545824
0.505000000000000338,-5.099635183000935434
0.506000000000000338,-5.087904483473133510
0.507000000000000339,-5.076054576467294410
0.508000000000000340,-5.064084368190863827
0.509000000000000341,-5.051992873242637572
0.510000000000000342,-5.039779212304712708
0.511000000000000343,-5.027442609834471554
0.512000000000000344,-5.014982391758421976
0.513000000000000345,-5.002397983169798223
0.514000000000000346,-4.989688906031680915
0.515000000000000346,-4.976854776887250864
0.516000000000000347,-4.963895304578783474
0.517000000000000348,-4.950810287976976198
0.518000000000000349,-4.937599613721888048
0.519000000000000350,-4.924263253976998378
0.520000000000000351,-4.910801264197582228
0.521000000000000352,-4.897213780914677628
0.522000000000000353,-4.883501019535740895
0.523000000000000353,-4.869663272163100132
0.524000000000000354,-4.855700905431281633
0.525000000000000355,-4.841614358364054738
0.526000000000000356,-4.827404140252200548
0.527000000000000357,-4.813070828552815428
0.528000000000000358,-4.798615066810902441
0.529000000000000359,-4.784037562604054550
0.530000000000000360,-4.769339085510839737
0.531000000000000361,-4.754520465103579063
0.532000000000000361,-4.739582588966076315
0.533000000000000362,-4.724526400736848153
0.534000000000000363,-4.709352898178321034
0.535000000000000364,-4.694063131272510958
0.536000000000000365,-4.678658200343505769
0.537000000000000366,-4.663139254207221640
0.538000000000000367,-4.647507488348641580
0.539000000000000368,-4.631764143126996025
0.540000000000000369,-4.615910502008942373
0.541000000000000369,-4.599947889830181325
0.542000000000000370,-4.583877671085519800
0.543000000000000371,-4.567701248247646006
0.544000000000000372,-4.551420060114743649
0.545000000000000373,-4.535035580186995041
0.546000000000000374,-4.518549315072102779
0.547000000000000375,-4.501962802919820206
0.548000000000000376,-4.485277611885609694
0.549000000000000377,-4.468495338623325708
0.550000000000000377,-4.451617606806954619
0.551000000000000378,-4.434646065681344673
0.552000000000000379,-4.417582388641919877
0.553000000000000380,-4.400428271843180639
0.554000000000000381,-4.383185432835984052
0.555000000000000382,-4.365855609233486589
0.556000000000000383,-4.348440557405487183
0.557000000000000384,-4.330942051201206233
0.558000000000000385,-4.313361880700132822
0.559000000000000385,-4.295701850990932158
0.560000000000000386,-4.277963780978089936
0.561000000000000387,-4.260149502216143524
0.562000000000000388,-4.242260857771254834
0.563000000000000389,-4.224299701109929472
0.564000000000000390,-4.206267895014570435
0.565000000000000391,-4.188167310525683362
0.566000000000000392,-4.169999825910418068
0.567000000000000393,-4.151767325657223395
0.568000000000000393,-4.133471699496269913
0.569000000000000394,-4.115114841445416616
0.570000000000000395,-4.096698648881426763
0.571000000000000396,-4.078225021636030512
0.572000000000000397,-4.059695861116709992
0.573000000000000398,-4.041113069451712114
0.574000000000000399,-4.022478548659103481
0.575000000000000400,-4.003794199839465051
0.576000000000000401,-3.985061922391935241
0.577000000000000401,-3.966283613253330120
0.578000000000000402,-3.947461166159873081
0.579000000000000403,-3.928596470931319917
0.580000000000000404,-3.909691412777132058
0.581000000000000405,-3.890747871624275156
0.582000000000000406,-3.871767721466417012
0.583000000000000407,-3.852752829734076734
0.584000000000000408,-3.833705056685494661
0.585000000000000409,-3.814626254817775841
0.586000000000000409,-3.795518268298022413
0.587000000000000410,-3.776382932414135585
0.588000000000000411,-3.757222073044848454
0.589000000000000412,-3.738037506148789824
0.590000000000000413,-3.718831037272081197
0.591000000000000414,-3.699604461074248007
0.592000000000000415,-3.680359560872082714
0.593000000000000416,-3.661098108201042756
0.594000000000000417,-3.641821862393931131
0.595000000000000417,-3.622532570176561162
0.596000000000000418,-3.603231965279886762
0.597000000000000419,-3.583921768068530689
0.598000000000000420,-3.564603685185127269
0.599000000000000421,-3.545279409210356114
0.600000000000000422,-3.525950618338208109
0.601000000000000423,-3.506618976066222082
0.602000000000000424,-3.487286130900380865
0.603000000000000425,-3.467953716074327453
0.604000000000000425,-3.448623349282566863
0.605000000000000426,-3.429296632427409008
0.606000000000000427,-3.409975151379327052
0.607000000000000428,-3.390660475750308933
0.608000000000000429,-3.371354158680159863
0.609000000000000430,-3.352057736635140284
0.610000000000000431,-3.332772729218949959
0.611000000000000432,-3.313500638995532377
0.612000000000000433,-3.294242951323528956
0.613000000000000433,-3.275001134202121911
