# Gypsum-010_URACILLACTAM
# h[nm],U(h)[kJ/mol]
0.149999999999999994,144.320133317822808294
0.150999999999999995,141.351030117858670110
0.151999999999999996,138.665496686092353684
0.152999999999999997,136.081312777969145600
0.153999999999999998,133.536889507727806858
0.154999999999999999,131.022031366671257047
0.156000000000000000,128.543333462977187764
0.157000000000000001,126.108807445024268645
0.158000000000000002,123.722552465953796741
0.159000000000000002,121.384185545777384618
0.160000000000000003,119.090134705950873695
0.161000000000000004,116.835321799782562380
0.162000000000000005,114.614578561598221995
0.163000000000000006,112.423582806796304112
0.164000000000000007,110.259322218146394334
0.165000000000000008,108.120185708117261925
0.166000000000000009,106.005805646712516932
0.167000000000000010,103.916763534867754970
0.168000000000000010,101.854247319837838859
0.169000000000000011,99.819721543698875621
0.170000000000000012,97.814647322318620581
0.171000000000000013,95.840269930480332050
0.172000000000000014,93.897477880769187664
0.173000000000000015,91.986728292992594902
0.174000000000000016,90.108028154793231579
0.175000000000000017,88.260958801408165186
0.176000000000000018,86.444730705389090986
0.177000000000000018,84.658256726651401891
0.178000000000000019,82.900233755406389946
0.179000000000000020,81.169224765694991675
0.180000000000000021,79.463735397743448630
0.181000000000000022,77.782281121366892762
0.182000000000000023,76.123442698829592246
0.183000000000000024,74.485909020763386934
0.184000000000000025,72.868507429550689380
0.185000000000000026,71.270222392852033977
0.186000000000000026,69.690203881912708539
0.187000000000000027,68.127767087606926566
0.188000000000000028,66.582385215640528031
0.189000000000000029,65.053677082299586232
0.190000000000000030,63.541391120527727310
0.191000000000000031,62.045387234437455959
0.192000000000000032,60.565617734396504090
0.193000000000000033,59.102108364871767776
0.194000000000000034,57.654940218544858510
0.195000000000000034,56.224233123743111662
0.196000000000000035,54.810130905207032015
0.197000000000000036,53.412788754901988852
0.198000000000000037,52.032362811908001277
0.199000000000000038,50.669001938547857833
0.200000000000000039,49.322841592738761562
0.201000000000000040,47.993999632102259056
0.202000000000000041,46.682573841146663085
0.203000000000000042,45.388640946083626204
0.204000000000000042,44.112256869714443042
0.205000000000000043,42.853457978572244258
0.206000000000000044,41.612263083541094488
0.207000000000000045,40.388675971155194588
0.208000000000000046,39.182688263640095272
0.209000000000000047,37.994282429716598415
0.210000000000000048,36.823434793758437422
0.211000000000000049,35.670118416864745825
0.212000000000000050,34.534305748815100401
0.213000000000000050,33.415970973996380167
0.214000000000000051,32.315091996689467635
0.215000000000000052,31.231652031232734146
0.216000000000000053,30.165640780323464298
0.217000000000000054,29.117055199989938075
0.218000000000000055,28.085899862568851404
0.219000000000000056,27.072186939438456221
0.220000000000000057,26.075935833413637965
0.221000000000000058,25.097172496790893348
0.222000000000000058,24.135928475223387579
0.223000000000000059,23.192239720135670922
0.224000000000000060,22.266145213462987584
0.225000000000000061,21.357685448341481305
0.226000000000000062,20.466900808190409577
0.227000000000000063,19.593829884610908465
0.228000000000000064,18.738507771861257822
0.229000000000000065,17.900964372516927625
0.230000000000000066,17.081222745437507626
0.231000000000000066,16.279297523465523057
0.232000000000000067,15.495193424490661727
0.233000000000000068,14.728903875717994865
0.234000000000000069,13.980409767262196752
0.235000000000000070,13.249678347612771745
0.236000000000000071,12.536662270130941366
0.237000000000000072,11.841298796581895658
0.238000000000000073,11.163509160806906806
0.239000000000000073,10.503198093015777559
0.240000000000000074,9.860253502836817674
0.241000000000000075,9.234546317208733868
0.242000000000000076,8.625930467427066262
0.243000000000000077,8.034243018162388950
0.244000000000000078,7.459304430036503675
0.245000000000000079,6.900918946361184858
0.246000000000000080,6.358875093896052100
0.247000000000000081,5.832946286947792380
0.248000000000000081,5.322891523795965085
0.249000000000000082,4.828456164269467443
0.250000000000000111,4.349372777293320169
0.251000000000000112,3.885362047359838478
0.252000000000000113,3.436133729130209424
0.253000000000000114,3.001387639729102830
0.254000000000000115,2.580814678732637368
0.255000000000000115,2.174097866360287234
0.256000000000000116,1.780913390943770880
0.257000000000000117,1.400931657350763748
0.258000000000000118,1.033818328675649934
0.259000000000000119,0.679235354161208393
0.260000000000000120,0.336841976975935709
0.261000000000000121,0.006295716133137194
0.262000000000000122,-0.312746682509035256
0.263000000000000123,-0.620628330586692201
0.264000000000000123,-0.917691320708254432
0.265000000000000124,-1.204275892273059423
0.266000000000000125,-1.480719642262236624
0.267000000000000126,-1.747356783092568921
0.268000000000000127,-2.004517449116285377
0.269000000000000128,-2.252527052874392588
0.270000000000000129,-2.491705691771264330
0.271000000000000130,-2.722367605433208659
0.272000000000000131,-2.944820683643529780
0.273000000000000131,-3.159366024411572660
0.274000000000000132,-3.366297541431899187
0.275000000000000133,-3.565901619922227095
0.276000000000000134,-3.758456819592765896
0.277000000000000135,-3.944233623294286950
0.278000000000000136,-4.123494229717022286
0.279000000000000137,-4.296492388364046455
0.280000000000000138,-4.463473274900850996
0.281000000000000139,-4.624673404885450090
0.282000000000000139,-4.780320583808140178
0.283000000000000140,-4.930633891316319684
0.284000000000000141,-5.075823697464701745
0.285000000000000142,-5.216091708814277084
0.286000000000000143,-5.351631042201959509
0.287000000000000144,-5.482626324015523522
0.288000000000000145,-5.609253812834861463
0.289000000000000146,-5.731681543336661022
0.290000000000000147,-5.850069489407490053
0.291000000000000147,-5.964569744465013201
0.292000000000000148,-6.075326717050598013
0.293000000000000149,-6.182477339825120488
0.294000000000000150,-6.286151290174252892
0.295000000000000151,-6.386471220707778507
0.296000000000000152,-6.483552998018806690
0.297000000000000153,-6.577505948152763793
0.298000000000000154,-6.668433107321240172
0.299000000000000155,-6.756431476482182674
0.300000000000000155,-6.841592278494329271
0.301000000000000156,-6.924001216639831924
0.302000000000000157,-7.003738733394621718
0.303000000000000158,-7.080880268409822875
0.304000000000000159,-7.155496514750154802
0.305000000000000160,-7.227653672515441663
0.306000000000000161,-7.297413699049658753
0.307000000000000162,-7.364834555017464091
0.308000000000000163,-7.429970445700964987
0.309000000000000163,-7.492872056939498648
0.310000000000000164,-7.553586785202260678
0.311000000000000165,-7.612158961347300412
0.312000000000000166,-7.668630067681272422
0.313000000000000167,-7.723038947991708092
0.314000000000000168,-7.775422010277843299
0.315000000000000169,-7.825813421957050764
0.316000000000000170,-7.874245297371990304
0.317000000000000171,-7.920747877467904985
0.318000000000000171,-7.965349701551336814
0.319000000000000172,-8.008077771080190033
0.320000000000000173,-8.048957705470416002
0.321000000000000174,-8.088013889937469614
0.322000000000000175,-8.125269615420828373
0.323000000000000176,-8.160747210666897900
0.324000000000000177,-8.194468166570645806
0.325000000000000178,-8.226453252898327406
0.326000000000000179,-8.256722627534067271
0.327000000000000179,-8.285295938410245142
0.328000000000000180,-8.312192418297691177
0.329000000000000181,-8.337430972645222482
0.330000000000000182,-8.361030260669570779
0.331000000000000183,-8.383008769907096536
0.332000000000000184,-8.403384884446669645
0.333000000000000185,-8.422176947069967667
0.334000000000000186,-8.439403315530865868
0.335000000000000187,-8.455082413209265013
0.336000000000000187,-8.469232774377877249
0.337000000000000188,-8.481873084321394529
0.338000000000000189,-8.493022214548695104
0.339000000000000190,-8.502699253337855367
0.340000000000000191,-8.510923531852327528
0.341000000000000192,-8.517714646064916906
0.342000000000000193,-8.523092474722872680
0.343000000000000194,-8.527077193584350567
0.344000000000000195,-8.529689286151802108
0.345000000000000195,-8.530949551124038521
0.346000000000000196,-8.530879106782908394
0.347000000000000197,-8.529499392525588419
0.348000000000000198,-8.526832167747446789
0.349000000000000199,-8.522899508274463187
0.350000000000000200,-8.517723800537915224
0.351000000000000201,-8.511327733677401142
0.352000000000000202,-8.503734289751733399
0.353000000000000203,-8.494966732230478712
0.354000000000000203,-8.485048592931995870
0.355000000000000204,-8.474003657566866465
0.356000000000000205,-8.461855950038943419
0.357000000000000206,-8.448629715649165206
0.358000000000000207,-8.434349403340251072
0.359000000000000208,-8.419039647114034963
0.360000000000000209,-8.402725246746047816
0.361000000000000210,-8.385431147915445749
0.362000000000000210,-8.367182421862025876
0.363000000000000211,-8.348004244675317764
0.364000000000000212,-8.327921876314915650
0.365000000000000213,-8.306960639454658235
0.366000000000000214,-8.285145898237676221
0.367000000000000215,-8.262503037023243735
0.368000000000000216,-8.239057439201051380
0.369000000000000217,-8.214834466142740155
0.370000000000000218,-8.189859436355634514
0.371000000000000218,-8.164157604898177212
0.372000000000000219,-8.137754143112022831
0.373000000000000220,-8.110674118720835324
0.374000000000000221,-8.082942476341436588
0.375000000000000222,-8.054584018448448290
0.376000000000000223,-8.025623386829854766
0.377000000000000224,-7.996085044566458855
0.378000000000000225,-7.965993258564862955
0.379000000000000226,-7.935372082669732485
0.380000000000000226,-7.904245341378057788
0.381000000000000227,-7.872636614174426839
0.382000000000000228,-7.840569220503835979
0.383000000000000229,-7.808066205395246762
0.384000000000000230,-7.775150325746523094
0.385000000000000231,-7.741844037279091317
0.386000000000000232,-7.708169482167797071
0.387000000000000233,-7.674148477349639563
0.388000000000000234,-7.639802503512635568
0.389000000000000234,-7.605152694764420573
0.390000000000000235,-7.570219828978084209
0.391000000000000236,-7.535024318811281319
0.392000000000000237,-7.499586203392951234
0.393000000000000238,-7.463925140670719216
0.394000000000000239,-7.428060400410478437
0.395000000000000240,-7.392010857838752891
0.396000000000000241,-7.355794987917105843
0.397000000000000242,-7.319430860236953329
0.398000000000000242,-7.282936134522311811
0.399000000000000243,-7.246328056727072919
0.400000000000000244,-7.209623455712730333
0.401000000000000245,-7.172838740492030851
0.402000000000000246,-7.135989898023098021
0.403000000000000247,-7.099092491538442573
0.404000000000000248,-7.062161659392752533
0.405000000000000249,-7.025212114412961562
0.406000000000000250,-6.988258143733864003
0.407000000000000250,-6.951313609102372837
0.408000000000000251,-6.914391947633275137
0.409000000000000252,-6.877506172999335199
0.410000000000000253,-6.840668877038366347
0.411000000000000254,-6.803892231760135800
0.412000000000000255,-6.767187991735687191
0.413000000000000256,-6.730567496852074783
0.414000000000000257,-6.694041675415208559
0.415000000000000258,-6.657621047584113327
0.416000000000000258,-6.621315729119605642
0.417000000000000259,-6.585135435430947481
0.418000000000000260,-6.549089485904078245
0.419000000000000261,-6.513186808495288638
0.420000000000000262,-6.477435944574530424
0.421000000000000263,-6.441845054002837578
0.422000000000000264,-6.406421920428480909
0.423000000000000265,-6.371173956787027137
0.424000000000000266,-6.336108210990742506
0.425000000000000266,-6.301231371792914260
0.426000000000000267,-6.266549774813343632
0.427000000000000268,-6.232069408711407021
0.428000000000000269,-6.197795921493482574
0.429000000000000270,-6.163734626942034112
0.430000000000000271,-6.129890511153816668
0.431000000000000272,-6.096268239175296699
0.432000000000000273,-6.062872161723545261
0.433000000000000274,-6.029706321981391781
0.434000000000000274,-5.996774462455976007
0.435000000000000275,-5.964080031890154565
0.436000000000000276,-5.931626192216792326
0.437000000000000277,-5.899415825546046044
0.438000000000000278,-5.867451541176475160
0.439000000000000279,-5.835735682620965648
0.440000000000000280,-5.804270334638837348
0.441000000000000281,-5.773057330266000875
0.442000000000000282,-5.742098257835324127
0.443000000000000282,-5.711394467979612699
0.444000000000000283,-5.680947080610235567
0.445000000000000284,-5.650756991864492207
0.446000000000000285,-5.620824881015255237
0.447000000000000286,-5.591151217336967072
0.448000000000000287,-5.561736266921913696
0.449000000000000288,-5.532580099441612553
0.450000000000000289,-5.503682594847919773
0.451000000000000290,-5.475043450009143164
0.452000000000000290,-5.446662185276581525
0.453000000000000291,-5.418538150977197709
0.454000000000000292,-5.390670533828468614
0.455000000000000293,-5.363058363271683504
0.456000000000000294,-5.335700517720264102
0.457000000000000295,-5.308595730719909866
0.458000000000000296,-5.281742597017601071
0.459000000000000297,-5.255139578536817346
0.460000000000000298,-5.228785010256421728
0.461000000000000298,-5.202677105991055484
0.462000000000000299,-5.176813964070960949
0.463000000000000300,-5.151193572919400054
0.464000000000000301,-5.125813816526113342
0.465000000000000302,-5.100672479815356652
0.466000000000000303,-5.075767253907260468
0.467000000000000304,-5.051095741271499406
0.468000000000000305,-5.026655460772343709
0.469000000000000306,-5.002443852604387509
0.470000000000000306,-4.978458283118420091
0.471000000000000307,-4.954696049536916114
0.472000000000000308,-4.931154384559025772
0.473000000000000309,-4.907830460854802013
0.474000000000000310,-4.884721395448709202
0.475000000000000311,-4.861824253992535816
0.476000000000000312,-4.839136054927953623
0.477000000000000313,-4.816653773539034233
0.478000000000000314,-4.794374345895193734
0.479000000000000314,-4.772294672685169381
0.480000000000000315,-4.750411622942569245
0.481000000000000316,-4.728722037663866118
0.482000000000000317,-4.707222733319530228
0.483000000000000318,-4.685910505259295533
0.484000000000000319,-4.664782131012477961
0.485000000000000320,-4.643834373484429179
0.486000000000000321,-4.623063984050221897
0.487000000000000322,-4.602467705546723131
0.488000000000000322,-4.582042275164257106
0.489000000000000323,-4.561784427239244266
0.490000000000000324,-4.541690895949005657
0.491000000000000325,-4.521758417910197281
0.492000000000000326,-4.501983734682207583
0.493000000000000327,-4.482363595177059956
0.494000000000000328,-4.462894757977201365
0.495000000000000329,-4.443573993562772273
0.496000000000000330,-4.424398086449793155
0.497000000000000330,-4.405363837240978242
0.498000000000000331,-4.386468064590551386
0.499000000000000332,-4.367707607084881261
0.500000000000000333,-4.349079325040396959
0.501000000000000334,-4.330580102220453753
0.502000000000000335,-4.312206847472811688
0.503000000000000336,-4.293956496289349722
0.504000000000000337,-4.275826012289668299
0.505000000000000338,-4.257812388630225264
0.506000000000000338,-4.239912649340698891
0.507000000000000339,-4.222123850589186489
0.508000000000000340,-4.204443081877900390
0.509000000000000341,-4.186867467171089707
0.510000000000000342,-4.169394165956687104
0.511000000000000343,-4.152020374243473810
0.512000000000000344,-4.134743325495273680
0.513000000000000345,-4.117560291503846059
0.514000000000000346,-4.100468583202141915
0.515000000000000346,-4.083465551419388717
0.516000000000000347,-4.066548587579694285
0.517000000000000348,-4.049715124345755868
0.518000000000000349,-4.032962636209086682
0.519000000000000350,-4.016288640028490953
0.520000000000000351,-3.999690695518136607
0.521000000000000352,-3.983166405686878964
0.522000000000000353,-3.966713417230178784
0.523000000000000353,-3.950329420876181441
0.524000000000000354,-3.934012151687389824
0.525000000000000355,-3.917759389319307672
0.526000000000000356,-3.901568958237485951
0.527000000000000357,-3.885438727894405364
0.528000000000000358,-3.869366612867450872
0.529000000000000359,-3.853350572959438836
0.530000000000000360,-3.837388613262897596
0.531000000000000361,-3.821478784189491940
0.532000000000000361,-3.805619181465809131
0.533000000000000362,-3.789807946096779290
0.534000000000000363,-3.774043264297932243
0.535000000000000364,-3.758323367397720993
0.536000000000000365,-3.742646531711067759
0.537000000000000366,-3.727011078385313425
0.538000000000000367,-3.711415373219637104
0.539000000000000368,-3.695857826459184370
0.540000000000000369,-3.680336892564798568
0.541000000000000369,-3.664851069959627061
0.542000000000000370,-3.649398900753448860
0.543000000000000371,-3.633978970445865375
0.544000000000000372,-3.618589907609284673
0.545000000000000373,-3.603230383552695315
0.546000000000000374,-3.587899111967133958
0.547000000000000375,-3.572594848553794833
0.548000000000000376,-3.557316390635707926
0.549000000000000377,-3.542062576753788328
0.550000000000000377,-3.526832286248173354
0.551000000000000378,-3.511624438825623251
0.552000000000000379,-3.496437994113874570
0.553000000000000380,-3.481271951203630977
0.554000000000000381,-3.466125348179021071
0.555000000000000382,-3.450997261637299918
0.556000000000000383,-3.435886806198381382
0.557000000000000384,-3.420793134005086777
0.558000000000000385,-3.405715434214630299
0.559000000000000385,-3.390652932482108639
0.560000000000000386,-3.375604890436581851
0.561000000000000387,-3.360570605150395629
0.562000000000000388,-3.345549408602325858
0.563000000000000389,-3.330540667135164945
0.564000000000000390,-3.315543780908255744
0.565000000000000391,-3.300558183345600582
0.566000000000000392,-3.285583340579992129
0.567000000000000393,-3.270618750893762972
0.568000000000000393,-3.255663944156561573
0.569000000000000394,-3.240718481260683514
0.570000000000000395,-3.225781953554457626
0.571000000000000396,-3.210853982274001872
0.572000000000000397,-3.195934217973944058
0.573000000000000398,-3.181022339957377376
0.574000000000000399,-3.166118055705552159
0.575000000000000400,-3.151221100307611600
0.576000000000000401,-3.136331235890769342
0.577000000000000401,-3.121448251051337497
0.578000000000000402,-3.106571960286828027
0.579000000000000403,-3.091702203429534723
0.580000000000000404,-3.076838845081934171
0.581000000000000405,-3.061981774054100658
0.582000000000000406,-3.047130902803533825
0.583000000000000407,-3.032286166877585121
0.584000000000000408,-3.017447524358815691
0.585000000000000409,-3.002614955313484213
0.586000000000000409,-2.987788461243414684
0.587000000000000410,-2.972968064541521738
0.588000000000000411,-2.958153807951100500
0.589000000000000412,-2.943345754029230932
0.590000000000000413,-2.928543984614345508
0.591000000000000414,-2.913748600298250668
0.592000000000000415,-2.898959719902755694
0.593000000000000416,-2.884177479961012924
0.594000000000000417,-2.869402034203797580
0.595000000000000417,-2.854633553050894612
0.596000000000000418,-2.839872223107570370
0.597000000000000419,-2.825118246666526556
0.598000000000000420,-2.810371841215161481
0.599000000000000421,-2.795633238948501909
0.600000000000000422,-2.780902686287750836
0.601000000000000423,-2.766180443404617773
0.602000000000000424,-2.751466783751518541
0.603000000000000425,-2.736761993597716103
0.604000000000000425,-2.722066371571466359
0.605000000000000426,-2.707380228208266626
0.606000000000000427,-2.692703885505300043
0.607000000000000428,-2.678037676481973772
0.608000000000000429,-2.663381944746890717
0.609000000000000430,-2.648737044070959001
0.610000000000000431,-2.634103337966995362
0.611000000000000432,-2.619481199275617733
0.612000000000000433,-2.604871009757581124
0.613000000000000433,-2.590273159692574545
