# Gypsum-010_SERINEZWITTER
# h[nm],U(h)[kJ/mol]
0.149999999999999994,158.235406503791352861
0.150999999999999995,155.558811083145599241
0.151999999999999996,152.967263251557426429
0.152999999999999997,150.377676075849137760
0.153999999999999998,147.776829383290703390
0.154999999999999999,145.177547854400529559
0.156000000000000000,142.597453814369771408
0.157000000000000001,140.050209459078075724
0.158000000000000002,137.543210964694424092
0.159000000000000002,135.078248456451660786
0.160000000000000003,132.653219959555372043
0.161000000000000004,130.263931882824778086
0.162000000000000005,127.905564109952862850
0.163000000000000006,125.573675954810411781
0.164000000000000007,123.264778278576770276
0.165000000000000008,120.976559562504093037
0.166000000000000009,118.707868760731983571
0.167000000000000010,116.458549068519758407
0.168000000000000010,114.229198232999607399
0.169000000000000011,112.020910408119291901
0.170000000000000012,109.835035711113476964
0.171000000000000013,107.672978218986344245
0.172000000000000014,105.536041525562637844
0.173000000000000015,103.425322880609058984
0.174000000000000016,101.341651780412703943
0.175000000000000017,99.285566023275379166
0.176000000000000018,97.257317066810287542
0.177000000000000018,95.256896496426790577
0.178000000000000019,93.284076109645738484
0.179000000000000020,91.338455214445758656
0.180000000000000021,89.419509997464700746
0.181000000000000022,87.526641080006911011
0.182000000000000023,85.659216545736711623
0.183000000000000024,83.816608737236322213
0.184000000000000025,81.998223954731145113
0.185000000000000026,80.203524846485166222
0.186000000000000026,78.432045767840918415
0.187000000000000027,76.683401723873814149
0.188000000000000028,74.957291722191840222
0.189000000000000029,73.253497471459837698
0.190000000000000030,71.571878390626267219
0.191000000000000031,69.912363864257699220
0.192000000000000032,68.274943608744010248
0.193000000000000033,66.659656917337230198
0.194000000000000034,65.066581441046707823
0.195000000000000034,63.495822046625320922
0.196000000000000035,61.947500179176337554
0.197000000000000036,60.421744050165365536
0.198000000000000037,58.918679875028786341
0.199000000000000038,57.438424299969277342
0.200000000000000039,55.981078085706236891
0.201000000000000040,54.546721056895464130
0.202000000000000041,53.135408279081580929
0.203000000000000042,51.747167389442061847
0.204000000000000042,50.381996982037101418
0.205000000000000043,49.039865931491213757
0.206000000000000044,47.720713529663051133
0.207000000000000045,46.424450306610509642
0.208000000000000046,45.150959408805945827
0.209000000000000047,43.900098412984561946
0.210000000000000048,42.671701462227645152
0.211000000000000049,41.465581621030374038
0.212000000000000050,40.281533357446015486
0.213000000000000050,39.119335072335751136
0.214000000000000051,37.978751607786939815
0.215000000000000052,36.859536678513983077
0.216000000000000053,35.761435181230332603
0.217000000000000054,34.684185347367282759
0.218000000000000055,33.627520713974753619
0.219000000000000056,32.591171896087615778
0.220000000000000057,31.574868151238622005
0.221000000000000058,30.578338733154975415
0.222000000000000058,29.601314037008297220
0.223000000000000059,28.643526542962682413
0.224000000000000060,27.704711568240306008
0.225000000000000061,26.784607840581621474
0.226000000000000062,25.882957907900539851
0.227000000000000063,24.999508400209187187
0.228000000000000064,24.134010160600070094
0.229000000000000065,23.286218262303645332
0.230000000000000066,22.455891928672478741
0.231000000000000066,21.642794372445212758
0.232000000000000067,20.846692569886847934
0.233000000000000068,20.067356984444788992
0.234000000000000069,19.304561253456803627
0.235000000000000070,18.558081850245400801
0.236000000000000071,17.827697732674256059
0.237000000000000072,17.113189987959110283
0.238000000000000073,16.414341482249650284
0.239000000000000073,15.730936522253511356
0.240000000000000074,15.062760534974120930
0.241000000000000075,14.409599770502229177
0.242000000000000076,13.771241031740952820
0.243000000000000077,13.147471433967320209
0.244000000000000078,12.538078196243466422
0.245000000000000079,11.942848465890040899
0.246000000000000080,11.361569176523929059
0.247000000000000081,10.794026939539008936
0.248000000000000081,10.240007968372188074
0.249000000000000082,9.699298034441849126
0.250000000000000111,9.171682453267226975
0.251000000000000112,8.656946098972087000
0.252000000000000113,8.154873445135226717
0.253000000000000114,7.665248629773271816
0.254000000000000115,7.187855542115549667
0.255000000000000115,6.722477928757247589
0.256000000000000116,6.268899516744601996
0.257000000000000117,5.826904151152096034
0.258000000000000118,5.396275944750975384
0.259000000000000119,4.976799437434344497
0.260000000000000120,4.568259763153090347
0.261000000000000121,4.170442822225886914
0.262000000000000122,3.783135457008312663
0.263000000000000123,3.406125629041247382
0.264000000000000123,3.039202595939944018
0.265000000000000124,2.682157086433209603
0.266000000000000125,2.334781472111683076
0.267000000000000126,1.996869934595074669
0.268000000000000127,1.668218626976810892
0.269000000000000128,1.348625828551100359
0.270000000000000129,1.037892091968906971
0.271000000000000130,0.735820382105268456
0.272000000000000131,0.442216206050516036
0.273000000000000131,0.156887733760492226
0.274000000000000132,-0.120354090983907550
0.275000000000000133,-0.389695449550565176
0.276000000000000134,-0.651319557507036073
0.277000000000000135,-0.905406583801102505
0.278000000000000136,-1.152133580041738492
0.279000000000000137,-1.391674419776546934
0.280000000000000138,-1.624199747595363785
0.281000000000000139,-1.849876937831498314
0.282000000000000139,-2.068870062580523417
0.283000000000000140,-2.281339868712882968
0.284000000000000141,-2.487443763518960793
0.285000000000000142,-2.687335808594612185
0.286000000000000143,-2.881166721550056486
0.287000000000000144,-3.069083885105374332
0.288000000000000145,-3.251231363122093931
0.289000000000000146,-3.427749923109840946
0.290000000000000147,-3.598777064742555432
0.291000000000000147,-3.764447053916489150
0.292000000000000148,-3.924890961884891283
0.293000000000000149,-4.080236709008795870
0.294000000000000150,-4.230609112671503524
0.295000000000000151,-4.376129938914589346
0.296000000000000152,-4.516917957365407688
0.297000000000000153,-4.653088999040337903
0.298000000000000154,-4.784756016623497032
0.299000000000000155,-4.912029146837553206
0.300000000000000155,-5.035015774540949174
0.301000000000000156,-5.153820598204345238
0.302000000000000157,-5.268545696438418524
0.303000000000000158,-5.379290595264192731
0.304000000000000159,-5.486152335837101823
0.305000000000000160,-5.589225542355238829
0.306000000000000161,-5.688602489902071291
0.307000000000000162,-5.784373171993157925
0.308000000000000163,-5.876625367615223361
0.309000000000000163,-5.965444707564709681
0.310000000000000164,-6.050914739910889573
0.311000000000000165,-6.133116994426049295
0.312000000000000166,-6.212131045842308019
0.313000000000000167,-6.288034575810570459
0.314000000000000168,-6.360903433452808287
0.315000000000000169,-6.430811694413432811
0.316000000000000170,-6.497831718329784678
0.317000000000000171,-6.562034204654639602
0.318000000000000171,-6.623488246776320310
0.319000000000000172,-6.682261384393699544
0.320000000000000173,-6.738419654114184532
0.321000000000000174,-6.792027638252868371
0.322000000000000175,-6.843148511820698054
0.323000000000000176,-6.891844087697919008
0.324000000000000177,-6.938174859997173094
0.325000000000000178,-6.982200045627775964
0.326000000000000179,-7.023977624079556392
0.327000000000000179,-7.063564375450264166
0.328000000000000180,-7.101015916746133527
0.329000000000000181,-7.136386736490069715
0.330000000000000182,-7.169730227675654710
0.331000000000000183,-7.201098719109542579
0.332000000000000184,-7.230543505187322140
0.333000000000000185,-7.258114874151075924
0.334000000000000186,-7.283862134878956951
0.335000000000000187,-7.307833642258955820
0.336000000000000187,-7.330076821200577797
0.337000000000000188,-7.350638189339034234
0.338000000000000189,-7.369563378487626437
0.339000000000000190,-7.386897154894304762
0.340000000000000191,-7.402683438358314660
0.341000000000000192,-7.416965320263377848
0.342000000000000193,-7.429785080582779422
0.343000000000000194,-7.441184203911957340
0.344000000000000195,-7.451203394582681661
0.345000000000000195,-7.459882590912824796
0.346000000000000196,-7.467260978643956548
0.347000000000000197,-7.473377003618301373
0.348000000000000198,-7.478268383745072079
0.349000000000000199,-7.481972120304770435
0.350000000000000200,-7.484524508638732421
0.351000000000000201,-7.485961148269413279
0.352000000000000202,-7.486316952495366550
0.353000000000000203,-7.485626157503316058
0.354000000000000203,-7.483922331037831555
0.355000000000000204,-7.481238380667376120
0.356000000000000205,-7.477606561683934672
0.357000000000000206,-7.473058484671580182
0.358000000000000207,-7.467625122777337587
0.359000000000000208,-7.461336818716373109
0.360000000000000209,-7.454223291541529406
0.361000000000000210,-7.446313643205461297
0.362000000000000210,-7.437636364942171951
0.363000000000000211,-7.428219343492867388
0.364000000000000212,-7.418089867199523901
0.365000000000000213,-7.407274631987962543
0.366000000000000214,-7.395799747260637602
0.367000000000000215,-7.383690741717851225
0.368000000000000216,-7.370972569124776719
0.369000000000000217,-7.357669614039956230
0.370000000000000218,-7.343805697519999676
0.371000000000000218,-7.329404082813444354
0.372000000000000219,-7.314487481055882867
0.373000000000000220,-7.299078056977033491
0.374000000000000221,-7.283197434629334666
0.375000000000000222,-7.266866703146439121
0.376000000000000223,-7.250106422539252193
0.377000000000000224,-7.232936629535783091
0.378000000000000225,-7.215376843470357571
0.379000000000000226,-7.197446072226786562
0.380000000000000226,-7.179162818239352539
0.381000000000000227,-7.160545084554405193
0.382000000000000228,-7.141610380955029314
0.383000000000000229,-7.122375730150179329
0.384000000000000230,-7.102857674029161572
0.385000000000000231,-7.083072279981958097
0.386000000000000232,-7.063035147284850268
0.387000000000000233,-7.042761413550842065
0.388000000000000234,-7.022265761243370541
0.389000000000000234,-7.001562424251862815
0.390000000000000235,-6.980665194526830319
0.391000000000000236,-6.959587428772250561
0.392000000000000237,-6.938342055192268099
0.393000000000000238,-6.916941580289329927
0.394000000000000239,-6.895398095710271846
0.395000000000000240,-6.873723285136895456
0.396000000000000241,-6.851928431217229942
0.397000000000000242,-6.830024422533500505
0.398000000000000242,-6.808021760602835926
0.399000000000000243,-6.785930566906339223
0.400000000000000244,-6.763760589942307888
0.401000000000000245,-6.741521212299240062
0.402000000000000246,-6.719221457744035675
0.403000000000000247,-6.696869998321018258
0.404000000000000248,-6.674475161457218420
0.405000000000000249,-6.652044937069405250
0.406000000000000250,-6.629586984668297767
0.407000000000000250,-6.607108640455582993
0.408000000000000251,-6.584616924409141703
0.409000000000000252,-6.562118547352234543
0.410000000000000253,-6.539619918002165022
0.411000000000000254,-6.517127149994292878
0.412000000000000255,-6.494646068877043987
0.413000000000000256,-6.472182219074039899
0.414000000000000257,-6.449740870809094417
0.415000000000000258,-6.427327026990434788
0.416000000000000258,-6.404945430050133837
0.417000000000000259,-6.382600568735287361
0.418000000000000260,-6.360296684847221549
0.419000000000000261,-6.338037779925443260
0.420000000000000262,-6.315827621872913689
0.421000000000000263,-6.293669751519642475
0.422000000000000264,-6.271567489121386174
0.423000000000000265,-6.249523940790654208
0.424000000000000266,-6.227542004857360425
0.425000000000000266,-6.205624378156261223
0.426000000000000267,-6.183773562238927823
0.427000000000000268,-6.161991869507784436
0.428000000000000269,-6.140281429270023850
0.429000000000000270,-6.118644193709364743
0.430000000000000271,-6.097081943773670965
0.431000000000000272,-6.075596294976678635
0.432000000000000273,-6.054188703112109771
0.433000000000000274,-6.032860469878712273
0.434000000000000274,-6.011612748414739471
0.435000000000000275,-5.990446548740647081
0.436000000000000276,-5.969362743108853842
0.437000000000000277,-5.948362071259483130
0.438000000000000278,-5.927445145581238251
0.439000000000000279,-5.906612456176596027
0.440000000000000280,-5.885864375830618833
0.441000000000000281,-5.865201164882806850
0.442000000000000282,-5.844622976001650372
0.443000000000000282,-5.824129858861297748
0.444000000000000283,-5.803721764720343401
0.445000000000000284,-5.783398550902377977
0.446000000000000285,-5.763159985178335276
0.447000000000000286,-5.743005750050689251
0.448000000000000287,-5.722935446939517945
0.449000000000000288,-5.702948600270767443
0.450000000000000289,-5.683044661466902348
0.451000000000000290,-5.663223012840330028
0.452000000000000290,-5.643482971390120007
0.453000000000000291,-5.623823792502369301
0.454000000000000292,-5.604244673554983791
0.455000000000000293,-5.584744757427333006
0.456000000000000294,-5.565323135915659414
0.457000000000000295,-5.545978853054876367
0.458000000000000296,-5.526710908347633122
0.459000000000000297,-5.507518259901551083
0.460000000000000298,-5.488399827475467063
0.461000000000000298,-5.469354495435747587
0.462000000000000299,-5.450381115623665451
0.463000000000000300,-5.431478510134803983
0.464000000000000301,-5.412645474011759994
0.465000000000000302,-5.393880777851101094
0.466000000000000303,-5.375183170325854576
0.467000000000000304,-5.356551380624660297
0.468000000000000305,-5.337984120808842547
0.469000000000000306,-5.319480088088625713
0.470000000000000306,-5.301037967019821551
0.471000000000000307,-5.282656431622139159
0.472000000000000308,-5.264334147420628440
0.473000000000000309,-5.246069773411407233
0.474000000000000310,-5.227861963953117197
0.475000000000000311,-5.209709370585395405
0.476000000000000312,-5.191610643775828038
0.477000000000000313,-5.173564434596622519
0.478000000000000314,-5.155569396332479570
0.479000000000000314,-5.137624186021037431
0.480000000000000315,-5.119727465927232046
0.481000000000000316,-5.101877904953037834
0.482000000000000317,-5.084074179983895547
0.483000000000000318,-5.066314977173311362
0.484000000000000319,-5.048598993166934612
0.485000000000000320,-5.030924936267568093
0.486000000000000321,-5.013291527542473425
0.487000000000000322,-4.995697501874330371
0.488000000000000322,-4.978141608957192155
0.489000000000000323,-4.960622614238932471
0.490000000000000324,-4.943139299811369902
0.491000000000000325,-4.925690465249539685
0.492000000000000326,-4.908274928401341164
0.493000000000000327,-4.890891526129014899
0.494000000000000328,-4.873539115003620026
0.495000000000000329,-4.856216571953920536
0.496000000000000330,-4.838922794870860855
0.497000000000000330,-4.821656703169052705
0.498000000000000331,-4.804417238306289306
0.499000000000000332,-4.787203364262607508
0.500000000000000333,-4.770014067979903238
0.501000000000000334,-4.752848359763374830
0.502000000000000335,-4.735705273646035884
0.503000000000000336,-4.718583867717382141
0.504000000000000337,-4.701483224417454032
0.505000000000000338,-4.684402450797334083
0.506000000000000338,-4.667340678747292415
0.507000000000000339,-4.650297065193623958
0.508000000000000340,-4.633270792265236970
0.509000000000000341,-4.616261067431167930
0.510000000000000342,-4.599267123609898533
0.511000000000000343,-4.582288219251660522
0.512000000000000344,-4.565323638394602312
0.513000000000000345,-4.548372690695877019
0.514000000000000346,-4.531434711438643070
0.515000000000000346,-4.514509061515806998
0.516000000000000347,-4.497595127391535996
0.517000000000000348,-4.480692321041474635
0.518000000000000349,-4.463800079872387805
0.519000000000000350,-4.446917866622311699
0.520000000000000351,-4.430045169241878078
0.521000000000000352,-4.413181500757790587
0.522000000000000353,-4.396326399119133477
0.523000000000000353,-4.379479427027376914
0.524000000000000354,-4.362640171750880924
0.525000000000000355,-4.345808244924548092
0.526000000000000356,-4.328983282335431504
0.527000000000000357,-4.312164943695049324
0.528000000000000358,-4.295352912398980649
0.529000000000000359,-4.278546895274562445
0.530000000000000360,-4.261746622317231115
0.531000000000000361,-4.244951846416237906
0.532000000000000361,-4.228162343070323459
0.533000000000000362,-4.211377910093952792
0.534000000000000363,-4.194598367314724463
0.535000000000000364,-4.177823556262532989
0.536000000000000365,-4.161053339851003230
0.537000000000000366,-4.144287602051801578
0.538000000000000367,-4.127526247562242290
0.539000000000000368,-4.110769201466869305
0.540000000000000369,-4.094016408893301318
0.541000000000000369,-4.077267834663014234
0.542000000000000370,-4.060523462937348782
0.543000000000000371,-4.043783296859328580
0.544000000000000372,-4.027047358191654602
0.545000000000000373,-4.010315686951306802
0.546000000000000374,-3.993588341041143686
0.547000000000000375,-3.976865395878915077
0.548000000000000376,-3.960146944024069082
0.549000000000000377,-3.943433094802686778
0.550000000000000377,-3.926723973930918099
0.551000000000000378,-3.910019723137232006
0.552000000000000379,-3.893320499783865074
0.553000000000000380,-3.876626476487707862
0.554000000000000381,-3.859937840740951032
0.555000000000000382,-3.843254794531865137
0.556000000000000383,-3.826577553965812228
0.557000000000000384,-3.809906348886971550
0.558000000000000385,-3.793241422500840621
0.559000000000000385,-3.776583030997898049
0.560000000000000386,-3.759931443178585742
0.561000000000000387,-3.743286940079861402
0.562000000000000388,-3.726649814603518962
0.563000000000000389,-3.710020371146527829
0.564000000000000390,-3.693398925233501551
0.565000000000000391,-3.676785803151580101
0.566000000000000392,-3.660181341587815496
0.567000000000000393,-3.643585887269316537
0.568000000000000393,-3.626999796606207305
0.569000000000000394,-3.610423435337641429
0.570000000000000395,-3.593857178181002698
0.571000000000000396,-3.577301408484334644
0.572000000000000397,-3.560756517882296635
0.573000000000000398,-3.544222905955584313
0.574000000000000399,-3.527700979894073274
0.575000000000000400,-3.511191154163698425
0.576000000000000401,-3.494693850177199579
0.577000000000000401,-3.478209495968882514
0.578000000000000402,-3.461738525873363503
0.579000000000000403,-3.445281380208466082
0.580000000000000404,-3.428838504962366862
0.581000000000000405,-3.412410351484941096
0.582000000000000406,-3.395997376183514493
0.583000000000000407,-3.379600040222953794
0.584000000000000408,-3.363218809230256845
0.585000000000000409,-3.346854153003603560
0.586000000000000409,-3.330506545225946802
0.587000000000000410,-3.314176463183216903
0.588000000000000411,-3.297864387487072779
0.589000000000000412,-3.281570801802376813
0.590000000000000413,-3.265296192579246082
0.591000000000000414,-3.249041048789845121
0.592000000000000415,-3.232805861669886038
0.593000000000000416,-3.216591124464794227
0.594000000000000417,-3.200397332180629384
0.595000000000000417,-3.184224981339784932
0.596000000000000418,-3.168074569741297530
0.597000000000000419,-3.151946596226039787
0.598000000000000420,-3.135841560446512855
0.599000000000000421,-3.119759962641447171
0.600000000000000422,-3.103702303415072805
0.601000000000000423,-3.087669083521102920
0.602000000000000424,-3.071660803651400595
0.603000000000000425,-3.055677964229334798
0.604000000000000425,-3.039721065207737549
0.605000000000000426,-3.023790605871528037
0.606000000000000427,-3.007887084644959685
0.607000000000000428,-2.992010998903334773
0.608000000000000429,-2.976162844789438822
0.609000000000000430,-2.960343117034307525
0.610000000000000431,-2.944552308782633077
0.611000000000000432,-2.928790911422538557
0.612000000000000433,-2.913059414419760351
0.613000000000000433,-2.897358305156287450
