# Gypsum-010_BSAI6
# h[nm],U(h)[kJ/mol]
0.149999999999999994,116.651950794635581587
0.150999999999999995,113.994450624327669175
0.151999999999999996,111.937105906188634208
0.152999999999999997,110.018336133136514832
0.153999999999999998,108.076817892309875901
0.154999999999999999,106.088539309923163501
0.156000000000000000,104.080396307625917984
0.157000000000000001,102.088251085969162091
0.158000000000000002,100.139658251614051210
0.159000000000000002,98.249368842807939473
0.160000000000000003,96.420723040640197610
0.161000000000000004,94.649138875734337262
0.162000000000000005,92.925769440276880573
0.163000000000000006,91.240483244161609377
0.164000000000000007,89.583916875873455865
0.165000000000000008,87.948648263391888236
0.166000000000000009,86.329665631666927084
0.167000000000000010,84.724338912009415026
0.168000000000000010,83.132084028695402367
0.169000000000000011,81.553873946827067698
0.170000000000000012,79.991709128486306213
0.171000000000000013,78.448122057358801840
0.172000000000000014,76.925759183922508555
0.173000000000000015,75.427059875950163814
0.174000000000000016,73.954035246370068535
0.175000000000000017,72.508138976601671288
0.176000000000000018,71.090216180850433147
0.177000000000000018,69.700513738430259991
0.178000000000000019,68.338735291458931442
0.179000000000000020,67.004125399841981903
0.180000000000000021,65.695569500540329955
0.181000000000000022,64.411698849599034133
0.182000000000000023,63.150992199568428020
0.183000000000000024,61.911868367554646397
0.184000000000000025,60.692765956837789076
0.185000000000000026,59.492208250543264114
0.186000000000000026,58.308852687803280901
0.187000000000000027,57.141525379596416201
0.188000000000000028,55.989241859115608690
0.189000000000000029,54.851215735097866855
0.190000000000000030,53.726857173757444741
0.191000000000000031,52.615763222110828679
0.192000000000000032,51.517701944952207782
0.193000000000000033,50.432592216624968273
0.194000000000000034,49.360480818298476891
0.195000000000000034,48.301518267126255068
0.196000000000000035,47.255934565397602398
0.197000000000000036,46.224015820665485421
0.198000000000000037,45.206082462676299372
0.199000000000000038,44.202469577035273574
0.200000000000000039,43.213509693334650308
0.201000000000000040,42.239518209102683954
0.202000000000000041,41.280781500827288255
0.203000000000000042,40.337547668637867559
0.204000000000000042,39.410019780281103863
0.205000000000000043,38.498351420538632794
0.206000000000000044,37.602644311624921158
0.207000000000000045,36.722947745680414755
0.208000000000000046,35.859259559565600739
0.209000000000000047,35.011528382221662525
0.210000000000000048,34.179656893543125307
0.211000000000000049,33.363505848893971972
0.212000000000000050,32.562898643230717255
0.213000000000000050,31.777626211683887902
0.214000000000000051,31.007452088046971284
0.215000000000000052,30.252117467834306552
0.216000000000000053,29.511346147517635075
0.217000000000000054,28.784849235554315072
0.218000000000000055,28.072329553377237232
0.219000000000000056,27.373485665271459766
0.220000000000000057,26.688015494787862281
0.221000000000000058,26.015619501925357326
0.222000000000000058,25.356003409705053286
0.223000000000000059,24.708880481006275431
0.224000000000000060,24.073973356711242388
0.225000000000000061,23.451015474439930841
0.226000000000000062,22.839752093597230242
0.227000000000000063,22.239940957266476573
0.228000000000000064,21.651352624843447359
0.229000000000000065,21.073770511386697990
0.230000000000000066,20.506990670642913699
0.231000000000000066,19.950821358751767320
0.232000000000000067,19.405082414907035115
0.233000000000000068,18.869604493892122576
0.234000000000000069,18.344228183554985634
0.235000000000000070,17.828803038058982366
0.236000000000000071,17.323186555250806862
0.237000000000000072,16.827243123815673442
0.238000000000000073,16.340842963126270604
0.239000000000000073,15.863861075904063469
0.240000000000000074,15.396176231053109618
0.241000000000000075,14.937669991349462606
0.242000000000000076,14.488225798106105557
0.243000000000000077,14.047728122514877569
0.244000000000000078,13.616061691113902299
0.245000000000000079,13.193110790755195438
0.246000000000000080,12.778758656563082852
0.247000000000000081,12.372886944680399068
0.248000000000000081,11.975375290100316761
0.249000000000000082,11.586100948570024372
0.250000000000000111,11.204938520424017057
0.251000000000000112,10.831759753251146705
0.252000000000000113,10.466433419509508340
0.253000000000000114,10.108825264568817914
0.254000000000000115,9.758798020164991982
0.255000000000000115,9.416211477888307257
0.256000000000000116,9.080922617079325576
0.257000000000000117,8.752785781364615048
0.258000000000000118,8.431652898015817854
0.259000000000000119,8.117373734347276937
0.260000000000000120,7.809796185469775942
0.261000000000000121,7.508766587880015386
0.262000000000000122,7.214130053576663038
0.263000000000000123,6.925730819646462422
0.264000000000000123,6.643412608547913933
0.265000000000000124,6.367018994629532358
0.266000000000000125,6.096393772746211859
0.267000000000000126,5.831381325175974517
0.268000000000000127,5.571826983383473930
0.269000000000000128,5.317577381522994528
0.270000000000000129,5.068480798916484176
0.271000000000000130,4.824387489078714175
0.272000000000000131,4.585149993189266304
0.273000000000000131,4.350623436226153551
0.274000000000000132,4.120665804277687805
0.275000000000000133,3.895138201834901004
0.276000000000000134,3.673905088136304009
0.277000000000000135,3.456834491888655769
0.278000000000000136,3.243798203920629675
0.279000000000000137,3.034671947541634829
0.280000000000000138,2.829335526574844994
0.281000000000000139,2.627672951211470487
0.282000000000000139,2.429572541993979762
0.283000000000000140,2.234927012378443045
0.284000000000000141,2.043633530452175329
0.285000000000000142,1.855593760492217470
0.286000000000000143,1.670713885144201827
0.287000000000000144,1.488904609080630603
0.288000000000000145,1.310081145062577113
0.289000000000000146,1.134163183382040474
0.290000000000000147,0.961074845701907043
0.291000000000000147,0.790744624340468771
0.292000000000000148,0.623105308066024710
0.293000000000000149,0.458093895477407642
0.294000000000000150,0.295651497047211442
0.295000000000000151,0.135723226898446958
0.296000000000000152,-0.021741914627807325
0.297000000000000153,-0.176791166575254038
0.298000000000000154,-0.329468140131609855
0.299000000000000155,-0.479812957559126840
0.300000000000000155,-0.627862396344137430
0.301000000000000156,-0.773650037649463718
0.302000000000000157,-0.917206418192722972
0.303000000000000158,-1.058559184714332302
0.304000000000000159,-1.197733250242090985
0.305000000000000160,-1.334750951403122388
0.306000000000000161,-1.469632206078880010
0.307000000000000162,-1.602394670744373473
0.308000000000000163,-1.733053896878049560
0.309000000000000163,-1.861623485874210449
0.310000000000000164,-1.988115241934602206
0.311000000000000165,-2.112539322459967561
0.312000000000000166,-2.234904385505605440
0.313000000000000167,-2.355217733907118305
0.314000000000000168,-2.473485455723440918
0.315000000000000169,-2.589712560683797626
0.316000000000000170,-2.703903112363398087
0.317000000000000171,-2.816060355849039798
0.318000000000000171,-2.926186840690712110
0.319000000000000172,-3.034284538968700318
0.320000000000000173,-3.140354958336798674
0.321000000000000174,-3.244399249932270468
0.322000000000000175,-3.346418311071084339
0.323000000000000176,-3.446412882673174582
0.324000000000000177,-3.544383641387048645
0.325000000000000178,-3.640331286405716238
0.326000000000000179,-3.734256620987336905
0.327000000000000179,-3.826160628713035639
0.328000000000000180,-3.916044544532588212
0.329000000000000181,-4.003909920664798783
0.330000000000000182,-4.089758687434189355
0.331000000000000183,-4.173593209139168536
0.332000000000000184,-4.255416335058608723
0.333000000000000185,-4.335231445714541998
0.334000000000000186,-4.413042494518069070
0.335000000000000187,-4.488854044933638043
0.336000000000000187,-4.562671303304141723
0.337000000000000188,-4.634500147484772903
0.338000000000000189,-4.704347151439067787
0.339000000000000190,-4.772219605954190591
0.340000000000000191,-4.838125535635549923
0.341000000000000192,-4.902073712343411493
0.342000000000000193,-4.964073665235313015
0.343000000000000194,-5.024135687579089904
0.344000000000000195,-5.082270840501086795
0.345000000000000195,-5.138490953834087271
0.346000000000000196,-5.192808624227875924
0.347000000000000197,-5.245237210684163820
0.348000000000000198,-5.295790827675317836
0.349000000000000199,-5.344484336003946012
0.350000000000000200,-5.391333331557538244
0.351000000000000201,-5.436354132109153525
0.352000000000000202,-5.479563762311652653
0.353000000000000203,-5.520979937029268925
0.354000000000000203,-5.560621043146406706
0.355000000000000204,-5.598506119989157703
0.356000000000000205,-5.634654838491041318
0.357000000000000206,-5.669087479229895976
0.358000000000000207,-5.701824909458066415
0.359000000000000208,-5.732888559243846771
0.360000000000000209,-5.762300396837095384
0.361000000000000210,-5.790082903367328448
0.362000000000000210,-5.816259046977902081
0.363000000000000211,-5.840852256495069561
0.364000000000000212,-5.863886394726071316
0.365000000000000213,-5.885385731475620830
0.366000000000000214,-5.905374916365604854
0.367000000000000215,-5.923878951538132931
0.368000000000000216,-5.940923164317724492
0.369000000000000217,-5.956533179903741093
0.370000000000000218,-5.970734894160090178
0.371000000000000218,-5.983554446564754770
0.372000000000000219,-5.995018193377694260
0.373000000000000220,-6.005152681081644239
0.374000000000000221,-6.013984620146272775
0.375000000000000222,-6.021540859162412218
0.376000000000000223,-6.027848359389585298
0.377000000000000224,-6.032934169756144271
0.378000000000000225,-6.036825402348170222
0.379000000000000226,-6.039549208419830784
0.380000000000000226,-6.041132754954896100
0.381000000000000227,-6.041603201805703094
0.382000000000000228,-6.040987679433415636
0.383000000000000229,-6.039313267270197905
0.384000000000000230,-6.036606972721472175
0.385000000000000231,-6.032895710823919622
0.386000000000000232,-6.028206284572268814
0.387000000000000233,-6.022565365925847125
0.388000000000000234,-6.015999477503441994
0.389000000000000234,-6.008534974973268383
0.390000000000000235,-6.000198030142551708
0.391000000000000236,-5.991014614749665235
0.392000000000000237,-5.981010484959884188
0.393000000000000238,-5.970211166564327598
0.394000000000000239,-5.958641940879919829
0.395000000000000240,-5.946327831347122839
0.396000000000000241,-5.933293590820537311
0.397000000000000242,-5.919563689546435192
0.398000000000000242,-5.905162303820191916
0.399000000000000243,-5.890113305315310299
0.400000000000000244,-5.874440251075033537
0.401000000000000245,-5.858166374156537515
0.402000000000000246,-5.841314574916794733
0.403000000000000247,-5.823907412928693184
0.404000000000000248,-5.805967099515134677
0.405000000000000249,-5.787515490888387681
0.406000000000000250,-5.768574081881288507
0.407000000000000250,-5.749164000256610230
0.408000000000000251,-5.729306001580341423
0.409000000000000252,-5.709020464644369852
0.410000000000000253,-5.688327387423726123
0.411000000000000254,-5.667246383553307787
0.412000000000000255,-5.645796679308758392
0.413000000000000256,-5.623997111076149302
0.414000000000000257,-5.601866123294766631
0.415000000000000258,-5.579421766857532994
0.416000000000000258,-5.556681697953232302
0.417000000000000259,-5.533663177334971373
0.418000000000000260,-5.510383069999178929
0.419000000000000261,-5.486857845259565103
0.420000000000000262,-5.463103577200511651
0.421000000000000263,-5.439135945494570912
0.422000000000000264,-5.414970236568688478
0.423000000000000265,-5.390621345104182893
0.424000000000000266,-5.366103775855504132
0.425000000000000266,-5.341431645773019099
0.426000000000000267,-5.316618686415376160
0.427000000000000268,-5.291678246637134819
0.428000000000000269,-5.266623295537615768
0.429000000000000270,-5.241466425657249850
0.430000000000000271,-5.216219856407823485
0.431000000000000272,-5.190895437723500372
0.432000000000000273,-5.165504653919559708
0.433000000000000274,-5.140058627746291187
0.434000000000000274,-5.114568124625646917
0.435000000000000275,-5.089043557058596789
0.436000000000000276,-5.063494989191516638
0.437000000000000277,-5.037932141530081509
0.438000000000000278,-5.012364395789651539
0.439000000000000279,-4.986800799871359047
0.440000000000000280,-4.961250072953353296
0.441000000000000281,-4.935720610687117649
0.442000000000000282,-4.910220490489080269
0.443000000000000282,-4.884757476917878982
0.444000000000000283,-4.859339027128234179
0.445000000000000284,-4.833972296392468948
0.446000000000000285,-4.808664143681112613
0.447000000000000286,-4.783421137294464387
0.448000000000000287,-4.758249560536969014
0.449000000000000288,-4.733155417427005851
0.450000000000000289,-4.708144438434546331
0.451000000000000290,-4.683222086239771542
0.452000000000000290,-4.658393561505896230
0.453000000000000291,-4.633663808659639116
0.454000000000000292,-4.609037521673300830
0.455000000000000293,-4.584519149842420482
0.456000000000000294,-4.560112903553465991
0.457000000000000295,-4.535822760036159806
0.458000000000000296,-4.511652469095316142
0.459000000000000297,-4.487605558817378437
0.460000000000000298,-4.463685341247001226
0.461000000000000298,-4.439894918029370530
0.462000000000000299,-4.416237186014095428
0.463000000000000300,-4.392714842816761944
0.464000000000000301,-4.369330392334524582
0.465000000000000302,-4.346086150212256527
0.466000000000000303,-4.322984249255962474
0.467000000000000304,-4.300026644790523100
0.468000000000000305,-4.277215119958801992
0.469000000000000306,-4.254551290959565080
0.470000000000000306,-4.232036612221726557
0.471000000000000307,-4.209672381512580941
0.472000000000000308,-4.187459744978011322
0.473000000000000309,-4.165399702112653202
0.474000000000000310,-4.143493110658288181
0.475000000000000311,-4.121740691428810166
0.476000000000000312,-4.100143033060368758
0.477000000000000313,-4.078700596685270519
0.478000000000000314,-4.057413720528515455
0.479000000000000314,-4.036282624425965082
0.480000000000000315,-4.015307414263096675
0.481000000000000316,-3.994488086333718879
0.482000000000000317,-3.973824531617823119
0.483000000000000318,-3.953316539978120492
0.484000000000000319,-3.932963804274752562
0.485000000000000320,-3.912765924397878514
0.486000000000000321,-3.892722411217855782
0.487000000000000322,-3.872832690452898241
0.488000000000000322,-3.853096106454093839
0.489000000000000323,-3.833511925907919782
0.490000000000000324,-3.814079341456245942
0.491000000000000325,-3.794797475234112483
0.492000000000000326,-3.775665382325453123
0.493000000000000327,-3.756682054137195248
0.494000000000000328,-3.737846421692057497
0.495000000000000329,-3.719157358840563088
0.496000000000000330,-3.700613685392727170
0.497000000000000330,-3.682214170170102108
0.498000000000000331,-3.663957533978651870
0.499000000000000332,-3.645842452503310849
0.500000000000000333,-3.627867559124853702
0.501000000000000334,-3.610031447659797887
0.502000000000000335,-3.592332675024294097
0.503000000000000336,-3.574769763822716051
0.504000000000000337,-3.557341204861906192
0.505000000000000338,-3.540045459591946830
0.506000000000000338,-3.522880962474444377
0.507000000000000339,-3.505846123279249493
0.508000000000000340,-3.488939329310621673
0.509000000000000341,-3.472158947563910747
0.510000000000000342,-3.455503326813678111
0.511000000000000343,-3.438970799634448294
0.512000000000000344,-3.422559684355030551
0.513000000000000345,-3.406268286947596202
0.514000000000000346,-3.390094902852587744
0.515000000000000346,-3.374037818740531769
0.516000000000000347,-3.358095314211888560
0.517000000000000348,-3.342265663436138734
0.518000000000000349,-3.326547136731098586
0.519000000000000350,-3.310938002083748444
0.520000000000000351,-3.295436526613595873
0.521000000000000352,-3.280040977979820749
0.522000000000000353,-3.264749625733240013
0.523000000000000353,-3.249560742614323594
0.524000000000000354,-3.234472605798360156
0.525000000000000355,-3.219483498088915319
0.526000000000000356,-3.204591709060713889
0.527000000000000357,-3.189795536153110511
0.528000000000000358,-3.175093285715203884
0.529000000000000359,-3.160483274003810905
0.530000000000000360,-3.145963828135301732
0.531000000000000361,-3.131533286992499221
0.532000000000000361,-3.117190002087664613
0.533000000000000362,-3.102932338382709432
0.534000000000000363,-3.088758675067653225
0.535000000000000364,-3.074667406298457362
0.536000000000000365,-3.060656941895224747
0.537000000000000366,-3.046725708001873034
0.538000000000000367,-3.032872147708215671
0.539000000000000368,-3.019094721635632972
0.540000000000000369,-3.005391908487117014
0.541000000000000369,-2.991762205562917387
0.542000000000000370,-2.978204129242565390
0.543000000000000371,-2.964716215434374025
0.544000000000000372,-2.951297019993318393
0.545000000000000373,-2.937945119108231307
0.546000000000000374,-2.924659109659236034
0.547000000000000375,-2.911437609546331462
0.548000000000000376,-2.898279257990036495
0.549000000000000377,-2.885182715804948117
0.550000000000000377,-2.872146665647083541
0.551000000000000378,-2.859169812235852870
0.552000000000000379,-2.846250882551527361
0.553000000000000380,-2.833388626008957800
0.554000000000000381,-2.820581814608392079
0.555000000000000382,-2.807829243064204228
0.556000000000000383,-2.795129728912199241
0.557000000000000384,-2.782482112596406765
0.558000000000000385,-2.769885257535939616
0.559000000000000385,-2.757338050172783106
0.560000000000000386,-2.744839400001135132
0.561000000000000387,-2.732388239579042200
0.562000000000000388,-2.719983524522966878
0.563000000000000389,-2.707624233486012777
0.564000000000000390,-2.695309368120398563
0.565000000000000391,-2.683037953024853373
0.566000000000000392,-2.670809035677530030
0.567000000000000393,-2.658621686355092884
0.568000000000000393,-2.646474998038482962
0.569000000000000394,-2.634368086306024370
0.570000000000000395,-2.622300089214417262
0.571000000000000396,-2.610270167168098787
0.572000000000000397,-2.598277502777630144
0.573000000000000398,-2.586321300707504545
0.574000000000000399,-2.574400787513992039
0.575000000000000400,-2.562515211473433308
0.576000000000000401,-2.550663842401515780
0.577000000000000401,-2.538845971464007256
0.578000000000000402,-2.527060910979350261
0.579000000000000403,-2.515307994213601184
0.580000000000000404,-2.503586575168176509
0.581000000000000405,-2.491896028360733872
0.582000000000000406,-2.480235748599703527
0.583000000000000407,-2.468605150752765987
0.584000000000000408,-2.457003669509750132
0.585000000000000409,-2.445430759140258647
0.586000000000000409,-2.433885893246398702
0.587000000000000410,-2.422368564511014899
0.588000000000000411,-2.410878284441664299
0.589000000000000412,-2.399414583110796251
0.590000000000000413,-2.387977008892315123
0.591000000000000414,-2.376565128194946919
0.592000000000000415,-2.365178525192658476
0.593000000000000416,-2.353816801552402804
0.594000000000000417,-2.342479576159493426
0.595000000000000417,-2.331166484840930142
0.596000000000000418,-2.319877180086776569
0.597000000000000419,-2.308611330770060199
0.598000000000000420,-2.297368621865224281
0.599000000000000421,-2.286148754165539199
0.600000000000000422,-2.274951443999575940
0.601000000000000423,-2.263776422947025857
0.602000000000000424,-2.252623437554055918
0.603000000000000425,-2.241492249048405494
0.604000000000000425,-2.230382633054396990
0.605000000000000426,-2.219294379308077492
0.606000000000000427,-2.208227291372679701
0.607000000000000428,-2.197181186354469684
0.608000000000000429,-2.186155894619349116
0.609000000000000430,-2.175151259510116120
0.610000000000000431,-2.164167137064780810
0.611000000000000432,-2.153203395735885817
0.612000000000000433,-2.142259916111084017
0.613000000000000433,-2.131336590635072081
