# Gypsum-010_BSAIV5
# h[nm],U(h)[kJ/mol]
0.149999999999999994,183.065735212476340621
0.150999999999999995,182.345440081156652923
0.151999999999999996,179.732535737581343938
0.152999999999999997,176.689870001521484255
0.153999999999999998,173.768082775384158367
0.154999999999999999,171.087436802125779423
0.156000000000000000,168.597571451067949511
0.157000000000000001,166.206855959370869869
0.158000000000000002,163.838370582249581275
0.159000000000000002,161.447101853605744282
0.160000000000000003,159.018634976306486806
0.161000000000000004,156.560692201106917310
0.162000000000000005,154.093428075191781090
0.163000000000000006,151.641195392264990005
0.164000000000000007,149.226706856457724371
0.165000000000000008,146.867591279093346657
0.166000000000000009,144.574927431508314157
0.167000000000000010,142.353210476680288821
0.168000000000000010,140.201227382721299364
0.169000000000000011,138.113406477325554533
0.170000000000000012,136.081315338102228907
0.171000000000000013,134.095085652161145617
0.172000000000000014,132.144632043726858228
0.173000000000000015,130.220600461074951681
0.174000000000000016,128.315031053399593475
0.175000000000000017,126.421753106255323473
0.176000000000000018,124.536548830506120566
0.177000000000000018,122.657131918009781657
0.178000000000000019,120.782988739081446283
0.179000000000000020,118.915127310654114012
0.180000000000000021,117.055773629064944430
0.181000000000000022,115.208048066852640545
0.182000000000000023,113.375647288461294693
0.183000000000000024,111.562550214424504702
0.184000000000000025,109.772760362561101033
0.185000000000000026,108.010091626909087381
0.186000000000000026,106.278000290228717972
0.187000000000000027,104.579462779914393877
0.188000000000000028,102.916896287644590302
0.189000000000000029,101.292117765477115654
0.190000000000000030,99.706335857439086112
0.191000000000000031,98.160169897584225396
0.192000000000000032,96.653690082456833466
0.193000000000000033,95.186473200070864209
0.194000000000000034,93.757668776107536246
0.195000000000000034,92.366071103962141819
0.196000000000000035,91.010193296595559787
0.197000000000000036,89.688340186858368952
0.198000000000000037,88.398677573320441070
0.199000000000000038,87.139295935445090890
0.200000000000000039,85.908267308676485641
0.201000000000000040,84.703694507185076645
0.202000000000000041,83.523752305645388105
0.203000000000000042,82.366720541666012423
0.204000000000000042,81.231009380523332197
0.205000000000000043,80.115177198894002686
0.206000000000000044,79.017941700849561926
0.207000000000000045,77.938184984664573562
0.208000000000000046,76.874953340398519686
0.209000000000000047,75.827452583013695175
0.210000000000000048,74.795039720876658862
0.211000000000000049,73.777211731207614775
0.212000000000000050,72.773592168090658561
0.213000000000000050,71.783916270063699017
0.214000000000000051,70.808015167374577459
0.215000000000000052,69.845799717367782478
0.216000000000000053,68.897244423142680603
0.217000000000000054,67.962371818011490632
0.218000000000000055,67.041237628254947367
0.219000000000000056,66.133916960639695048
0.220000000000000057,65.240491700118781182
0.221000000000000058,64.361039247753652148
0.222000000000000058,63.495622679529745369
0.223000000000000059,62.644282363535396030
0.224000000000000060,61.807029035871494216
0.225000000000000061,60.983838304463077407
0.226000000000000062,60.174646524340460019
0.227000000000000063,59.379347967560875077
0.228000000000000064,58.597793195310579506
0.229000000000000065,57.829788528391041780
0.230000000000000066,57.075096504771565264
0.231000000000000066,56.333437208702569876
0.232000000000000067,55.604490354563914423
0.233000000000000068,54.887898009725610393
0.234000000000000069,54.183267843808266662
0.235000000000000070,53.490176796463380526
0.236000000000000071,52.808175061797669514
0.237000000000000072,52.136790294526619505
0.238000000000000073,51.475531950582741558
0.239000000000000073,50.823895682977465071
0.240000000000000074,50.181367722010620014
0.241000000000000075,49.547429177261626876
0.242000000000000076,48.921560207028143452
0.243000000000000077,48.303244008879417493
0.244000000000000078,47.691970592664986839
0.245000000000000079,47.087240304585222361
0.246000000000000080,46.488567077734884947
0.247000000000000081,45.895481390830390467
0.248000000000000081,45.307532922603243719
0.249000000000000082,44.724292894572656110
0.250000000000000111,44.145356099597293564
0.251000000000000112,43.570342617757589210
0.252000000000000113,42.998899224748413417
0.253000000000000114,42.430700501091656918
0.254000000000000115,41.865449653127612351
0.255000000000000115,41.302879058948128943
0.256000000000000116,40.742750554218034154
0.257000000000000117,40.184855474229948413
0.258000000000000118,39.629014469582536151
0.259000000000000119,39.075077113596165646
0.260000000000000120,38.522921320016457969
0.261000000000000121,37.972452589735397055
0.262000000000000122,37.423603105214205300
0.263000000000000123,36.876330691049147958
0.264000000000000123,36.330617658709691398
0.265000000000000124,35.786469552923406923
0.266000000000000125,35.243913816508452896
0.267000000000000126,34.702998389682697677
0.268000000000000127,34.163790259031607377
0.269000000000000128,33.626373970410909919
0.270000000000000129,33.090850119113213168
0.271000000000000130,32.557333829653458679
0.272000000000000131,32.025953236541127467
0.273000000000000131,31.496847976418081316
0.274000000000000132,30.970167700960171686
0.275000000000000133,30.446070618976801114
0.276000000000000134,29.924722075202986105
0.277000000000000135,29.406293172370197908
0.278000000000000136,28.890959442267785562
0.279000000000000137,28.378899570673315367
0.280000000000000138,27.870294180239095994
0.281000000000000139,27.365324674675349570
0.282000000000000139,26.864172146871091229
0.283000000000000140,26.367016352941295310
0.284000000000000141,25.874034753584560065
0.285000000000000142,25.385401623578744079
0.286000000000000143,24.901287229731916995
0.287000000000000144,24.421857077143318548
0.288000000000000145,23.947271223209220636
0.289000000000000146,23.477683658434955305
0.290000000000000147,23.013241752779585170
0.291000000000000147,22.554085765967329280
0.292000000000000148,22.100348419943557587
0.293000000000000149,21.652154531434216977
0.294000000000000150,21.209620702381027257
0.295000000000000151,20.772855065870935221
0.296000000000000152,20.341957085052978726
0.297000000000000153,19.917017402438787599
0.298000000000000154,19.498117736909708952
0.299000000000000155,19.085330825704847513
0.300000000000000155,18.678720408635726358
0.301000000000000156,18.278341251764519626
0.302000000000000157,17.884239207790336934
0.303000000000000158,17.496451310412481917
0.304000000000000159,17.115005899976246440
0.305000000000000160,16.739922777757037409
0.306000000000000161,16.371213386298308023
0.307000000000000162,16.008881013288338124
0.308000000000000163,15.652921016538282828
0.309000000000000163,15.303321067707662095
0.310000000000000164,14.960061412512752455
0.311000000000000165,14.623115145247021829
0.312000000000000166,14.292448495540133635
0.313000000000000167,13.968021125381241632
0.314000000000000168,13.649786434533973889
0.315000000000000169,13.337691872572520424
0.316000000000000170,13.031679255870765033
0.317000000000000171,12.731685087978677373
0.318000000000000171,12.437640881921419478
0.319000000000000172,12.149473483056409506
0.320000000000000173,11.867105391222072086
0.321000000000000174,11.590455081007775107
0.322000000000000175,11.319437319068196501
0.323000000000000176,11.053963477496234091
0.324000000000000177,10.793941842356387539
0.325000000000000178,10.539277916565747972
0.326000000000000179,10.289874716390729148
0.327000000000000179,10.045633060906432377
0.328000000000000180,9.806451853839908139
0.329000000000000181,9.572228357289818135
0.330000000000000182,9.342858456882897400
0.331000000000000183,9.118236917991334067
0.332000000000000184,8.898257632695994346
0.333000000000000185,8.682813857237494659
0.334000000000000186,8.471798439750381604
0.335000000000000187,8.265104038126162678
0.336000000000000187,8.062623327897387782
0.337000000000000188,7.864249200078965885
0.338000000000000189,7.669874948942741355
0.339000000000000190,7.479394449738984818
0.340000000000000191,7.292702326412732639
0.341000000000000192,7.109694109394302686
0.342000000000000193,6.930266383571868971
0.343000000000000194,6.754316926580242963
0.344000000000000195,6.581744837563674011
0.345000000000000195,6.412450656590957365
0.346000000000000196,6.246336474920841653
0.347000000000000197,6.083306036331701527
0.348000000000000198,5.923264829744393722
0.349000000000000199,5.766120173379796654
0.350000000000000200,5.611781290703296676
0.351000000000000201,5.460159378417716702
0.352000000000000202,5.311167666773596530
0.353000000000000203,5.164721472471809349
0.354000000000000203,5.020738244437895403
0.355000000000000204,4.879137602751193015
0.356000000000000205,4.739841371013459259
0.357000000000000206,4.602773602442824519
0.358000000000000207,4.467860599979057490
0.359000000000000208,4.335030930684803607
0.360000000000000209,4.204215434725618650
0.361000000000000210,4.075347229209259403
0.362000000000000210,3.948361707160886080
0.363000000000000211,3.823196531907156803
0.364000000000000212,3.699791627137404504
0.365000000000000213,3.578089162905067955
0.366000000000000214,3.458033537826950887
0.367000000000000215,3.339571357731968337
0.368000000000000216,3.222651411004533006
0.369000000000000217,3.107224640861554477
0.370000000000000218,2.993244114794575861
0.371000000000000218,2.880664991402130504
0.372000000000000219,2.769444484829632902
0.373000000000000220,2.659541827027038785
0.374000000000000221,2.550918228027023282
0.375000000000000222,2.443536834438952976
0.376000000000000223,2.337362686345948237
0.377000000000000224,2.232362672785465296
0.378000000000000225,2.128505485985626500
0.379000000000000226,2.025761574522474184
0.380000000000000226,1.924103095555424137
0.381000000000000227,1.823503866291344533
0.382000000000000228,1.723939314819897151
0.383000000000000229,1.625386430455949327
0.384000000000000230,1.527823713717687770
0.385000000000000231,1.431231126062077808
0.386000000000000232,1.335590039492785319
0.387000000000000233,1.240883186148700412
0.388000000000000234,1.147094607975201797
0.389000000000000234,1.054209606573570657
0.390000000000000235,0.962214693318201197
0.391000000000000236,0.871097539825171685
0.392000000000000237,0.780846928849986299
0.393000000000000238,0.691452705686834035
0.394000000000000239,0.602905730136308216
0.395000000000000240,0.515197829103252514
0.396000000000000241,0.428321749881615588
0.397000000000000242,0.342271114178210822
0.398000000000000242,0.257040372922707483
0.399000000000000243,0.172624761906958524
0.400000000000000244,0.089020258292130033
0.401000000000000245,0.006223538018425434
0.402000000000000246,-0.075768065851726421
0.403000000000000247,-0.156956603830189445
0.404000000000000248,-0.237343549715524460
0.405000000000000249,-0.316929839301195004
0.406000000000000250,-0.395715908062420019
0.407000000000000250,-0.473701727807720907
0.408000000000000251,-0.550886842283939582
0.409000000000000252,-0.627270401726168769
0.410000000000000253,-0.702851196346759632
0.411000000000000254,-0.777627688759741531
0.412000000000000255,-0.851598045339328147
0.413000000000000256,-0.924760166513482695
0.414000000000000257,-0.997111715995041115
0.415000000000000258,-1.068650148955335055
0.416000000000000258,-1.139372739146356617
0.417000000000000259,-1.209276604979675040
0.418000000000000260,-1.278358734571345634
0.419000000000000261,-1.346616009763774269
0.420000000000000262,-1.414045229136462467
0.421000000000000263,-1.480643130019072329
0.422000000000000264,-1.546406409520846292
0.423000000000000265,-1.611331744591937509
0.424000000000000266,-1.675415811132647592
0.425000000000000266,-1.738655302167517736
0.426000000000000267,-1.801046945102039221
0.427000000000000268,-1.862587518080208060
0.428000000000000269,-1.923273865461778254
0.429000000000000270,-1.983102912438636567
0.430000000000000271,-2.042071678809977975
0.431000000000000272,-2.100177291936520252
0.432000000000000273,-2.157416998894093663
0.433000000000000274,-2.213788177847345384
0.434000000000000274,-2.269288348664435961
0.435000000000000275,-2.323915182793661494
0.436000000000000276,-2.377666512423204370
0.437000000000000277,-2.430540338945070822
0.438000000000000278,-2.482534840744418325
0.439000000000000279,-2.533648380335409733
0.440000000000000280,-2.583879510864599105
0.441000000000000281,-2.633226982002809802
0.442000000000000282,-2.681689745246411682
0.443000000000000282,-2.729266958648496111
0.444000000000000283,-2.775957991000574498
0.445000000000000284,-2.821762425484916736
0.446000000000000285,-2.866680062817626329
0.447000000000000286,-2.910710923902227076
0.448000000000000287,-2.953855252013099175
0.449000000000000288,-2.996113514528157662
0.450000000000000289,-3.037486404229441384
0.451000000000000290,-3.077974840190278893
0.452000000000000290,-3.117579968267262025
0.453000000000000291,-3.156303161214769393
0.454000000000000292,-3.194146018439665280
0.455000000000000293,-3.231110365413250918
0.456000000000000294,-3.267198252757236077
0.457000000000000295,-3.302411955020166712
0.458000000000000296,-3.336753969160201727
0.459000000000000297,-3.370227012749971607
0.460000000000000298,-3.402834021918649476
0.461000000000000298,-3.434578149046084938
0.462000000000000299,-3.465462760223465555
0.463000000000000300,-3.495491432494434836
0.464000000000000301,-3.524667950890440604
0.465000000000000302,-3.552996305273411703
0.466000000000000303,-3.580480686998706918
0.467000000000000304,-3.607125485410775489
0.468000000000000305,-3.632935284183501867
0.469000000000000306,-3.657914857517024387
0.470000000000000306,-3.682069166202298849
0.471000000000000307,-3.705403353564211244
0.472000000000000308,-3.727922741293931974
0.473000000000000309,-3.749632825180607476
0.474000000000000310,-3.770539270752144567
0.475000000000000311,-3.790647908834644308
0.476000000000000312,-3.809964731039454655
0.477000000000000313,-3.828495885186732117
0.478000000000000314,-3.846247670673721419
0.479000000000000314,-3.863226533796025652
0.480000000000000315,-3.879439063029422208
0.481000000000000316,-3.894891984279793995
0.482000000000000317,-3.909592156108135264
0.483000000000000318,-3.923546564937526959
0.484000000000000319,-3.936762320248540448
0.485000000000000320,-3.949246649769194484
0.486000000000000321,-3.961006894665495714
0.487000000000000322,-3.972050504738118271
0.488000000000000322,-3.982385033630477800
0.489000000000000323,-3.992018134053510803
0.490000000000000324,-4.000957553031779135
0.491000000000000325,-4.009211127175555056
0.492000000000000326,-4.016786777983197609
0.493000000000000327,-4.023692507177948130
0.494000000000000328,-4.029936392082911212
0.495000000000000329,-4.035526581037972349
0.496000000000000330,-4.040471288861904320
0.497000000000000330,-4.044778792363127096
0.498000000000000331,-4.048457425901725415
0.499000000000000332,-4.051515577005959656
0.500000000000000333,-4.053961682045598813
0.501000000000000334,-4.055804221964508294
0.502000000000000335,-4.057051718074917268
0.503000000000000336,-4.057712727915247619
0.504000000000000337,-4.057795841173551743
0.505000000000000338,-4.057309675678189897
0.506000000000000338,-4.056262873457451512
0.507000000000000339,-4.054664096869498024
0.508000000000000340,-4.052522024803897338
0.509000000000000341,-4.049845348956087498
0.510000000000000342,-4.046642770175528980
0.511000000000000343,-4.042922994888742849
0.512000000000000344,-4.038694731597791687
0.513000000000000345,-4.033966687454983102
0.514000000000000346,-4.028747564914402446
0.515000000000000346,-4.023046058460580277
0.516000000000000347,-4.016870851414759080
0.517000000000000348,-4.010230612819023044
0.518000000000000349,-4.003133994398332618
0.519000000000000350,-3.995589627600725002
0.520000000000000351,-3.987606120715420310
0.521000000000000352,-3.979192056069054129
0.522000000000000353,-3.970355987299545752
0.523000000000000353,-3.961106436707604761
0.524000000000000354,-3.951451892685487799
0.525000000000000355,-3.941400807222577463
0.526000000000000356,-3.930961593487421801
0.527000000000000357,-3.920142623485759259
0.528000000000000358,-3.908952225793876689
0.529000000000000359,-3.897398683366869676
0.530000000000000360,-3.885490231420958285
0.531000000000000361,-3.873235055389366632
0.532000000000000361,-3.860641288950901640
0.533000000000000362,-3.847717012130507985
0.534000000000000363,-3.834470249470969261
0.535000000000000364,-3.820908968274987050
0.536000000000000365,-3.807041076916612976
0.537000000000000366,-3.792874423221331170
0.538000000000000367,-3.778416792913616096
0.539000000000000368,-3.763675908131300929
0.540000000000000369,-3.748659426005475748
0.541000000000000369,-3.733374937305211638
0.542000000000000370,-3.717829965145786897
0.543000000000000371,-3.702031963759677247
0.544000000000000372,-3.685988317329043529
0.545000000000000373,-3.669706338878787388
0.546000000000000374,-3.653193269229010554
0.547000000000000375,-3.636456276005846089
0.548000000000000376,-3.619502452709576268
0.549000000000000377,-3.602338817838904639
0.550000000000000377,-3.584972314070313359
0.551000000000000378,-3.567409807491325413
0.552000000000000379,-3.549658086886711139
0.553000000000000380,-3.531723863076334347
0.554000000000000381,-3.513613768303648133
0.555000000000000382,-3.495334355673774152
0.556000000000000383,-3.476892098639834394
0.557000000000000384,-3.458293390536742784
0.558000000000000385,-3.439544544161025730
0.559000000000000385,-3.420651791395829200
0.560000000000000386,-3.401621282879892849
0.561000000000000387,-3.382459087719406732
0.562000000000000388,-3.363171193241679013
0.563000000000000389,-3.343763504789594609
0.564000000000000390,-3.324241845555693686
0.565000000000000391,-3.304611956454910793
0.566000000000000392,-3.284879496034828428
0.567000000000000393,-3.265050040422564415
0.568000000000000393,-3.245129083307032314
0.569000000000000394,-3.225122035955759081
0.570000000000000395,-3.205034227265206592
0.571000000000000396,-3.184870903843477929
0.572000000000000397,-3.164637230124636602
0.573000000000000398,-3.144338288513464086
0.574000000000000399,-3.123979079559851435
0.575000000000000400,-3.103564522161786243
0.576000000000000401,-3.083099453796001477
0.577000000000000401,-3.062588630775519682
0.578000000000000402,-3.042036728532928169
0.579000000000000403,-3.021448341928704373
0.580000000000000404,-3.000827985583691682
0.581000000000000405,-2.980180094234706534
0.582000000000000406,-2.959509023112670612
0.583000000000000407,-2.938819048342176998
0.584000000000000408,-2.918114367361916983
0.585000000000000409,-2.897399099364976749
0.586000000000000409,-2.876677285758272529
0.587000000000000410,-2.855952890640444330
0.588000000000000411,-2.835229801297242780
0.589000000000000412,-2.814511828713910369
0.590000000000000413,-2.793802708103592991
0.591000000000000414,-2.773106099451228879
0.592000000000000415,-2.752425588072171525
0.593000000000000416,-2.731764685184783215
0.594000000000000417,-2.711126828496408070
0.595000000000000417,-2.690515382802142419
0.596000000000000418,-2.669933640595463675
0.597000000000000419,-2.649384822690505015
0.598000000000000420,-2.628872078854960215
0.599000000000000421,-2.608398488453335773
0.600000000000000422,-2.587967061099735400
0.601000000000000423,-2.567580737319726580
0.602000000000000424,-2.547242389220713221
0.603000000000000425,-2.526954821170241061
0.604000000000000425,-2.506720770481678962
0.605000000000000426,-2.486542908106846195
0.606000000000000427,-2.466423839335031953
0.607000000000000428,-2.446366104497798233
0.608000000000000429,-2.426372179679382235
0.609000000000000430,-2.406444477431842977
0.610000000000000431,-2.386585347494862397
0.611000000000000432,-2.366797077519503301
0.612000000000000433,-2.347081893795602614
0.613000000000000433,-2.327441961982380292
