# Gypsum-010_PHOSPHORICACID-AC
# h[nm],U(h)[kJ/mol]
0.149999999999999994,137.064692182922044594
0.150999999999999995,135.547176532434463070
0.151999999999999996,133.234951420898511287
0.152999999999999997,130.776706768753172128
0.153999999999999998,128.410565210639816769
0.154999999999999999,126.182832368568938364
0.156000000000000000,124.065313810203221578
0.157000000000000001,122.013242265167718870
0.158000000000000002,119.989932967156462951
0.159000000000000002,117.973972986394116447
0.160000000000000003,115.958183259730191139
0.161000000000000004,113.945495566086066219
0.162000000000000005,111.944398818551775321
0.163000000000000006,109.965151589943914701
0.164000000000000007,108.017147084502454391
0.165000000000000008,106.107401410783950269
0.166000000000000009,104.239953801552559298
0.167000000000000010,102.415915739801334894
0.168000000000000010,100.633921474251479822
0.169000000000000011,98.890777402241653249
0.170000000000000012,97.182160855056253013
0.171000000000000013,95.503268722555603176
0.172000000000000014,93.849358041914456408
0.173000000000000015,92.216152649065392666
0.174000000000000016,90.600112665847518656
0.175000000000000017,88.998578291587520539
0.176000000000000018,87.409807716025937907
0.177000000000000018,85.832932581961955520
0.178000000000000019,84.267854725724788523
0.179000000000000020,82.715106085012735093
0.180000000000000021,81.175690600127353491
0.181000000000000022,79.650923321138506594
0.182000000000000023,78.142278242036866232
0.183000000000000024,76.651252921549001940
0.184000000000000025,75.179254900655124061
0.185000000000000026,73.727512377176410041
0.186000000000000026,72.297009570438461878
0.187000000000000027,70.888445682528157477
0.188000000000000028,69.502215288765086143
0.189000000000000029,68.138407306236814520
0.190000000000000030,66.796819327914391806
0.191000000000000031,65.476984004190640576
0.192000000000000032,64.178204241700228749
0.193000000000000033,62.899594216029740323
0.194000000000000034,61.640123513524486043
0.195000000000000034,60.398662089183972057
0.196000000000000035,59.174024121851218183
0.197000000000000036,57.965009240949925129
0.198000000000000037,56.770439973634985620
0.199000000000000038,55.589194605482248335
0.200000000000000039,54.420234954269417926
0.201000000000000040,53.262628821058612516
0.202000000000000041,52.115567104508464524
0.203000000000000042,50.978375744015004045
0.204000000000000042,49.850522797272979858
0.205000000000000043,48.731621061528890948
0.206000000000000044,47.621426719114694492
0.207000000000000045,46.519834531053483317
0.208000000000000046,45.426870121900336130
0.209000000000000047,44.342679898686284901
0.210000000000000048,43.267519130778943293
0.211000000000000049,42.201738689242262126
0.212000000000000050,41.145770907063230482
0.213000000000000050,40.100114978223615481
0.214000000000000051,39.065322266422448649
0.215000000000000052,38.041981845316840349
0.216000000000000053,37.030706543094069616
0.217000000000000054,36.032119716331152404
0.218000000000000055,35.046842932458375230
0.219000000000000056,34.075484697474863083
0.220000000000000057,33.118630326387119567
0.221000000000000058,32.176833018496814987
0.222000000000000058,31.250606168307626831
0.223000000000000059,30.340416915503016781
0.224000000000000060,29.446680914088023684
0.225000000000000061,28.569758281242862097
0.226000000000000062,27.709950670490268720
0.227000000000000063,26.867499401175301443
0.228000000000000064,26.042584566713543381
0.229000000000000065,25.235325037276108873
0.230000000000000066,24.445779268246646154
0.231000000000000066,23.673946823597525224
0.232000000000000067,22.919770522998035744
0.233000000000000068,22.183139122703014579
0.234000000000000069,21.463890442812761705
0.235000000000000070,20.761814857099366805
0.236000000000000071,20.076659066037954915
0.237000000000000072,19.408130078760425619
0.238000000000000073,18.755899335186295929
0.239000000000000073,18.119606905421825616
0.240000000000000074,17.498865709513530931
0.241000000000000075,16.893265706683358474
0.242000000000000076,16.302378009155152228
0.243000000000000077,15.725758881525132793
0.244000000000000078,15.162953592265722591
0.245000000000000079,14.613500089327473574
0.246000000000000080,14.076932476879113310
0.247000000000000081,13.552784274968349365
0.248000000000000081,13.040591448278643583
0.249000000000000082,12.539895194186382099
0.250000000000000111,12.050244483984133836
0.251000000000000112,11.571198354431388111
0.252000000000000113,11.102327949729174250
0.253000000000000114,10.643218316603185514
0.254000000000000115,10.193469957430135509
0.255000000000000115,9.752700148276577607
0.256000000000000116,9.320544030351170406
0.257000000000000117,8.896655484723773100
0.258000000000000118,8.480707801256951228
0.259000000000000119,8.072394153547502782
0.260000000000000120,7.671427892309781171
0.261000000000000121,7.277542670069259145
0.262000000000000122,6.890492410293023617
0.263000000000000123,6.510051134185248500
0.264000000000000123,6.136012658336526648
0.265000000000000124,5.768190176256135615
0.266000000000000125,5.406415736550925111
0.267000000000000126,5.050539630160385762
0.268000000000000127,4.700429698627740294
0.269000000000000128,4.355970574896833369
0.270000000000000129,4.017062867584564323
0.271000000000000130,3.683622299100497877
0.272000000000000131,3.355578807380041440
0.273000000000000131,3.032875620372314174
0.274000000000000132,2.715468311788742817
0.275000000000000133,2.403323845978600382
0.276000000000000134,2.096419619160901693
0.277000000000000135,1.794742503613353746
0.278000000000000136,1.498287900801829498
0.279000000000000137,1.207058808833939789
0.280000000000000138,0.921064909039890134
0.281000000000000139,0.640321675925022760
0.282000000000000139,0.364849514205203285
0.283000000000000140,0.094672926128043150
0.284000000000000141,-0.170180288197156138
0.285000000000000142,-0.429679795190423541
0.286000000000000143,-0.683793455066505240
0.287000000000000144,-0.932488010522841249
0.288000000000000145,-1.175729735765493000
0.289000000000000146,-1.413485045125528305
0.290000000000000147,-1.645721060829930193
0.291000000000000147,-1.872406139773544309
0.292000000000000148,-2.093510359396587805
0.293000000000000149,-2.309005963003415651
0.294000000000000150,-2.518867765066554298
0.295000000000000151,-2.723073517244203767
0.296000000000000152,-2.921604236002250055
0.297000000000000153,-3.114444492873405856
0.298000000000000154,-3.301582668508653562
0.299000000000000155,-3.483011171779780479
0.300000000000000155,-3.658726625278761357
0.301000000000000156,-3.828730018630255305
0.302000000000000157,-3.993026831089974138
0.303000000000000158,-4.151627124943550129
0.304000000000000159,-4.304545611250946813
0.305000000000000160,-4.451801689499511383
0.306000000000000161,-4.593419462737204917
0.307000000000000162,-4.729427729756139342
0.308000000000000163,-4.859859955886721927
0.309000000000000163,-4.984754223945609297
0.310000000000000164,-5.104153166856607804
0.311000000000000165,-5.218103883433762746
0.312000000000000166,-5.326657838780992194
0.313000000000000167,-5.429870750723085671
0.314000000000000168,-5.527802463639647002
0.315000000000000169,-5.620516811027234994
0.316000000000000170,-5.708081468066002806
0.317000000000000171,-5.790567795415824115
0.318000000000000171,-5.868050675414406392
0.319000000000000172,-5.940608341796009384
0.320000000000000173,-6.008322203994578281
0.321000000000000174,-6.071276667040121033
0.322000000000000175,-6.129558948002096663
0.323000000000000176,-6.183258889878456621
0.324000000000000177,-6.232468773774659354
0.325000000000000178,-6.277283130162942371
0.326000000000000179,-6.317798549959678489
0.327000000000000179,-6.354113496106304382
0.328000000000000180,-6.386328116289059054
0.329000000000000181,-6.414544057383670506
0.330000000000000182,-6.438864282162843899
0.331000000000000183,-6.459392888758998197
0.332000000000000184,-6.476234933329481969
0.333000000000000185,-6.489496256329142732
0.334000000000000186,-6.499283312753812325
0.335000000000000187,-6.505703006679082634
0.336000000000000187,-6.508862530381341216
0.337000000000000188,-6.508869208291928388
0.338000000000000189,-6.505830346002080766
0.339000000000000190,-6.499853084503659950
0.340000000000000191,-6.491044259820536233
0.341000000000000192,-6.479510268157090636
0.342000000000000193,-6.465356936663228637
0.343000000000000194,-6.448689399890407792
0.344000000000000195,-6.429611981989292069
0.345000000000000195,-6.408228084678277980
0.346000000000000196,-6.384640080991267119
0.347000000000000197,-6.358949214794550997
0.348000000000000198,-6.331255506045201820
0.349000000000000199,-6.301657661747244177
0.350000000000000200,-6.270252992547509230
0.351000000000000201,-6.237137334899395924
0.352000000000000202,-6.202404978710850614
0.353000000000000203,-6.166148600381921696
0.354000000000000203,-6.128459201127321343
0.355000000000000204,-6.089426050470652996
0.356000000000000205,-6.049136634789365807
0.357000000000000206,-6.007676610782615612
0.358000000000000207,-5.965129763728161727
0.359000000000000208,-5.921577970389681589
0.360000000000000209,-5.877101166431445201
0.361000000000000210,-5.831777318193799076
0.362000000000000210,-5.785682398680240368
0.363000000000000211,-5.738890367604578380
0.364000000000000212,-5.691473155345293300
0.365000000000000213,-5.643500650653154871
0.366000000000000214,-5.595040691957768431
0.367000000000000215,-5.546159062118729999
0.368000000000000216,-5.496919486467705340
0.369000000000000217,-5.447383633988431839
0.370000000000000218,-5.397611121483237184
0.371000000000000218,-5.347659520575913206
0.372000000000000219,-5.297584367403135097
0.373000000000000220,-5.247439174848541832
0.374000000000000221,-5.197275447176226137
0.375000000000000222,-5.147142696922887950
0.376000000000000223,-5.097088463911155998
0.377000000000000224,-5.047158336249225385
0.378000000000000225,-4.997395973185542850
0.379000000000000226,-4.947843129690328468
0.380000000000000226,-4.898539682639529325
0.381000000000000227,-4.849523658479941268
0.382000000000000228,-4.800831262258289378
0.383000000000000229,-4.752496907900448875
0.384000000000000230,-4.704553249630802902
0.385000000000000231,-4.657031214425642496
0.386000000000000232,-4.609960035398065870
0.387000000000000233,-4.563367286015805213
0.388000000000000234,-4.517278915057045374
0.389000000000000234,-4.471719282213263646
0.390000000000000235,-4.426711194251579329
0.391000000000000236,-4.382275941653135831
0.392000000000000237,-4.338433335647343903
0.393000000000000238,-4.295201745565829121
0.394000000000000239,-4.252598136443073606
0.395000000000000240,-4.210638106794616142
0.396000000000000241,-4.169335926506876788
0.397000000000000242,-4.128704574776077330
0.398000000000000242,-4.088755778037173272
0.399000000000000243,-4.049500047826728455
0.400000000000000244,-4.010946718526882115
0.401000000000000245,-3.973103984940786315
0.402000000000000246,-3.935978939652525987
0.403000000000000247,-3.899577610127739291
0.404000000000000248,-3.863904995513825380
0.405000000000000249,-3.828965103101347189
0.406000000000000250,-3.794760984410876059
0.407000000000000250,-3.761294770872132709
0.408000000000000251,-3.728567709064622537
0.409000000000000252,-3.696580195491443899
0.410000000000000253,-3.665331810860172457
0.411000000000000254,-3.634821353846930947
0.412000000000000255,-3.605046874321841788
0.413000000000000256,-3.576005706016207597
0.414000000000000257,-3.547694498613476632
0.415000000000000258,-3.520109249248202676
0.416000000000000258,-3.493245333398692143
0.417000000000000259,-3.467097535161016708
0.418000000000000260,-3.441660076893445108
0.419000000000000261,-3.416926648222092577
0.420000000000000262,-3.392890434399908006
0.421000000000000263,-3.369544144012670106
0.422000000000000264,-3.346880036026812721
0.423000000000000265,-3.324889946175313415
0.424000000000000266,-3.303565312679097588
0.425000000000000266,-3.282897201302282575
0.426000000000000267,-3.262876329741012604
0.427000000000000268,-3.243493091346371759
0.428000000000000269,-3.224737578182884423
0.429000000000000270,-3.206599603425106970
0.430000000000000271,-3.189068723095430435
0.431000000000000272,-3.172134257147226410
0.432000000000000273,-3.155785309898015534
0.433000000000000274,-3.140010789818135528
0.434000000000000274,-3.124799428680940849
0.435000000000000275,-3.110139800081165529
0.436000000000000276,-3.096020337328702077
0.437000000000000277,-3.082429350725369055
0.438000000000000278,-3.069355044232899399
0.439000000000000279,-3.056785531540664458
0.440000000000000280,-3.044708851542068384
0.441000000000000281,-3.033112983228881454
0.442000000000000282,-3.021985860013173930
0.443000000000000282,-3.011315383486580899
0.444000000000000283,-3.001089436627196960
0.445000000000000284,-2.991295896464265081
0.446000000000000285,-2.981922646211258687
0.447000000000000286,-2.972957586878103520
0.448000000000000287,-2.964388648373208035
0.449000000000000288,-2.956203800106417479
0.450000000000000289,-2.948391061103776689
0.451000000000000290,-2.940938509645278920
0.452000000000000290,-2.933834292436742430
0.453000000000000291,-2.927066633326945500
0.454000000000000292,-2.920623841581284630
0.455000000000000293,-2.914494319723062610
0.456000000000000294,-2.908666570953626795
0.457000000000000295,-2.903129206162490483
0.458000000000000296,-2.897870950538449897
0.459000000000000297,-2.892880649792804792
0.460000000000000298,-2.888147276005561981
0.461000000000000298,-2.883659933105511275
0.462000000000000299,-2.879407861994926598
0.463000000000000300,-2.875380445329527745
0.464000000000000301,-2.871567211964289434
0.465000000000000302,-2.867957841075474690
0.466000000000000303,-2.864542165969196308
0.467000000000000304,-2.861310177586656067
0.468000000000000305,-2.858252027716068788
0.469000000000000306,-2.855358031921106043
0.470000000000000306,-2.852618672195637473
0.471000000000000307,-2.850024599354176402
0.472000000000000308,-2.847566635167563920
0.473000000000000309,-2.845235774253002781
0.474000000000000310,-2.843023185727507673
0.475000000000000311,-2.840920214633668284
0.476000000000000312,-2.838918383146406210
0.477000000000000313,-2.837009391569242922
0.478000000000000314,-2.835185119128404097
0.479000000000000314,-2.833437624572995084
0.480000000000000315,-2.831759146589110543
0.481000000000000316,-2.830142104035826112
0.482000000000000317,-2.828579096010556349
0.483000000000000318,-2.827062901751312030
0.484000000000000319,-2.825586480383083909
0.485000000000000320,-2.824142970515434392
0.486000000000000321,-2.822725689698202256
0.487000000000000322,-2.821328133742060817
0.488000000000000322,-2.819943975910406131
0.489000000000000323,-2.818567065989063369
0.490000000000000324,-2.817191429239903400
0.491000000000000325,-2.815811265244442918
0.492000000000000326,-2.814420946643256816
0.493000000000000327,-2.813015017776922200
0.494000000000000328,-2.811588193233968802
0.495000000000000329,-2.810135356311225685
0.496000000000000330,-2.808651557391701470
0.497000000000000330,-2.807132012245132202
0.498000000000000331,-2.805572100255902868
0.499000000000000332,-2.803967362583235534
0.500000000000000333,-2.802313500258110768
0.501000000000000334,-2.800606372221314366
0.502000000000000335,-2.798841993306963261
0.503000000000000336,-2.797016532175559345
0.504000000000000337,-2.795126309200594683
0.505000000000000338,-2.793167794312501506
0.506000000000000338,-2.791137604803714645
0.507000000000000339,-2.789032503098368476
0.508000000000000340,-2.786849394490058085
0.509000000000000341,-2.784585324851057031
0.510000000000000342,-2.782237478316065271
0.511000000000000343,-2.779803174943658028
0.512000000000000344,-2.777279868358285331
0.513000000000000345,-2.774665143375714571
0.514000000000000346,-2.771956713614650791
0.515000000000000346,-2.769152419097031803
0.516000000000000347,-2.766250223839597400
0.517000000000000348,-2.763248213439104095
0.518000000000000349,-2.760144592653404949
0.519000000000000350,-2.756937682980672655
0.520000000000000351,-2.753625920238780722
0.521000000000000352,-2.750207852146897114
0.522000000000000353,-2.746682135911136413
0.523000000000000353,-2.743047535816113047
0.524000000000000354,-2.739302920824146170
0.525000000000000355,-2.735447262183694050
0.526000000000000356,-2.731479631048616241
0.527000000000000357,-2.727399196109759227
0.528000000000000358,-2.723205221240225793
0.529000000000000359,-2.718897063155691463
0.530000000000000360,-2.714474169090983047
0.531000000000000361,-2.709936074494155633
0.532000000000000361,-2.705282400739136506
0.533000000000000362,-2.700512852858021340
0.534000000000000363,-2.695627217293977029
0.535000000000000364,-2.690625359675719253
0.536000000000000365,-2.685507222614378797
0.537000000000000366,-2.680272823523625725
0.538000000000000367,-2.674922252463721506
0.539000000000000368,-2.669455670010313142
0.540000000000000369,-2.663873305148489301
0.541000000000000369,-2.658175453192818782
0.542000000000000370,-2.652362473733812287
0.543000000000000371,-2.646434788611391475
0.544000000000000372,-2.640392879915784974
0.545000000000000373,-2.634237288016291423
0.546000000000000374,-2.627968609618252405
0.547000000000000375,-2.621587495848595406
0.548000000000000376,-2.615094650370264340
0.549000000000000377,-2.608490827525744127
0.550000000000000377,-2.601776830509957783
0.551000000000000378,-2.594953509572693218
0.552000000000000379,-2.588021760250756476
0.553000000000000380,-2.580982521629942017
0.554000000000000381,-2.573836774636933722
0.555000000000000382,-2.566585540361265849
0.556000000000000383,-2.559229878407246694
0.557000000000000384,-2.551770885276062995
0.558000000000000385,-2.544209692777858134
0.559000000000000385,-2.536547466473921819
0.560000000000000386,-2.528785404148827354
0.561000000000000387,-2.520924734312515625
0.562000000000000388,-2.512966714732173035
0.563000000000000389,-2.504912630993873623
0.564000000000000390,-2.496763795093756677
0.565000000000000391,-2.488521544058680313
0.566000000000000392,-2.480187238596127219
0.567000000000000393,-2.471762261773244429
0.568000000000000393,-2.463248017724743555
0.569000000000000394,-2.454645930389529163
0.570000000000000395,-2.445957442275818572
0.571000000000000396,-2.437184013254455550
0.572000000000000397,-2.428327119380307764
0.573000000000000398,-2.419388251741341644
0.574000000000000399,-2.410368915335233453
0.575000000000000400,-2.401270627973167926
0.576000000000000401,-2.392094919210564274
0.577000000000000401,-2.382843329304480839
0.578000000000000402,-2.373517408197325818
0.579000000000000403,-2.364118714526600495
0.580000000000000404,-2.354648814660424527
0.581000000000000405,-2.345109281758406716
0.582000000000000406,-2.335501694857664123
0.583000000000000407,-2.325827637983546303
0.584000000000000408,-2.316088699284848840
0.585000000000000409,-2.306286470193082749
0.586000000000000409,-2.296422544605510652
0.587000000000000410,-2.286498518091621079
0.588000000000000411,-2.276515987122636808
0.589000000000000412,-2.266476548323799634
0.590000000000000413,-2.256381797748981732
0.591000000000000414,-2.246233330177351828
0.592000000000000415,-2.236032738431735112
0.593000000000000416,-2.225781612718258806
0.594000000000000417,-2.215481539986985382
0.595000000000000417,-2.205134103313215022
0.596000000000000418,-2.194740881298951063
0.597000000000000419,-2.184303447494407191
0.598000000000000420,-2.173823369838966624
0.599000000000000421,-2.163302210121433866
0.600000000000000422,-2.152741523459103412
0.601000000000000423,-2.142142857795362509
0.602000000000000424,-2.131507753415455841
0.603000000000000425,-2.120837742480076837
0.604000000000000425,-2.110134348576426788
0.605000000000000426,-2.099399086286404259
0.606000000000000427,-2.088633460771639250
0.607000000000000428,-2.077838967374877832
0.608000000000000429,-2.067017091237644433
0.609000000000000430,-2.056169306933521845
0.610000000000000431,-2.045297078117047640
0.611000000000000432,-2.034401857187650986
0.612000000000000433,-2.023485084968405623
0.613000000000000433,-2.012548190399327197
