# Gypsum-010_2HYDROXYACETALDEHYDE-AC
# h[nm],U(h)[kJ/mol]
0.149999999999999994,103.442832970616535704
0.150999999999999995,101.805847984916979954
0.151999999999999996,99.889455538223927533
0.152999999999999997,97.943681724549875867
0.153999999999999998,96.065478179166731820
0.154999999999999999,94.274696522990296899
0.156000000000000000,92.557998013096067780
0.157000000000000001,90.892601478249375191
0.158000000000000002,89.257784735369128271
0.159000000000000002,87.639296461131550586
0.160000000000000003,86.029952808623534111
0.161000000000000004,84.428428046059210033
0.162000000000000005,82.837414677959628762
0.163000000000000006,81.261792062765223932
0.164000000000000007,79.707108233927584706
0.165000000000000008,78.178480345285194630
0.166000000000000009,76.679908110289247247
0.167000000000000010,75.213939596336416571
0.168000000000000010,73.781607961795600659
0.169000000000000011,72.382556691689757145
0.170000000000000012,71.015280201135880134
0.171000000000000013,69.677420437120943575
0.172000000000000014,68.366074788475060586
0.173000000000000015,67.078084246533109081
0.174000000000000016,65.810282389563099059
0.175000000000000017,64.559695063722642772
0.176000000000000018,63.323687641567815376
0.177000000000000018,62.100061693309861255
0.178000000000000019,60.887106131891094662
0.179000000000000020,59.683609737384188065
0.180000000000000021,58.488842758104468089
0.181000000000000022,57.302515315717343469
0.182000000000000023,56.124719853413886028
0.183000000000000024,54.955864056099393622
0.184000000000000025,53.796599691185804204
0.185000000000000026,52.647751780554429502
0.186000000000000026,51.510251498162936912
0.187000000000000027,50.385075246452345255
0.188000000000000028,49.273191530001724914
0.189000000000000029,48.175516532662513214
0.190000000000000030,47.092878718903989466
0.191000000000000031,46.025992317390304720
0.192000000000000032,44.975439195619912880
0.193000000000000033,43.941658386350425758
0.194000000000000034,42.924942365527343213
0.195000000000000034,41.925439093197141460
0.196000000000000035,40.943158799553202698
0.197000000000000036,39.977984514978786024
0.198000000000000037,39.029685394191020009
0.199000000000000038,38.097931960312322985
0.200000000000000039,37.182312486386237538
0.201000000000000040,36.282349832474217521
0.202000000000000041,35.397518160359126682
0.203000000000000042,34.527259050631172954
0.204000000000000042,33.670996645222686539
0.205000000000000043,32.828151529925925445
0.206000000000000044,31.998153154491348005
0.207000000000000045,31.180450661643771326
0.208000000000000046,30.374522060370519938
0.209000000000000047,29.579881733141018429
0.210000000000000048,28.796086311632443255
0.211000000000000049,28.022738991610047776
0.212000000000000050,27.259492385538884207
0.213000000000000050,26.506050032087138391
0.214000000000000051,25.762166695756725687
0.215000000000000052,25.027647598301783205
0.216000000000000053,24.302346727203666177
0.217000000000000054,23.586164366059822584
0.218000000000000055,22.879043988056935177
0.219000000000000056,22.180968647419270212
0.220000000000000057,21.491956995459297275
0.221000000000000058,20.812059038160924729
0.222000000000000058,20.141351741558658262
0.223000000000000059,19.479934579954424123
0.224000000000000060,18.827925110572230949
0.225000000000000061,18.185454646875097495
0.226000000000000062,17.552664091686729364
0.227000000000000063,16.929699980650575242
0.228000000000000064,16.316710776559542495
0.229000000000000065,15.713843445796445764
0.230000000000000066,15.121240339607712855
0.231000000000000066,14.539036395225320319
0.232000000000000067,13.967356664972703228
0.233000000000000068,13.406314175432864744
0.234000000000000069,12.856008113502813472
0.235000000000000070,12.316522331676152291
0.236000000000000071,11.787924161144202273
0.237000000000000072,11.270263518237287670
0.238000000000000073,10.763572287291392371
0.239000000000000073,10.267863961166460385
0.240000000000000074,9.783133519302845471
0.241000000000000075,9.309357522331016099
0.242000000000000076,8.846494401787905915
0.243000000000000077,8.394484923390489683
0.244000000000000078,7.953252802523626208
0.245000000000000079,7.522705451066501681
0.246000000000000080,7.102734835368195832
0.247000000000000081,6.693218426044955649
0.248000000000000081,6.294020221275871130
0.249000000000000082,5.904991826384280884
0.250000000000000111,5.525973573680370343
0.251000000000000112,5.156795667780015080
0.252000000000000113,4.797279342881350495
0.253000000000000114,4.447238019756714955
0.254000000000000115,4.106478451481833325
0.255000000000000115,3.774801848166476681
0.256000000000000116,3.452004972155582330
0.257000000000000117,3.137881196329156186
0.258000000000000118,2.832221519235011087
0.259000000000000119,2.534815531833640723
0.260000000000000120,2.245452331615644503
0.261000000000000121,1.963921380766495917
0.262000000000000122,1.690013305897875906
0.263000000000000123,1.423520637640597331
0.264000000000000123,1.164238489099581164
0.265000000000000124,0.911965172809256375
0.266000000000000125,0.666502756398462459
0.267000000000000126,0.427657557680699907
0.268000000000000127,0.195240580329963137
0.269000000000000128,-0.030932108311084238
0.270000000000000129,-0.251039055413599832
0.271000000000000130,-0.465253154680382752
0.272000000000000131,-0.673741429813638271
0.273000000000000131,-0.876664866862791547
0.274000000000000132,-1.074178292738901863
0.275000000000000133,-1.266430297077162592
0.276000000000000134,-1.453563194558014304
0.277000000000000135,-1.635713024757439626
0.278000000000000136,-1.813009586585628607
0.279000000000000137,-1.985576504385902608
0.280000000000000138,-2.153531322800572578
0.281000000000000139,-2.316985627564603245
0.282000000000000139,-2.476045189458072393
0.283000000000000140,-2.630810128733039654
0.284000000000000141,-2.781375097426475929
0.285000000000000142,-2.927829477076875797
0.286000000000000143,-3.070257589475786197
0.287000000000000144,-3.208738918204846691
0.288000000000000145,-3.343348338833448619
0.289000000000000146,-3.474156355778364791
0.290000000000000147,-3.601229343955952622
0.291000000000000147,-3.724629793486140095
0.292000000000000148,-3.844416555836391858
0.293000000000000149,-3.960645089920606488
0.294000000000000150,-4.073367706793219689
0.295000000000000151,-4.182633811700656068
0.296000000000000152,-4.288490142371030878
0.297000000000000153,-4.390981002537676758
0.298000000000000154,-4.490148489802566978
0.299000000000000155,-4.586032717051431895
0.300000000000000155,-4.678672026733333489
0.301000000000000156,-4.768103197413255501
0.302000000000000157,-4.854361642097122065
0.303000000000000158,-4.937481597913864206
0.304000000000000159,-5.017496306819602125
0.305000000000000160,-5.094438187063585310
0.306000000000000161,-5.168338995225553845
0.307000000000000162,-5.239229978698565660
0.308000000000000163,-5.307142018550886853
0.309000000000000163,-5.372105762755209568
0.310000000000000164,-5.434151749823438848
0.311000000000000165,-5.493310522930419992
0.312000000000000166,-5.549612734651132584
0.313000000000000167,-5.603089242472333531
0.314000000000000168,-5.653771195272449646
0.315000000000000169,-5.701690110992245764
0.316000000000000170,-5.746877945744158112
0.317000000000000171,-5.789367154629735168
0.318000000000000171,-5.829190744553379488
0.319000000000000172,-5.866382319336052475
0.320000000000000173,-5.900976117445331681
0.321000000000000174,-5.933007042668250186
0.322000000000000175,-5.962510688061102293
0.323000000000000176,-5.989523353515733284
0.324000000000000177,-6.014082057285213168
0.325000000000000178,-6.036224541813128397
0.326000000000000179,-6.055989274210627826
0.327000000000000179,-6.073415441723315489
0.328000000000000180,-6.088542942526780521
0.329000000000000181,-6.101412372185291311
0.330000000000000182,-6.112065006101963682
0.331000000000000183,-6.120542778282614726
0.332000000000000184,-6.126888256727371918
0.333000000000000185,-6.131144615756125127
0.334000000000000186,-6.133355605564689839
0.335000000000000187,-6.133565519299033042
0.336000000000000187,-6.131819157924930153
0.337000000000000188,-6.128161793159696558
0.338000000000000189,-6.122639128722376256
0.339000000000000190,-6.115297260147403158
0.340000000000000191,-6.106182633395753179
0.341000000000000192,-6.095342002486590971
0.342000000000000193,-6.082822386360801303
0.343000000000000194,-6.068671025177042821
0.344000000000000195,-6.052935336229195329
0.345000000000000195,-6.035662869663722674
0.346000000000000196,-6.016901264163890595
0.347000000000000197,-5.996698202757476892
0.348000000000000198,-5.975101368893949605
0.349000000000000199,-5.952158402926690073
0.350000000000000200,-5.927916859126005633
0.351000000000000201,-5.902424163338702456
0.352000000000000202,-5.875727571400618743
0.353000000000000203,-5.847874128399402238
0.354000000000000203,-5.818910628875825886
0.355000000000000204,-5.788883578043491518
0.356000000000000205,-5.757839154098574497
0.357000000000000206,-5.725823171683485313
0.358000000000000207,-5.692881046560517078
0.359000000000000208,-5.659057761544763920
0.360000000000000209,-5.624397833738493446
0.361000000000000210,-5.588945283102704664
0.362000000000000210,-5.552743602395516120
0.363000000000000211,-5.515835728501085278
0.364000000000000212,-5.478264015167420453
0.365000000000000213,-5.440070207166025185
0.366000000000000214,-5.401295415881711470
0.367000000000000215,-5.361980096336096402
0.368000000000000216,-5.322164025644288365
0.369000000000000217,-5.281886282900036811
0.370000000000000218,-5.241185230481187673
0.371000000000000218,-5.200098496763581934
0.372000000000000219,-5.158662960228676653
0.373000000000000220,-5.116914734947030752
0.374000000000000221,-5.074889157417294072
0.375000000000000222,-5.032620774737756264
0.376000000000000223,-4.990143334085548332
0.377000000000000224,-4.947489773476358543
0.378000000000000225,-4.904692213775921239
0.379000000000000226,-4.861781951932848678
0.380000000000000226,-4.818789455401133459
0.381000000000000227,-4.775744357719169386
0.382000000000000228,-4.732675455211414750
0.383000000000000229,-4.689610704777691375
0.384000000000000230,-4.646577222734400436
0.385000000000000231,-4.603601284671532845
0.386000000000000232,-4.560708326288613890
0.387000000000000233,-4.517922945172593074
0.388000000000000234,-4.475268903480294824
0.389000000000000234,-4.432769131488192293
0.390000000000000235,-4.390445731971882815
0.391000000000000236,-4.348319985378106267
0.392000000000000237,-4.306412355752017085
0.393000000000000238,-4.264742497382916220
0.394000000000000239,-4.223329262131738204
0.395000000000000240,-4.182190707404205732
0.396000000000000241,-4.141344104733891029
0.397000000000000242,-4.100805948939930445
0.398000000000000242,-4.060591967824828785
0.399000000000000243,-4.020717132378272218
0.400000000000000244,-3.981195667453536480
0.401000000000000245,-3.942041062883958169
0.402000000000000246,-3.903266085007337072
0.403000000000000247,-3.864882788567209904
0.404000000000000248,-3.826902528960519412
0.405000000000000249,-3.789335974802118479
0.406000000000000250,-3.752193120777254531
0.407000000000000250,-3.715483300754169882
0.408000000000000251,-3.679215201129628632
0.409000000000000252,-3.643396874381215067
0.410000000000000253,-3.608035752800942131
0.411000000000000254,-3.573138662385721975
0.412000000000000255,-3.538711836860988225
0.413000000000000256,-3.504760931814792535
0.414000000000000257,-3.471291038920324645
0.415000000000000258,-3.438306700225962409
0.416000000000000258,-3.405811922492511634
0.417000000000000259,-3.373810191558411109
0.418000000000000260,-3.342304486714302136
0.419000000000000261,-3.311297295069326019
0.420000000000000262,-3.280790625892277212
0.421000000000000263,-3.250786024911550331
0.422000000000000264,-3.221284588558590123
0.423000000000000265,-3.192286978140340015
0.424000000000000266,-3.163793433927032162
0.425000000000000266,-3.135803789142187270
0.426000000000000267,-3.108317483842676143
0.427000000000000268,-3.081333578677223350
0.428000000000000269,-3.054850768512506143
0.429000000000000270,-3.028867395916670979
0.430000000000000271,-3.003381464490700647
0.431000000000000272,-2.978390652038784836
0.432000000000000273,-2.953892323569379919
0.433000000000000274,-2.929883544119315619
0.434000000000000274,-2.906361091393839580
0.435000000000000275,-2.883321468216080152
0.436000000000000276,-2.860760914779975295
0.437000000000000277,-2.838675420701150642
0.438000000000000278,-2.817060736860869774
0.439000000000000279,-2.795912387038586022
0.440000000000000280,-2.775225679329070161
0.441000000000000281,-2.754995717340634087
0.442000000000000282,-2.735217411171371626
0.443000000000000282,-2.715885488160652450
0.444000000000000283,-2.696994503413719269
0.445000000000000284,-2.678538850097414326
0.446000000000000285,-2.660512769505500863
0.447000000000000286,-2.642910360892522625
0.448000000000000287,-2.625725591075214638
0.449000000000000288,-2.608952303801082451
0.450000000000000289,-2.592584228883842545
0.451000000000000290,-2.576614991105848684
0.452000000000000290,-2.561038118887871029
0.453000000000000291,-2.545847052726768922
0.454000000000000292,-2.531035153402003246
0.455000000000000293,-2.516595709952009763
0.456000000000000294,-2.502521947421777249
0.457000000000000295,-2.488807034383142991
0.458000000000000296,-2.475444090229502958
0.459000000000000297,-2.462426192246848000
0.460000000000000298,-2.449746382463173333
0.461000000000000298,-2.437397674278491522
0.462000000000000299,-2.425373058877835497
0.463000000000000300,-2.413665511429719412
0.464000000000000301,-2.402267997072744521
0.465000000000000302,-2.391173476693086108
0.466000000000000303,-2.380374912495702766
0.467000000000000304,-2.369865273372274928
0.468000000000000305,-2.359637540068900474
0.469000000000000306,-2.349684710156681788
0.470000000000000306,-2.339999802808456320
0.471000000000000307,-2.330575863384885427
0.472000000000000308,-2.321405967833308548
0.473000000000000309,-2.312483226902704914
0.474000000000000310,-2.303800790178226698
0.475000000000000311,-2.295351849938762179
0.476000000000000312,-2.287129644841072729
0.477000000000000313,-2.279127463433991085
0.478000000000000314,-2.271338647506268238
0.479000000000000314,-2.263756595271668282
0.480000000000000315,-2.256374764394822652
0.481000000000000316,-2.249186674861541668
0.482000000000000317,-2.242185911697060607
0.483000000000000318,-2.235366127535916014
0.484000000000000319,-2.228721045046962335
0.485000000000000320,-2.222244459217157075
0.486000000000000321,-2.215930239497637011
0.487000000000000322,-2.209772331815653246
0.488000000000000322,-2.203764760455857008
0.489000000000000323,-2.197901629814484448
0.490000000000000324,-2.192177126029869250
0.491000000000000325,-2.186585518492738967
0.492000000000000326,-2.181121161239705231
0.493000000000000327,-2.175778494233340687
0.494000000000000328,-2.170552044532153779
0.495000000000000329,-2.165436427353793825
0.496000000000000330,-2.160426347034721584
0.497000000000000330,-2.155516597889609365
0.498000000000000331,-2.150702064973571304
0.499000000000000332,-2.145977724750456339
0.500000000000000333,-2.141338645670219698
0.501000000000000334,-2.136779988658422447
0.502000000000000335,-2.132297007520885135
0.503000000000000336,-2.127885049266406980
0.504000000000000337,-2.123539554350461156
0.505000000000000338,-2.119256056842689251
0.506000000000000338,-2.115030184521021983
0.507000000000000339,-2.110857658895129330
0.508000000000000340,-2.106734295161897474
0.509000000000000341,-2.102656002095613985
0.510000000000000342,-2.098618781875347672
0.511000000000000343,-2.094618729852167682
0.512000000000000344,-2.090652034258580372
0.513000000000000345,-2.086714975862661969
0.514000000000000346,-2.082803927569274904
0.515000000000000346,-2.078915353970610003
0.516000000000000347,-2.075045810848386019
0.517000000000000348,-2.071191944629930504
0.518000000000000349,-2.067350491800212797
0.519000000000000350,-2.063518278272046480
0.520000000000000351,-2.059692218716425938
0.521000000000000352,-2.055869315855083812
0.522000000000000353,-2.052046659717139399
0.523000000000000353,-2.048221426861801309
0.524000000000000354,-2.044390879568960706
0.525000000000000355,-2.040552364999469681
0.526000000000000356,-2.036703314326847369
0.527000000000000357,-2.032841241842169744
0.528000000000000358,-2.028963744033727146
0.529000000000000359,-2.025068498643132653
0.530000000000000360,-2.021153263699374758
0.531000000000000361,-2.017215876532394425
0.532000000000000361,-2.013254252767616936
0.533000000000000362,-2.009266385302877822
0.534000000000000363,-2.005250343269127100
0.535000000000000364,-2.001204270976256971
0.536000000000000365,-1.997126386845329282
0.537000000000000366,-1.993014982328490614
0.538000000000000367,-1.988868420817739846
0.539000000000000368,-1.984685136543793194
0.540000000000000369,-1.980463633466093665
0.541000000000000369,-1.976202484155152872
0.542000000000000370,-1.971900328668184654
0.543000000000000371,-1.967555873419135626
0.544000000000000372,-1.963167890044042796
0.545000000000000373,-1.958735214262691482
0.546000000000000374,-1.954256744737456586
0.547000000000000375,-1.949731441930237397
0.548000000000000376,-1.945158326958316808
0.549000000000000377,-1.940536480449942314
0.550000000000000377,-1.935865041400427033
0.551000000000000378,-1.931143206029501513
0.552000000000000379,-1.926370226640651939
0.553000000000000380,-1.921545410483116001
0.554000000000000381,-1.916668118617180783
0.555000000000000382,-1.911737764783471905
0.556000000000000383,-1.906753814276733294
0.557000000000000384,-1.901715782824791034
0.558000000000000385,-1.896623235473136493
0.559000000000000385,-1.891475785475741800
0.560000000000000386,-1.886273093192539552
0.561000000000000387,-1.881014864994084324
0.562000000000000388,-1.875700852173801447
0.563000000000000389,-1.870330849868312439
0.564000000000000390,-1.864904695986158600
0.565000000000000391,-1.859422270145382416
0.566000000000000392,-1.853883492620264750
0.567000000000000393,-1.848288323297623492
0.568000000000000393,-1.842636760642913929
0.569000000000000394,-1.836928840676500085
0.570000000000000395,-1.831164635960365938
0.571000000000000396,-1.825344254595470783
0.572000000000000397,-1.819467839230113126
0.573000000000000398,-1.813535566079394368
0.574000000000000399,-1.807547643956116001
0.575000000000000400,-1.801504313313225136
0.576000000000000401,-1.795405845298021053
0.577000000000000401,-1.789252540818316861
0.578000000000000402,-1.783044729620647972
0.579000000000000403,-1.776782769380703453
0.580000000000000404,-1.770467044806125489
0.581000000000000405,-1.764097966751724034
0.582000000000000406,-1.757675971347285371
0.583000000000000407,-1.751201519137978835
0.584000000000000408,-1.744675094237525759
0.585000000000000409,-1.738097203494105347
0.586000000000000409,-1.731468375669123150
0.587000000000000410,-1.724789160628856122
0.588000000000000411,-1.718060128548983156
0.589000000000000412,-1.711281869132090350
0.590000000000000413,-1.704454990838083717
0.591000000000000414,-1.697580120127580638
0.592000000000000415,-1.690657900718254281
0.593000000000000416,-1.683688992854096345
0.594000000000000417,-1.676674072587614361
0.595000000000000417,-1.669613831074945764
0.596000000000000418,-1.662508973883773278
0.597000000000000419,-1.655360220314136210
0.598000000000000420,-1.648168302731945589
0.599000000000000421,-1.640933965915269521
0.600000000000000422,-1.633657966413256002
0.601000000000000423,-1.626341071917652314
0.602000000000000424,-1.618984060646858847
0.603000000000000425,-1.611587720742438945
0.604000000000000425,-1.604152849677976889
0.605000000000000426,-1.596680253680241579
0.606000000000000427,-1.589170747162562680
0.607000000000000428,-1.581625152170243354
0.608000000000000429,-1.574044297838088413
0.609000000000000430,-1.566429019859718386
0.610000000000000431,-1.558780159968787160
0.611000000000000432,-1.551098565431836773
0.612000000000000433,-1.543385088552734485
0.613000000000000433,-1.535640586188621537
