# TiO2-rut-110_ASPPSCA-JS
# h[nm],U(h)[kJ/mol]
0.149999999999999994,98.760599890858827621
0.150999999999999995,97.266669079913810947
0.151999999999999996,95.798290420050619787
0.152999999999999997,94.351424366552365086
0.153999999999999998,92.924405400188689441
0.154999999999999999,91.516936831095705429
0.156000000000000000,90.129322233770835737
0.157000000000000001,88.761950802602768817
0.158000000000000002,87.415003736825852343
0.159000000000000002,86.088330058419145985
0.160000000000000003,84.781438722864891133
0.161000000000000004,83.493560708172168461
0.162000000000000005,82.223744771250522945
0.163000000000000006,80.970960855235915687
0.164000000000000007,79.734194264883711867
0.165000000000000008,78.512521111021555953
0.166000000000000009,77.305161063290896095
0.167000000000000010,76.111507305068272444
0.168000000000000010,74.931136031774002504
0.169000000000000011,73.763799179693108954
0.170000000000000012,72.609404606363611379
0.171000000000000013,71.467987916084766198
0.172000000000000014,70.339679739001070402
0.173000000000000015,69.224671686992721220
0.174000000000000016,68.123183540015901372
0.175000000000000017,67.035433543174747228
0.176000000000000018,65.961613069959099676
0.177000000000000018,64.901866361252714910
0.178000000000000019,63.856275597316347614
0.179000000000000020,62.824851204013114625
0.180000000000000021,61.807527030559228365
0.181000000000000022,60.804159854890897918
0.182000000000000023,59.814532562741831612
0.183000000000000024,58.838360295240590858
0.184000000000000025,57.875298854973529217
0.185000000000000026,56.924954690605886753
0.186000000000000026,55.986895835176952119
0.187000000000000027,55.060663244415479767
0.188000000000000028,54.145782061696898779
0.189000000000000029,53.241772419858477861
0.190000000000000030,52.348159472611122567
0.191000000000000031,51.464482426501739099
0.192000000000000032,50.590302416063394730
0.193000000000000033,49.725209128533798264
0.194000000000000034,48.868826139606710512
0.195000000000000034,48.020814967890302682
0.196000000000000035,47.180877893280189994
0.197000000000000036,46.348759613788580225
0.198000000000000037,45.524247837176844200
0.199000000000000038,44.707172918810542228
0.200000000000000039,43.897406666345233361
0.201000000000000040,43.094860436023218142
0.202000000000000041,42.299482645359006483
0.203000000000000042,41.511255823616551197
0.204000000000000042,40.730193315463772308
0.205000000000000043,39.956335745198622078
0.206000000000000044,39.189747339554834582
0.207000000000000045,38.430512196824494708
0.208000000000000046,37.678730579305060644
0.209000000000000047,36.934515295246100663
0.210000000000000048,36.197988225824495601
0.211000000000000049,35.469277042441987646
0.212000000000000050,34.748512149986687803
0.213000000000000050,34.035823882756758962
0.214000000000000051,33.331339971589166282
0.215000000000000052,32.635183293420141126
0.216000000000000053,31.947469908043949260
0.217000000000000054,31.268307381228538588
0.218000000000000055,30.597793388567389172
0.219000000000000056,29.936014590460480633
0.220000000000000057,29.283045765370957270
0.221000000000000058,28.638949185950092868
0.222000000000000058,28.003774220692086772
0.223000000000000059,27.377557142417902725
0.224000000000000060,26.760321124024983419
0.225000000000000061,26.152076401517820869
0.226000000000000062,25.552820584291886519
0.227000000000000063,24.962539092923428541
0.228000000000000064,24.381205705267039008
0.229000000000000065,23.808783192430336584
0.230000000000000066,23.245224027138256417
0.231000000000000066,22.690471148073406482
0.232000000000000067,22.144458764951430396
0.233000000000000068,21.607113190325154761
0.234000000000000069,21.078353685382449356
0.235000000000000070,20.558093308285915413
0.236000000000000071,20.046239754875823991
0.237000000000000072,19.542696182804682792
0.238000000000000073,19.047362011378773161
0.239000000000000073,18.560133690536865458
0.240000000000000074,18.080905433489849798
0.241000000000000075,17.609569908572545671
0.242000000000000076,17.146018886813990889
0.243000000000000077,16.690143842612791047
0.244000000000000078,16.241836505709258631
0.245000000000000079,15.800989363374242203
0.246000000000000080,15.367496112388826290
0.247000000000000081,14.941252060968821525
0.248000000000000081,14.522154481298358064
0.249000000000000082,14.110102913779201117
0.250000000000000111,13.704999424480769576
0.251000000000000112,13.306748817594520773
0.252000000000000113,12.915258804958131833
0.253000000000000114,12.530440134926593032
0.254000000000000115,12.152206683029319834
0.255000000000000115,11.780475506972845068
0.256000000000000116,11.415166868628734420
0.257000000000000117,11.056204225691635301
0.258000000000000118,10.703514195706937073
0.259000000000000119,10.357026495153345280
0.260000000000000120,10.016673856228504036
0.261000000000000121,9.682391923927339050
0.262000000000000122,9.354119135926922013
0.263000000000000123,9.031796587700942069
0.264000000000000123,8.715367885184019059
0.265000000000000124,8.404778987193717299
0.266000000000000125,8.099978039697987242
0.267000000000000126,7.800915203890705030
0.268000000000000127,7.507542479908323685
0.269000000000000128,7.219813527890112326
0.270000000000000129,6.937683487952385875
0.271000000000000130,6.661108800515771478
0.272000000000000131,6.390047028295480658
0.273000000000000131,6.124456681137145253
0.274000000000000132,5.864297044757793564
0.275000000000000133,5.609528014331674584
0.276000000000000134,5.360109933745857980
0.277000000000000135,5.116003441241161909
0.278000000000000136,4.877169322048816369
0.279000000000000137,4.643568368534919166
0.280000000000000138,4.415161248271703975
0.281000000000000139,4.191908380367147302
0.282000000000000139,3.973769820303594713
0.283000000000000140,3.760705153460468519
0.284000000000000141,3.552673397426863833
0.285000000000000142,3.349632913145945246
0.286000000000000143,3.151541324874969074
0.287000000000000144,2.958355448892255879
0.288000000000000145,2.770031230834532288
0.289000000000000146,2.586523691506378952
0.290000000000000147,2.407786880965181453
0.291000000000000147,2.233773840652722775
0.292000000000000148,2.064436573315231893
0.293000000000000149,1.899726020429848061
0.294000000000000150,1.739592046834216532
0.295000000000000151,1.583983432239212785
0.296000000000000152,1.432847869290853948
0.297000000000000153,1.286131967837030654
0.298000000000000154,1.143781265046748263
0.299000000000000155,1.005740241024659198
0.300000000000000155,0.871952339560821188
0.301000000000000156,0.742359993655360095
0.302000000000000157,0.616904655458885953
0.303000000000000158,0.495526830273220864
0.304000000000000159,0.378166114261525965
0.305000000000000160,0.264761235523581440
0.306000000000000161,0.155250098199285175
0.307000000000000162,0.049569829272258156
0.308000000000000163,-0.052343172244918287
0.309000000000000163,-0.150553184051951977
0.310000000000000164,-0.245125107525571539
0.311000000000000165,-0.336124413193020610
0.312000000000000166,-0.423617084987620185
0.313000000000000167,-0.507669563547172409
0.314000000000000168,-0.588348688803338793
0.315000000000000169,-0.665721642097279132
0.316000000000000170,-0.739855888044079313
0.317000000000000171,-0.810819116355315339
0.318000000000000171,-0.878679183816494458
0.319000000000000172,-0.943504056603319041
0.320000000000000173,-1.005361753108103162
0.321000000000000174,-1.064320287435340351
0.322000000000000175,-1.120447613713422275
0.323000000000000176,-1.173811571357563865
0.324000000000000177,-1.224479831407646380
0.325000000000000178,-1.272519844053368709
0.326000000000000179,-1.317998787448584341
0.327000000000000179,-1.360983517906033446
0.328000000000000180,-1.401540521553827023
0.329000000000000181,-1.439735867525525626
0.330000000000000182,-1.475635162746214535
0.331000000000000183,-1.509303508368580626
0.332000000000000184,-1.540805457904327103
0.333000000000000185,-1.570204977088563325
0.334000000000000186,-1.597565405507243685
0.335000000000000187,-1.622949420010626698
0.336000000000000187,-1.646418999929178728
0.337000000000000188,-1.668035394101845315
0.338000000000000189,-1.687859089721071015
0.339000000000000190,-1.705949782993246844
0.340000000000000191,-1.722366351608171531
0.341000000000000192,-1.737166829006554281
0.342000000000000193,-1.750408380430028554
0.343000000000000194,-1.762147280734293719
0.344000000000000195,-1.772438893942043237
0.345000000000000195,-1.781337654509395518
0.346000000000000196,-1.788897050275986444
0.347000000000000197,-1.795169607066499085
0.348000000000000198,-1.800206874908733656
0.349000000000000199,-1.804059415831124058
0.350000000000000200,-1.806776793200737030
0.351000000000000201,-1.808407562560927717
0.352000000000000202,-1.808999263926469370
0.353000000000000203,-1.808598415492664646
0.354000000000000203,-1.807250508713873272
0.355000000000000204,-1.805000004706008410
0.356000000000000205,-1.801890331926924160
0.357000000000000206,-1.797963885088137204
0.358000000000000207,-1.793262025250790703
0.359000000000000208,-1.787825081058803889
0.360000000000000209,-1.781692351061978652
0.361000000000000210,-1.774902107081831160
0.362000000000000210,-1.767491598573274203
0.363000000000000211,-1.759497057935399678
0.364000000000000212,-1.750953706725177694
0.365000000000000213,-1.741895762728205455
0.366000000000000214,-1.732356447841396641
0.367000000000000215,-1.722367996722966810
0.368000000000000216,-1.711961666166027296
0.369000000000000217,-1.701167745152611044
0.370000000000000218,-1.690015565546087561
0.371000000000000218,-1.678533513380521258
0.372000000000000219,-1.666749040706742901
0.373000000000000220,-1.654688677955670428
0.374000000000000221,-1.642378046780570866
0.375000000000000222,-1.629841873340777125
0.376000000000000223,-1.617104001990779860
0.377000000000000224,-1.604187409339306480
0.378000000000000225,-1.591114218644358314
0.379000000000000226,-1.577905714511127488
0.380000000000000226,-1.564582357860979211
0.381000000000000227,-1.551163801140553522
0.382000000000000228,-1.537668903741429061
0.383000000000000229,-1.524115747601709092
0.384000000000000230,-1.510521652962018679
0.385000000000000231,-1.496903194249635805
0.386000000000000232,-1.483276216065350095
0.387000000000000233,-1.469655849248937329
0.388000000000000234,-1.456056526999997658
0.389000000000000234,-1.442492001032151139
0.390000000000000235,-1.428975357739429297
0.391000000000000236,-1.415519034354882466
0.392000000000000237,-1.402134835082251341
0.393000000000000238,-1.388833947182705364
0.394000000000000239,-1.375626956999408401
0.395000000000000240,-1.362523865903794151
0.396000000000000241,-1.349534106148200241
0.397000000000000242,-1.336666556610439205
0.398000000000000242,-1.323929558416815810
0.399000000000000243,-1.311330930430806951
0.400000000000000244,-1.298877984595530499
0.401000000000000245,-1.286577541118952617
0.402000000000000246,-1.274435943491369461
0.403000000000000247,-1.262459073325675751
0.404000000000000248,-1.250652365011471590
0.405000000000000249,-1.239020820174840498
0.406000000000000250,-1.227569021936234295
0.407000000000000250,-1.216301148959642697
0.408000000000000251,-1.205220989286709621
0.409000000000000252,-1.194331953950194869
0.410000000000000253,-1.183637090361632893
0.411000000000000254,-1.173139095468672233
0.412000000000000255,-1.162840328678045099
0.413000000000000256,-1.152742824540699651
0.414000000000000257,-1.142848305195972802
0.415000000000000258,-1.133158192572341516
0.416000000000000258,-1.123673620342494406
0.417000000000000259,-1.114395445631112258
0.418000000000000260,-1.105324260473967923
0.419000000000000261,-1.096460403027440078
0.420000000000000262,-1.087803968527837339
0.421000000000000263,-1.079354820000343329
0.422000000000000264,-1.071112598717595343
0.423000000000000265,-1.063076734408320290
0.424000000000000266,-1.055246455216768187
0.425000000000000266,-1.047620797413762350
0.426000000000000267,-1.040198614860697202
0.427000000000000268,-1.032978588227872141
0.428000000000000269,-1.025959233968819273
0.429000000000000270,-1.019138913052579420
0.430000000000000271,-1.012515839455908395
0.431000000000000272,-1.006088088417778525
0.432000000000000273,-0.999853604458524670
0.433000000000000274,-0.993810209166291925
0.434000000000000274,-0.987955608753483538
0.435000000000000275,-0.982287401386097825
0.436000000000000276,-0.976803084288954571
0.437000000000000277,-0.971500060629905682
0.438000000000000278,-0.966375646186250159
0.439000000000000279,-0.961427075796671082
0.440000000000000280,-0.956651509602052252
0.441000000000000281,-0.952046039078646267
0.442000000000000282,-0.947607692867169726
0.443000000000000282,-0.943333442401300237
0.444000000000000283,-0.939220207339352742
0.445000000000000284,-0.935264860802699771
0.446000000000000285,-0.931464234424671078
0.447000000000000286,-0.927815123213759030
0.448000000000000287,-0.924314290234758196
0.449000000000000288,-0.920958471111748445
0.450000000000000289,-0.917744378356626589
0.451000000000000290,-0.914668705527022619
0.452000000000000290,-0.911728131217415916
0.453000000000000291,-0.908919322887187242
0.454000000000000292,-0.906238940529471293
0.455000000000000293,-0.903683640184504311
0.456000000000000294,-0.901250077301283481
0.457000000000000295,-0.898934909951248251
0.458000000000000296,-0.896734801897683176
0.459000000000000297,-0.894646425524555533
0.460000000000000298,-0.892666464628413592
0.461000000000000298,-0.890791617076989284
0.462000000000000299,-0.889018597338075089
0.463000000000000300,-0.887344138882213529
0.464000000000000301,-0.885764996462736320
0.465000000000000302,-0.884277948276590231
0.466000000000000303,-0.882879798009366334
0.467000000000000304,-0.881567376767932842
0.468000000000000305,-0.880337544903968761
0.469000000000000306,-0.879187193731678640
0.470000000000000306,-0.878113247142958686
0.471000000000000307,-0.877112663123103098
0.472000000000000308,-0.876182435170260177
0.473000000000000309,-0.875319593621664560
0.474000000000000310,-0.874521206889654401
0.475000000000000311,-0.873784382610461763
0.476000000000000312,-0.873106268708667366
0.477000000000000313,-0.872484054380176621
0.478000000000000314,-0.871914970996482297
0.479000000000000314,-0.871396292933018124
0.480000000000000315,-0.870925338324201270
0.481000000000000316,-0.870499469747876065
0.482000000000000317,-0.870116094841645982
0.483000000000000318,-0.869772666853679377
0.484000000000000319,-0.869466685130389272
0.485000000000000320,-0.869195695543433899
0.486000000000000321,-0.868957290858351050
0.487000000000000322,-0.868749111047139921
0.488000000000000322,-0.868568843546989378
0.489000000000000323,-0.868414223467392388
0.490000000000000324,-0.868283033747717647
0.491000000000000325,-0.868173105267341816
0.492000000000000326,-0.868082316910339991
0.493000000000000327,-0.868008595586731602
0.494000000000000328,-0.867949916212169215
0.495000000000000329,-0.867904301647948406
0.496000000000000330,-0.867869822603132612
0.497000000000000330,-0.867844597500610604
0.498000000000000331,-0.867826792308699191
0.499000000000000332,-0.867814620340065068
0.500000000000000333,-0.867806342019532884
0.501000000000000334,-0.867800264622307416
0.502000000000000335,-0.867794741984226903
0.503000000000000336,-0.867788174185444516
0.504000000000000337,-0.867779007209012909
0.505000000000000338,-0.867765732575742854
0.506000000000000338,-0.867746886956690888
0.507000000000000339,-0.867721051764579698
0.508000000000000340,-0.867686852725386593
0.509000000000000341,-0.867642959431382921
0.510000000000000342,-0.867588084876721566
0.511000000000000343,-0.867520984976793308
0.512000000000000344,-0.867440458072388565
0.513000000000000345,-0.867345344419777176
0.514000000000000346,-0.867234525667729961
0.515000000000000346,-0.867106924322434525
0.516000000000000347,-0.866961503201307715
0.517000000000000348,-0.866797264876626228
0.518000000000000349,-0.866613251109823124
0.519000000000000350,-0.866408542277361304
0.520000000000000351,-0.866182256788959215
0.521000000000000352,-0.865933550499023541
0.522000000000000353,-0.865661616111979670
0.523000000000000353,-0.865365682582287632
0.524000000000000354,-0.865045014509842169
0.525000000000000355,-0.864698911531409875
0.526000000000000356,-0.864326707708763409
0.527000000000000357,-0.863927770914165394
0.528000000000000358,-0.863501502213739003
0.529000000000000359,-0.863047335249373715
0.530000000000000360,-0.862564735619620548
0.531000000000000361,-0.862053200260201935
0.532000000000000361,-0.861512256824550571
0.533000000000000362,-0.860941463064909485
0.534000000000000363,-0.860340406214418207
0.535000000000000364,-0.859708702370641120
0.536000000000000365,-0.859045995880933666
0.537000000000000366,-0.858351958730059872
0.538000000000000367,-0.857626289930398911
0.539000000000000368,-0.856868714915165919
0.540000000000000369,-0.856078984934887544
0.541000000000000369,-0.855256876457559323
0.542000000000000370,-0.854402190572685405
0.543000000000000371,-0.853514752399563426
0.544000000000000372,-0.852594410500047806
0.545000000000000373,-0.851641036296058140
0.546000000000000374,-0.850654523492056391
0.547000000000000375,-0.849634787502738908
0.548000000000000376,-0.848581764886150558
0.549000000000000377,-0.847495412782399926
0.550000000000000377,-0.846375708358185319
0.551000000000000378,-0.845222648257281106
0.552000000000000379,-0.844036248057162708
0.553000000000000380,-0.842816541731912339
0.554000000000000381,-0.841563581121518189
0.555000000000000382,-0.840277435407757345
0.556000000000000383,-0.838958190596681086
0.557000000000000384,-0.837605949007915407
0.558000000000000385,-0.836220828770772306
0.559000000000000385,-0.834802963327337499
0.560000000000000386,-0.833352500942563190
0.561000000000000387,-0.831869604221454173
0.562000000000000388,-0.830354449633391889
0.563000000000000389,-0.828807227043687811
0.564000000000000390,-0.827228139252349282
0.565000000000000391,-0.825617401540152840
0.566000000000000392,-0.823975241222015931
0.567000000000000393,-0.822301897207724730
0.568000000000000393,-0.820597619569993220
0.569000000000000394,-0.818862669119905684
0.570000000000000395,-0.817097316989723987
0.571000000000000396,-0.815301844223057515
0.572000000000000397,-0.813476541372417317
0.573000000000000398,-0.811621708104098838
0.574000000000000399,-0.809737652810427755
0.575000000000000400,-0.807824692229299424
0.576000000000000401,-0.805883151071018711
0.577000000000000401,-0.803913361652422109
0.578000000000000402,-0.801915663538202095
0.579000000000000403,-0.799890403189429611
0.580000000000000404,-0.797837933619257145
0.581000000000000405,-0.795758614055688374
0.582000000000000406,-0.793652809611454346
0.583000000000000407,-0.791520890960862311
0.584000000000000408,-0.789363234023632843
0.585000000000000409,-0.787180219655626789
0.586000000000000409,-0.784972233346418302
0.587000000000000410,-0.782739664923668199
0.588000000000000411,-0.780482908264192199
0.589000000000000412,-0.778202361011724686
0.590000000000000413,-0.775898424301237233
0.591000000000000414,-0.773571502489803331
0.592000000000000415,-0.771222002893917069
0.593000000000000416,-0.768850335533177942
0.594000000000000417,-0.766456912880288277
0.595000000000000417,-0.764042149617314426
0.596000000000000418,-0.761606462398049855
0.597000000000000419,-0.759150269616522988
0.598000000000000420,-0.756673991181460170
0.599000000000000421,-0.754178048296704540
0.600000000000000422,-0.751662863247472668
0.601000000000000423,-0.749128859192370378
0.602000000000000424,-0.746576459961110883
0.603000000000000425,-0.744006089857834008
0.604000000000000425,-0.741418173469936326
0.605000000000000426,-0.738813135482354721
0.606000000000000427,-0.736191400497231196
0.607000000000000428,-0.733553392858789843
0.608000000000000429,-0.730899536483509471
0.609000000000000430,-0.728230254695297452
0.610000000000000431,-0.725545970065788914
0.611000000000000432,-0.722847104259540019
0.612000000000000433,-0.720134077884088675
0.613000000000000433,-0.717407310344828630
0.614000000000000434,-0.714667219704560153
