# TiO2-rut-110_NC4-AC
# h[nm],U(h)[kJ/mol]
0.200000000000000011,155.144000023845990199
0.201000000000000012,151.189697346410554246
0.202000000000000013,148.631554168608374766
0.203000000000000014,146.745885199559353396
0.204000000000000015,145.115872033654568440
0.205000000000000016,143.521379711416500413
0.206000000000000016,141.863479789897780847
0.207000000000000017,140.113815899347088134
0.208000000000000018,138.281534699853835946
0.209000000000000019,136.392454754735268807
0.210000000000000020,134.476607723480981349
0.211000000000000021,132.561376213067035224
0.212000000000000022,130.668259977418472317
0.213000000000000023,128.811895726413752072
0.214000000000000024,127.000388422600209992
0.215000000000000024,125.236324032123206962
0.216000000000000025,123.518056084940752726
0.217000000000000026,121.841014504818346609
0.218000000000000027,120.198892699285693197
0.219000000000000028,118.584641176538156060
0.220000000000000029,116.991242946575312089
0.221000000000000030,115.412275074111022377
0.222000000000000031,113.842277442803947451
0.223000000000000032,112.276958055699694228
0.224000000000000032,110.713266921158719924
0.225000000000000033,109.149369815951530427
0.226000000000000034,107.584550422849204665
0.227000000000000035,106.019065502219220321
0.228000000000000036,104.453973539571251195
0.229000000000000037,102.890953139916632608
0.230000000000000038,101.332123572719950744
0.231000000000000039,99.779876448003719247
0.232000000000000040,98.236724584596515797
0.233000000000000040,96.705171722636322329
0.234000000000000041,95.187604808232734399
0.235000000000000042,93.686209093479774879
0.236000000000000043,92.202905195147607742
0.237000000000000044,90.739306482745490712
0.238000000000000045,89.296694664910347683
0.239000000000000046,87.876011159784710003
0.240000000000000047,86.477861723079556100
0.241000000000000048,85.102531825731219328
0.242000000000000048,83.750010386379273086
0.243000000000000049,82.420019643086135375
0.244000000000000050,81.112049169947368910
0.245000000000000051,79.825392288479562808
0.246000000000000052,78.559183376138690846
0.247000000000000053,77.312434823818904306
0.248000000000000054,76.084072632579179185
0.249000000000000055,74.872969861499569788
0.250000000000000056,73.677977339875369012
0.251000000000000056,72.497951235921732405
0.252000000000000057,71.331777230040600557
0.253000000000000058,70.178391173707098005
0.254000000000000059,69.036796226055429315
0.255000000000000060,67.906076550678051262
0.256000000000000061,66.785407726690351637
0.257000000000000062,65.674064082640313700
0.258000000000000063,64.571423201317529106
0.259000000000000064,63.476967869894522778
0.260000000000000064,62.390285765011263663
0.261000000000000065,61.311067168186511367
0.262000000000000066,60.239101004963039543
0.263000000000000067,59.174269492993957442
0.264000000000000068,58.116541671203641783
0.265000000000000069,57.065966065416468211
0.266000000000000070,56.022662726489365070
0.267000000000000071,54.986814855905116417
0.268000000000000071,53.958660211751350744
0.269000000000000072,52.938482465655887665
0.270000000000000073,51.926602659092147007
0.271000000000000074,50.923370885928321172
0.272000000000000075,49.929158307486716240
0.273000000000000076,48.944349586957031306
0.274000000000000077,47.969335811934392666
0.275000000000000078,47.004507957250361017
0.276000000000000079,46.050250925193907392
0.277000000000000079,45.106938186700737958
0.278000000000000080,44.174927035118003005
0.279000000000000081,43.254554453681443249
0.280000000000000082,42.346133588821103899
0.281000000000000083,41.449950813759528501
0.282000000000000084,40.566263360500194324
0.283000000000000085,39.695297493126609822
0.284000000000000086,38.837247191245296563
0.285000000000000087,37.992273309311805463
0.286000000000000087,37.160503175370962481
0.287000000000000088,36.342030591328722267
0.288000000000000089,35.536916196154237468
0.289000000000000090,34.745188153296695077
0.290000000000000091,33.966843124009912458
0.291000000000000092,33.201847489122357615
0.292000000000000093,32.450138783004661036
0.293000000000000094,31.711627304996603982
0.294000000000000095,30.986197875304394955
0.295000000000000095,30.273711704306787595
0.296000000000000096,29.574008346269884839
0.297000000000000097,28.886907710618242362
0.298000000000000098,28.212212106107063647
0.299000000000000099,27.549708295453008589
0.300000000000000100,26.899169540181183891
0.301000000000000101,26.260357617607326119
0.302000000000000102,25.633024793980098366
0.303000000000000103,25.016915739836527166
0.304000000000000103,24.411769375567775597
0.305000000000000104,23.817320637035013675
0.306000000000000105,23.233302152814012231
0.307000000000000106,22.659445826273362457
0.308000000000000107,22.095484317203261782
0.309000000000000108,21.541152419107824301
0.310000000000000109,20.996188329552058605
0.311000000000000110,20.460334812120557046
0.312000000000000111,19.933340249594351690
0.313000000000000111,19.414959588895936093
0.314000000000000112,18.904955179187918901
0.315000000000000113,18.403097505246481802
0.316000000000000114,17.909165818870366849
0.317000000000000115,17.422948671634880924
0.318000000000000116,16.944244352764471273
0.319000000000000117,16.472861236281808317
0.320000000000000118,16.008618041902561657
0.321000000000000119,15.551344014387552761
0.322000000000000119,15.100879026245191739
0.323000000000000120,14.657073608801562514
0.324000000000000121,14.219788916727093664
0.325000000000000122,13.788896631136301707
0.326000000000000123,13.364278806361946650
0.327000000000000124,12.945827665453473188
0.328000000000000125,12.533445349366040489
0.329000000000000126,12.127043624695529545
0.330000000000000127,11.726543554678631409
0.331000000000000127,11.331875138022079241
0.332000000000000128,10.942976919951808767
0.333000000000000129,10.559795579686255707
0.334000000000000130,10.182285498340544194
0.335000000000000131,9.810408311061816988
0.336000000000000132,9.444132446984760065
0.337000000000000133,9.083432660379859414
0.338000000000000134,8.728289556149128714
0.339000000000000135,8.378689112607235145
0.340000000000000135,8.034622204267785506
0.341000000000000136,7.696084127142077236
0.342000000000000137,7.363074128846825772
0.343000000000000138,7.035594945612885454
0.344000000000000139,6.713652348086860400
0.345000000000000140,6.397254697625508690
0.346000000000000141,6.086412514596341694
0.347000000000000142,5.781138060020028391
0.348000000000000143,5.481444931719529734
0.349000000000000143,5.187347675979127715
0.350000000000000144,4.898861415562383748
0.351000000000000145,4.616001494793485982
0.352000000000000146,4.338783142269086568
0.353000000000000147,4.067221151640432630
0.354000000000000148,3.801329580785490325
0.355000000000000149,3.541121469579839420
0.356000000000000150,3.286608576372185730
0.357000000000000151,3.037801133175367596
0.358000000000000151,2.794707619496629381
0.359000000000000152,2.557334554651554015
0.360000000000000153,2.325686308333350105
0.361000000000000154,2.099764929144913861
0.362000000000000155,1.879569990741436936
0.363000000000000156,1.665098455180232362
0.364000000000000157,1.456344553028068756
0.365000000000000158,1.253299679735900396
0.366000000000000159,1.055952307756989672
0.367000000000000159,0.864287913853794998
0.368000000000000160,0.678288921015401725
0.369000000000000161,0.497934654386298081
0.370000000000000162,0.323201310591804902
0.371000000000000163,0.154061939833474881
0.372000000000000164,-0.009513559880739209
0.373000000000000165,-0.167558437011374017
0.374000000000000166,-0.320109069909690125
0.375000000000000167,-0.467204940027487248
0.376000000000000167,-0.608888595552412704
0.377000000000000168,-0.745205606099791029
0.378000000000000169,-0.876204509084329564
0.379000000000000170,-1.001936748385025222
0.380000000000000171,-1.122456605905079341
0.381000000000000172,-1.237821126615050948
0.382000000000000173,-1.348090037653449702
0.383000000000000174,-1.453325662043067013
0.384000000000000175,-1.553592827564747925
0.385000000000000175,-1.648958771312753813
0.386000000000000176,-1.739493040438119920
0.387000000000000177,-1.825267389566934684
0.388000000000000178,-1.906355675362243929
0.389000000000000179,-1.982833748677906183
0.390000000000000180,-2.054779344733707713
0.391000000000000181,-2.122271971720927741
0.392000000000000182,-2.185392798227566935
0.393000000000000183,-2.244224539853017397
0.394000000000000183,-2.298851345361848875
0.395000000000000184,-2.349358682707237911
0.396000000000000185,-2.395833225234998753
0.397000000000000186,-2.438362738360394744
0.398000000000000187,-2.477035966991273597
0.399000000000000188,-2.511942523952784612
0.400000000000000189,-2.543172779651007964
0.401000000000000190,-2.570817753195818955
0.402000000000000191,-2.594969005186026134
0.403000000000000191,-2.615718532343638714
0.404000000000000192,-2.633158664168374852
0.405000000000000193,-2.647381961767889091
0.406000000000000194,-2.658481119004821203
0.407000000000000195,-2.666548866087243841
0.408000000000000196,-2.671677875715587902
0.409000000000000197,-2.673960671886032259
0.410000000000000198,-2.673489541437952699
0.411000000000000199,-2.670356448420678763
0.412000000000000199,-2.664652951344119280
0.413000000000000200,-2.656470123366193814
0.414000000000000201,-2.645898475460539689
0.415000000000000202,-2.633027882597557046
0.416000000000000203,-2.617947512963157308
0.417000000000000204,-2.600745760230661396
0.418000000000000205,-2.581510178893215546
0.419000000000000206,-2.560327422656563989
0.420000000000000207,-2.537283185884508185
0.421000000000000207,-2.512462148083300040
0.422000000000000208,-2.485947921404175087
0.423000000000000209,-2.457823001138360386
0.424000000000000210,-2.428168719172765222
0.425000000000000211,-2.397065200370049887
0.426000000000000212,-2.364591321832250514
0.427000000000000213,-2.330824675002634017
0.428000000000000214,-2.295841530557173549
0.429000000000000214,-2.259716806033179370
0.430000000000000215,-2.222524036139737369
0.431000000000000216,-2.184335345691960306
0.432000000000000217,-2.145221425108254643
0.433000000000000218,-2.105251508407968597
0.434000000000000219,-2.064493353644787810
0.435000000000000220,-2.023013225709658247
0.436000000000000221,-1.980875881435559815
0.437000000000000222,-1.938144556935452956
0.438000000000000222,-1.894880957103771690
0.439000000000000223,-1.851145247211155809
0.440000000000000224,-1.806996046521612609
0.441000000000000225,-1.762490423860914701
0.442000000000000226,-1.717683895065236666
0.443000000000000227,-1.672630422238511771
0.444000000000000228,-1.627382414747837291
0.445000000000000229,-1.581990731885992929
0.446000000000000230,-1.536504687130959113
0.447000000000000230,-1.490972053932905883
0.448000000000000231,-1.445439072959565641
0.449000000000000232,-1.399950460731890001
0.450000000000000233,-1.354549419582942171
0.451000000000000234,-1.309277648873461875
0.452000000000000235,-1.264175357399245581
0.453000000000000236,-1.219281276925970658
0.454000000000000237,-1.174632676788890384
0.455000000000000238,-1.130265379495536626
0.456000000000000238,-1.086213777271292313
0.457000000000000239,-1.042510849488764269
0.458000000000000240,-0.999188180923477831
0.459000000000000241,-0.956275980779535573
0.460000000000000242,-0.913803102430809533
0.461000000000000243,-0.871797063824084284
0.462000000000000244,-0.830284068492735949
0.463000000000000245,-0.789289027130254617
0.464000000000000246,-0.748835579675286023
0.465000000000000246,-0.708946117860639990
0.466000000000000247,-0.669641808180641673
0.467000000000000248,-0.630942615232607307
0.468000000000000249,-0.592867325389755173
0.469000000000000250,-0.555433570764310547
0.470000000000000251,-0.518657853421141346
0.471000000000000252,-0.482555569803631346
0.472000000000000253,-0.447141035335199777
0.473000000000000254,-0.412427509160940342
0.474000000000000254,-0.378427218995730563
0.475000000000000255,-0.345151386046213093
0.476000000000000256,-0.312610249975659893
0.477000000000000257,-0.280813093882033460
0.478000000000000258,-0.249768269260870118
0.479000000000000259,-0.219483220926002975
0.480000000000000260,-0.189964511862393964
0.481000000000000261,-0.161217847986577234
0.482000000000000262,-0.133248102791553524
0.483000000000000262,-0.106059341854151890
0.484000000000000263,-0.079654847183898231
0.485000000000000264,-0.054037141393926701
0.486000000000000265,-0.029208011675243208
0.487000000000000266,-0.005168533556909516
0.488000000000000267,0.018080905564172699
0.489000000000000268,0.040540583139268095
0.490000000000000269,0.062211418444008994
0.491000000000000270,0.083094949828038667
0.492000000000000270,0.103193312250687369
0.493000000000000271,0.122509215114073616
0.494000000000000272,0.141045920404337582
0.495000000000000273,0.158807221150806588
0.496000000000000274,0.175797420211990685
0.497000000000000275,0.192021309396685436
0.498000000000000276,0.207484148927444156
0.499000000000000277,0.222191647253240865
0.500000000000000222,0.236149941217191545
0.501000000000000334,0.249365576584633070
0.502000000000000224,0.261845488936183313
0.503000000000000336,0.273596984929820597
0.504000000000000226,0.284627723935290011
0.505000000000000338,0.294945700043785619
0.506000000000000227,0.304559224455032640
0.507000000000000339,0.313476908243639496
0.508000000000000229,0.321707645505885764
0.509000000000000341,0.329260596887766710
0.510000000000000231,0.336145173494493521
0.511000000000000343,0.342371021181473445
0.512000000000000233,0.347948005226123569
0.513000000000000345,0.352886195379626677
0.514000000000000234,0.357195851297261446
0.515000000000000346,0.360887408345816341
0.516000000000000236,0.363971463785933480
0.517000000000000348,0.366458763327157988
0.518000000000000238,0.368360188053121540
0.519000000000000350,0.369686741713959321
0.520000000000000240,0.370449538382890520
0.521000000000000352,0.370659790473463591
0.522000000000000242,0.370328797114073016
0.523000000000000353,0.369467932875718774
0.524000000000000243,0.368088636849221440
0.525000000000000355,0.366202402067492661
0.526000000000000245,0.363820765268694390
0.527000000000000357,0.360955296995639829
0.528000000000000247,0.357617592026865383
0.529000000000000359,0.353819260134565328
0.530000000000000249,0.349571917164471446
0.531000000000000361,0.344887176432667641
0.532000000000000250,0.339776640434308053
0.533000000000000362,0.334251892858904553
0.534000000000000252,0.328324490907126842
0.535000000000000364,0.322005957903525764
0.536000000000000254,0.315307776200037415
0.537000000000000366,0.308241380364668305
0.538000000000000256,0.300818150649973248
0.539000000000000368,0.293049406735752971
0.540000000000000258,0.284946401740506006
0.541000000000000369,0.276520316496035534
0.542000000000000259,0.267782254079683146
0.543000000000000371,0.258743234598600602
0.544000000000000261,0.249414190220549198
0.545000000000000373,0.239805960445578947
0.546000000000000263,0.229929287613200417
0.547000000000000375,0.219794812639372672
0.548000000000000265,0.209413070977923083
0.549000000000000377,0.198794488800885988
0.550000000000000266,0.187949379392353816
0.551000000000000378,0.176887939750408119
0.552000000000000268,0.165620247391856795
0.553000000000000380,0.154156257354351178
0.554000000000000270,0.142505799390739735
0.555000000000000382,0.130678575350393122
0.556000000000000272,0.118684156742320912
0.557000000000000384,0.106531982475082665
0.558000000000000274,0.094231356768317204
0.559000000000000385,0.081791447231036818
0.560000000000000275,0.069221283101726233
0.561000000000000387,0.056529753645348110
0.562000000000000277,0.043725606702633701
0.563000000000000389,0.030817447386727471
0.564000000000000279,0.017813736922756718
0.565000000000000391,0.004722791625626077
0.566000000000000281,-0.008447217988382305
0.567000000000000393,-0.021688267960679620
0.568000000000000282,-0.034992481524394180
0.569000000000000394,-0.048352129617695881
0.570000000000000284,-0.061759631280469907
0.571000000000000396,-0.075207553938667876
0.572000000000000286,-0.088688613580170689
0.573000000000000398,-0.102195674826229682
0.574000000000000288,-0.115721750902327100
0.575000000000000400,-0.129260003512335436
0.576000000000000290,-0.142803742619544483
0.577000000000000401,-0.156346426138400829
0.578000000000000291,-0.169881659540349894
0.579000000000000403,-0.183403195377415090
0.580000000000000293,-0.196904932726809895
0.581000000000000405,-0.210380916560045289
0.582000000000000295,-0.223825337039658928
0.583000000000000407,-0.237232528746897930
0.584000000000000297,-0.250596969843287609
0.585000000000000409,-0.263913281169359082
0.586000000000000298,-0.277176225283205901
0.587000000000000410,-0.290380705442072951
0.588000000000000300,-0.303521764529502025
0.589000000000000412,-0.316594583930994378
0.590000000000000302,-0.329594482360701213
0.591000000000000414,-0.342516914641929016
0.592000000000000304,-0.355357470443754209
0.593000000000000416,-0.368111872976413679
0.594000000000000306,-0.380775977647784813
0.595000000000000417,-0.393345770683262763
0.596000000000000307,-0.405817367711311661
0.597000000000000419,-0.418187012316943385
0.598000000000000309,-0.430451074565190772
0.599000000000000421,-0.442606049496616749
0.600000000000000311,-0.454648555596988246
0.601000000000000423,-0.466575333242963186
0.602000000000000313,-0.478383243125667046
0.603000000000000425,-0.490069264654082182
0.604000000000000314,-0.501630494339926569
0.605000000000000426,-0.513064144165790714
0.606000000000000316,-0.524367539938135785
0.607000000000000428,-0.535538119626846276
0.608000000000000318,-0.546573431692790046
0.609000000000000430,-0.557471133404939923
0.610000000000000320,-0.568228989148483743
0.611000000000000432,-0.578844868725342798
0.612000000000000322,-0.589316745648366558
0.613000000000000433,-0.599642695430629979
0.614000000000000323,-0.609820893870951508
0.615000000000000435,-0.619849615336948268
0.616000000000000325,-0.629727231046664615
0.617000000000000437,-0.639452207350021395
0.618000000000000327,-0.649023104011066776
0.619000000000000439,-0.658438572492065610
0.620000000000000329,-0.667697354240452401
0.621000000000000441,-0.676798278979583112
0.622000000000000330,-0.685740263004139816
0.623000000000000442,-0.694522307481179380
0.624000000000000332,-0.703143496757475117
0.625000000000000444,-0.711602996674171928
0.626000000000000334,-0.719900052889301145
0.627000000000000446,-0.728033989209029953
0.628000000000000336,-0.736004205928251776
0.629000000000000448,-0.743810178181260162
0.630000000000000338,-0.751451454302994093
0.631000000000000449,-0.758927654201656199
0.632000000000000339,-0.766238467743034724
0.633000000000000451,-0.773383653147281303
0.634000000000000341,-0.780363035398471960
0.635000000000000453,-0.787176504667620014
0.636000000000000343,-0.793824014749370699
0.637000000000000455,-0.800305581513023889
0.638000000000000345,-0.806621281368139931
0.639000000000000457,-0.812771249745160906
0.640000000000000346,-0.818755679591410379
0.641000000000000458,-0.824574819882766930
0.642000000000000348,-0.830228974151358656
0.643000000000000460,-0.835718499029552975
0.644000000000000350,-0.841043802810456320
0.645000000000000462,-0.846205344025285244
0.646000000000000352,-0.851203630037694503
0.647000000000000464,-0.856039215655384211
0.648000000000000353,-0.860712701759112742
0.649000000000000465,-0.865224733949304659
0.650000000000000355,-0.869576001210394800
0.651000000000000467,-0.873767234593052722
0.652000000000000357,-0.877799205914442382
0.653000000000000469,-0.881672726476536162
0.654000000000000359,-0.885388645802678509
0.655000000000000471,-0.888947850392381111
0.656000000000000361,-0.892351262494493591
0.657000000000000473,-0.895599838898719414
0.658000000000000362,-0.898694569745591698
0.659000000000000474,-0.901636477354869847
0.660000000000000364,-0.904426615072399520
0.661000000000000476,-0.907066066135438276
0.662000000000000366,-0.909555942556414587
0.663000000000000478,-0.911897384025133539
0.664000000000000368,-0.914091556829349727
0.665000000000000480,-0.916139652793736325
