# TiO2-rut-110_ILESCA-AC
# h[nm],U(h)[kJ/mol]
0.149999999999999994,129.437446439092866513
0.150999999999999995,128.200398213250252866
0.151999999999999996,126.358096534159358271
0.152999999999999997,124.363893417835242872
0.153999999999999998,122.400135565827810069
0.154999999999999999,120.516562168130079158
0.156000000000000000,118.706451569014035385
0.157000000000000001,116.945783951491335984
0.158000000000000002,115.211248494749270321
0.159000000000000002,113.486782658389145695
0.160000000000000003,111.764396117913037187
0.161000000000000004,110.042556845063060678
0.162000000000000005,108.323896586990485957
0.163000000000000006,106.613087925191621252
0.164000000000000007,104.915229151963899312
0.165000000000000008,103.234797702593851909
0.166000000000000009,101.575101401413434132
0.167000000000000010,99.938107881367130858
0.168000000000000010,98.324527946386226063
0.169000000000000011,96.734045223753412301
0.170000000000000012,95.165608784271043419
0.171000000000000013,93.617730194157530832
0.172000000000000014,92.088748150449873719
0.173000000000000015,90.577041090969728998
0.174000000000000016,89.081180833960502241
0.175000000000000017,87.600028880648039831
0.176000000000000018,86.132782247377150497
0.177000000000000018,84.678978368351337735
0.178000000000000019,83.238469446943469165
0.179000000000000020,81.811376242113325929
0.180000000000000021,80.398030139989344889
0.181000000000000022,78.998910842781612018
0.182000000000000023,77.614585367193484444
0.183000000000000024,76.245652456059929136
0.184000000000000025,74.892695076751309102
0.185000000000000026,73.556242464520252611
0.186000000000000026,72.236742189180972673
0.187000000000000027,70.934541975792669177
0.188000000000000028,69.649880475601634089
0.189000000000000029,68.382885835090718274
0.190000000000000030,67.133580717629527612
0.191000000000000031,65.901892362622902510
0.192000000000000032,64.687666291754084114
0.193000000000000033,63.490682364545719452
0.194000000000000034,62.310672023391383334
0.195000000000000034,61.147335732709940714
0.196000000000000035,60.000359793014446552
0.197000000000000036,58.869431887005191584
0.198000000000000037,57.754254882903083512
0.199000000000000038,56.654558574359569434
0.200000000000000039,55.570109172802098385
0.201000000000000040,54.500716485111965426
0.202000000000000041,53.446238806550013578
0.203000000000000042,52.406585636303894660
0.204000000000000042,51.381718382101517761
0.205000000000000043,50.371649262668952929
0.206000000000000044,49.376438644326640315
0.207000000000000045,48.396191062773297631
0.208000000000000046,47.431050185160430033
0.209000000000000047,46.481192962907222466
0.210000000000000048,45.546823214201864971
0.211000000000000049,44.628164858474491439
0.212000000000000050,43.725455004805048986
0.213000000000000050,42.838937073552202150
0.214000000000000051,41.968854106556122474
0.215000000000000052,41.115442396994680507
0.216000000000000053,40.278925546097639199
0.217000000000000054,39.459509031021056558
0.218000000000000055,38.657375346689903495
0.219000000000000056,37.872679764640402311
0.220000000000000057,37.105546734031420897
0.221000000000000058,36.356066934166037186
0.222000000000000058,35.624294974096343935
0.223000000000000059,34.910247723165383604
0.224000000000000060,34.213903246590511742
0.225000000000000061,33.535200312315467386
0.226000000000000062,32.874038429217520729
0.227000000000000063,32.230278372209987481
0.228000000000000064,31.603743146668243469
0.229000000000000065,30.994219342768218439
0.230000000000000066,30.401458829603257072
0.231000000000000066,29.825180739176367695
0.232000000000000067,29.265073691405611100
0.233000000000000068,28.720798212986938580
0.234000000000000069,28.191989305203332350
0.235000000000000070,27.678259118431164154
0.236000000000000071,27.179199694068920223
0.237000000000000072,26.694385737802726055
0.238000000000000073,26.223377391444604001
0.239000000000000073,25.765722973962272846
0.240000000000000074,25.320961665697005571
0.241000000000000075,24.888626113092009007
0.242000000000000076,24.468244934481322872
0.243000000000000077,24.059345110584878569
0.244000000000000078,23.661454246292617398
0.245000000000000079,23.274102693078333459
0.246000000000000080,22.896825523948553638
0.247000000000000081,22.529164355192744296
0.248000000000000081,22.170669011356061162
0.249000000000000082,21.820899031800831125
0.250000000000000111,21.479425018963105742
0.251000000000000112,21.145829829948663559
0.252000000000000113,20.819709614456417768
0.253000000000000114,20.500674703176546387
0.254000000000000115,20.188350351792418991
0.255000000000000115,19.882377346534191531
0.256000000000000116,19.582412477895953629
0.257000000000000117,19.288128889652035980
0.258000000000000118,18.999216310701665833
0.259000000000000119,18.715381177547442348
0.260000000000000120,18.436346655383076154
0.261000000000000121,18.161852565842121265
0.262000000000000122,17.891655229450968534
0.263000000000000123,17.625527230748833318
0.264000000000000123,17.363257113892537120
0.265000000000000124,17.104649016365431891
0.266000000000000125,16.849522248165392568
0.267000000000000126,16.597710823564931104
0.268000000000000127,16.349062952223896161
0.269000000000000128,16.103440496099011625
0.270000000000000129,15.860718398240823745
0.271000000000000130,15.620784089201800171
0.272000000000000131,15.383536876405756288
0.273000000000000131,15.148887321451349308
0.274000000000000132,14.916756609945798218
0.275000000000000133,14.687075918091744953
0.276000000000000134,14.459785779883668866
0.277000000000000135,14.234835458412820941
0.278000000000000136,14.012182324432529867
0.279000000000000137,13.791791245001641997
0.280000000000000138,13.573633984703599609
0.281000000000000139,13.357688621632750170
0.282000000000000139,13.143938980049913567
0.283000000000000140,12.932374081335087368
0.284000000000000141,12.722987614608209483
0.285000000000000142,12.515777428147895733
0.286000000000000143,12.310745042514049885
0.287000000000000144,12.107895186072726190
0.288000000000000145,11.907235353429591385
0.289000000000000146,11.708775387103326437
0.290000000000000147,11.512527082608981388
0.291000000000000147,11.318503816976519971
0.292000000000000148,11.126720200597510768
0.293000000000000149,10.937191752175795756
0.294000000000000150,10.749934596452527913
0.295000000000000151,10.564965184283524380
0.296000000000000152,10.382300034565693281
0.297000000000000153,10.201955497439147535
0.298000000000000154,10.023947538131361412
0.299000000000000155,9.848291540759323226
0.300000000000000155,9.675002131363701352
0.301000000000000156,9.504093019415574162
0.302000000000000157,9.335576857009879603
0.303000000000000158,9.169465114940759776
0.304000000000000159,9.005767974840694023
0.305000000000000160,8.844494236558345435
0.306000000000000161,8.685651239947587143
0.307000000000000162,8.529244800242905100
0.308000000000000163,8.375279156202902087
0.309000000000000163,8.223756930214038974
0.310000000000000164,8.074679099560174933
0.311000000000000165,7.928044978079975991
0.312000000000000166,7.783852207453011651
0.313000000000000167,7.642096757376359406
0.314000000000000168,7.502772933916157960
0.315000000000000169,7.365873395342800833
0.316000000000000170,7.231389174783624085
0.317000000000000171,7.099309709053393647
0.318000000000000171,6.969622873049786449
0.319000000000000172,6.842315019128338172
0.320000000000000173,6.717371020899259193
0.321000000000000174,6.594774320916245713
0.322000000000000175,6.474506981755128621
0.323000000000000176,6.356549740007909399
0.324000000000000177,6.240882062744928405
0.325000000000000178,6.127482206024919442
0.326000000000000179,6.016327275058801938
0.327000000000000179,5.907393285659188642
0.328000000000000180,5.800655226632448702
0.329000000000000181,5.696087122794581958
0.330000000000000182,5.593662098315981268
0.331000000000000183,5.493352440122679425
0.332000000000000184,5.395129661103905683
0.333000000000000185,5.298964562896834707
0.334000000000000186,5.204827298039504058
0.335000000000000187,5.112687431302467722
0.336000000000000187,5.022514000027908487
0.337000000000000188,4.934275573322845609
0.338000000000000189,4.847940309969382966
0.339000000000000190,4.763476014930906111
0.340000000000000191,4.680850194348150417
0.341000000000000192,4.600030108932822159
0.342000000000000193,4.520982825680001760
0.343000000000000194,4.443675267832647435
0.344000000000000195,4.368074263043510541
0.345000000000000195,4.294146589690126525
0.346000000000000196,4.221859021309080084
0.347000000000000197,4.151178369124860268
0.348000000000000198,4.082071522657322760
0.349000000000000199,4.014505488399883859
0.350000000000000200,3.948447426567793794
0.351000000000000201,3.883864685922689741
0.352000000000000202,3.820724836685803982
0.353000000000000203,3.758995701557712898
0.354000000000000203,3.698645384867661257
0.355000000000000204,3.639642299880157417
0.356000000000000205,3.581955194290487920
0.357000000000000206,3.525553173944428575
0.358000000000000207,3.470405724820986304
0.359000000000000208,3.416482733319391230
0.360000000000000209,3.363754504894274078
0.361000000000000210,3.312191781085129350
0.362000000000000210,3.261765754987687949
0.363000000000000211,3.212448085216567328
0.364000000000000212,3.164210908409523348
0.365000000000000213,3.117026850324754683
0.366000000000000214,3.070869035583220441
0.367000000000000215,3.025711096108508080
0.368000000000000216,2.981527178316877524
0.369000000000000217,2.938291949110384493
0.370000000000000218,2.895980600725594378
0.371000000000000218,2.854568854490361129
0.372000000000000219,2.814032963540517684
0.373000000000000220,2.774349714547860390
0.374000000000000221,2.735496428510100664
0.375000000000000222,2.697450960652769680
0.376000000000000223,2.660191699491893047
0.377000000000000224,2.623697565105659990
0.378000000000000225,2.587948006661981104
0.379000000000000226,2.552922999247912550
0.380000000000000226,2.518603040045541697
0.381000000000000227,2.484969143898053456
0.382000000000000228,2.452002838308080523
0.383000000000000229,2.419686157909449520
0.384000000000000230,2.388001638452021957
0.385000000000000231,2.356932310337911840
0.386000000000000232,2.326461691746276372
0.387000000000000233,2.296573781382228230
0.388000000000000234,2.267253050884371124
0.389000000000000234,2.238484436923844356
0.390000000000000235,2.210253333026650502
0.391000000000000236,2.182545581149549108
0.392000000000000237,2.155347463038591815
0.393000000000000238,2.128645691397965223
0.394000000000000239,2.102427400895673593
0.395000000000000240,2.076680139031156447
0.396000000000000241,2.051391856888824528
0.397000000000000242,2.026550899800265260
0.398000000000000242,2.002145997936569888
0.399000000000000243,1.978166256851262350
0.400000000000000244,1.954601147992999444
0.401000000000000245,1.931440499206168226
0.402000000000000246,1.908674485236534935
0.403000000000000247,1.886293618257863569
0.404000000000000248,1.864288738434588311
0.405000000000000249,1.842651004534527459
0.406000000000000250,1.821371884604789049
0.407000000000000250,1.800443146722979559
0.408000000000000251,1.779856849835064425
0.409000000000000252,1.759605334690306222
0.410000000000000253,1.739681214882916382
0.411000000000000254,1.720077368009289787
0.412000000000000255,1.700786926948917976
0.413000000000000256,1.681803271276325118
0.414000000000000257,1.663120018810808176
0.415000000000000258,1.644731017309884802
0.416000000000000258,1.626630336312002045
0.417000000000000259,1.608812259133172606
0.418000000000000260,1.591271275021884479
0.419000000000000261,1.574002071475892217
0.420000000000000262,1.556999526724137217
0.421000000000000263,1.540258702376398947
0.422000000000000264,1.523774836243008135
0.423000000000000265,1.507543335326329004
0.424000000000000266,1.491559768985376788
0.425000000000000266,1.475819862274644789
0.426000000000000267,1.460319489457638786
0.427000000000000268,1.445054667695486295
0.428000000000000269,1.430021550910528294
0.429000000000000270,1.415216423824519953
0.430000000000000271,1.400635696170868139
0.431000000000000272,1.386275897079925823
0.432000000000000273,1.372133669636273146
0.433000000000000274,1.358205765606560034
0.434000000000000274,1.344489040336346530
0.435000000000000275,1.330980447814179346
0.436000000000000276,1.317677035900911786
0.437000000000000277,1.304575941722195820
0.438000000000000278,1.291674387221835474
0.439000000000000279,1.278969674873616125
0.440000000000000280,1.266459183549083267
0.441000000000000281,1.254140364538651742
0.442000000000000282,1.242010737723232783
0.443000000000000282,1.230067887893685707
0.444000000000000283,1.218309461215044021
0.445000000000000284,1.206733161832665102
0.446000000000000285,1.195336748617247036
0.447000000000000286,1.184118032045554214
0.448000000000000287,1.173074871213898751
0.449000000000000288,1.162205170981062352
0.450000000000000289,1.151506879237615077
0.451000000000000290,1.140977984298376713
0.452000000000000290,1.130616512414818642
0.453000000000000291,1.120420525404254519
0.454000000000000292,1.110388118392551693
0.455000000000000293,1.100517417667212561
0.456000000000000294,1.090806578637630198
0.457000000000000295,1.081253783899327026
0.458000000000000296,1.071857241399072347
0.459000000000000297,1.062615182697713490
0.460000000000000298,1.053525861327655244
0.461000000000000298,1.044587551241914714
0.462000000000000299,1.035798545351714228
0.463000000000000300,1.027157154149666685
0.464000000000000301,1.018661704415534164
0.465000000000000302,1.010310538001727654
0.466000000000000303,1.002102010695651302
0.467000000000000304,0.994034491156068456
0.468000000000000305,0.986106359920767117
0.469000000000000306,0.978316008482785215
0.470000000000000306,0.970661838432512192
0.471000000000000307,0.963142260663134353
0.472000000000000308,0.955755694636789443
0.473000000000000309,0.948500567708969178
0.474000000000000310,0.941375314508745453
0.475000000000000311,0.934378376372396957
0.476000000000000312,0.927508200828127016
0.477000000000000313,0.920763241129585852
0.478000000000000314,0.914141955836025533
0.479000000000000314,0.907642808436848192
0.480000000000000315,0.901264267018536236
0.481000000000000316,0.895004803971841789
0.482000000000000317,0.888862895737316472
0.483000000000000318,0.882837022587189879
0.484000000000000319,0.876925668441768891
0.485000000000000320,0.871127320718513287
0.486000000000000321,0.865440470212025859
0.487000000000000322,0.859863611003246264
0.488000000000000322,0.854395240396235600
0.489000000000000323,0.849033858880865799
0.490000000000000324,0.843777970119941378
0.491000000000000325,0.838626080959215203
0.492000000000000326,0.833576701458885738
0.493000000000000327,0.828628344945131046
0.494000000000000328,0.823779528080385126
0.495000000000000329,0.819028770951013563
0.496000000000000330,0.814374597171198311
0.497000000000000330,0.809815534001726567
0.498000000000000331,0.805350112482675184
0.499000000000000332,0.800976867578719109
0.500000000000000333,0.796694338336096930
0.501000000000000334,0.792501068050209811
0.502000000000000335,0.788395604442788556
0.503000000000000336,0.784376499847785569
0.504000000000000337,0.780442311405008304
0.505000000000000338,0.776591601260690934
0.506000000000000338,0.772822936774136493
0.507000000000000339,0.769134890729657128
0.508000000000000340,0.765526041553084458
0.509000000000000341,0.761994973532062247
0.510000000000000342,0.758540277039535971
0.511000000000000343,0.755160548759687078
0.512000000000000344,0.751854391915786624
0.513000000000000345,0.748620416499321761
0.514000000000000346,0.745457239499833002
0.515000000000000346,0.742363485134997836
0.516000000000000347,0.739337785080404153
0.517000000000000348,0.736378778698536518
0.518000000000000349,0.733485113266600486
0.519000000000000350,0.730655444202672255
0.520000000000000351,0.727888435289873459
0.521000000000000352,0.725182758898103907
0.522000000000000353,0.722537096203087148
0.523000000000000353,0.719950137402322943
0.524000000000000354,0.717420581927681433
0.525000000000000355,0.714947138654356773
0.526000000000000356,0.712528526105926430
0.527000000000000357,0.710163472655222838
0.528000000000000358,0.707850716720882955
0.529000000000000359,0.705589006959268294
0.530000000000000360,0.703377102451669289
0.531000000000000361,0.701213772886526199
0.532000000000000361,0.699097798736584064
0.533000000000000362,0.697027971430796311
0.534000000000000363,0.695003093520880411
0.535000000000000364,0.693021978842374375
0.536000000000000365,0.691083452670155918
0.537000000000000366,0.689186351868250613
0.538000000000000367,0.687329525033972821
0.539000000000000368,0.685511832636191754
0.540000000000000369,0.683732147147821712
0.541000000000000369,0.681989353172353097
0.542000000000000370,0.680282347564528100
0.543000000000000371,0.678610039545027632
0.544000000000000372,0.676971350809221217
0.545000000000000373,0.675365215629955107
0.546000000000000374,0.673790580954384044
0.547000000000000375,0.672246406494876547
0.548000000000000376,0.670731664813967621
0.549000000000000377,0.669245341403450378
0.550000000000000377,0.667786434757569825
0.551000000000000378,0.666353956440430162
0.552000000000000379,0.664946931147585074
0.553000000000000380,0.663564396761925690
0.554000000000000381,0.662205404403898634
0.555000000000000382,0.660869018476072045
0.556000000000000383,0.659554316702218535
0.557000000000000384,0.658260390160841369
0.558000000000000385,0.656986343313364918
0.559000000000000385,0.655731294026950073
0.560000000000000386,0.654494373592068746
0.561000000000000387,0.653274726734915268
0.562000000000000388,0.652071511624739863
0.563000000000000389,0.650883899876161687
0.564000000000000390,0.649711076546607091
0.565000000000000391,0.648552240128910773
0.566000000000000392,0.647406602539223441
0.567000000000000393,0.646273389100259221
0.568000000000000393,0.645151838520058307
0.569000000000000394,0.644041202866297402
0.570000000000000395,0.642940747536271839
0.571000000000000396,0.641849751222681619
0.572000000000000397,0.640767505875239562
0.573000000000000398,0.639693316658314859
0.574000000000000399,0.638626501904605681
0.575000000000000400,0.637566393065033599
0.576000000000000401,0.636512334654915302
0.577000000000000401,0.635463684196493461
0.578000000000000402,0.634419812158001362
0.579000000000000403,0.633380101889315816
0.580000000000000404,0.632343949554278195
0.581000000000000405,0.631310764059860974
0.582000000000000406,0.630279966982205453
0.583000000000000407,0.629250992489685190
0.584000000000000408,0.628223287263063424
0.585000000000000409,0.627196310412865166
0.586000000000000409,0.626169533394064115
0.587000000000000410,0.625142439918142778
0.588000000000000411,0.624114525862710101
0.589000000000000412,0.623085299178658514
0.590000000000000413,0.622054279795066889
0.591000000000000414,0.621020999521873618
0.592000000000000415,0.619985001950426939
0.593000000000000416,0.618945842352029652
0.594000000000000417,0.617903087574553700
0.595000000000000417,0.616856315937180266
0.596000000000000418,0.615805117123443990
0.597000000000000419,0.614749092072551351
0.598000000000000420,0.613687852869173267
0.599000000000000421,0.612621022631703704
0.600000000000000422,0.611548235399127282
0.601000000000000423,0.610469136016561942
0.602000000000000424,0.609383380019538845
0.603000000000000425,0.608290633517109658
0.604000000000000425,0.607190573073888684
0.605000000000000426,0.606082885591056497
0.606000000000000427,0.604967268186404450
0.607000000000000428,0.603843428073582045
0.608000000000000429,0.602711082440431700
0.609000000000000430,0.601569958326731102
0.610000000000000431,0.600419792501158733
0.611000000000000432,0.599260331337737040
0.612000000000000433,0.598091330691740253
0.613000000000000433,0.596912555775107490
0.614000000000000434,0.595723781031493482
0.615000000000000435,0.594524790010960702
0.616000000000000436,0.593315375244407806
0.617000000000000437,0.592095338117746173
0.618000000000000438,0.590864488745940442
0.619000000000000439,0.589622645846936355
0.620000000000000440,0.588369636615514779
