# TiO2-rut-110_CS-3970-AC
# h[nm],U(h)[kJ/mol]
0.200000000000000011,41.028908292495017918
0.201000000000000012,39.708975741288142558
0.202000000000000013,38.932262822219520615
0.203000000000000014,38.395375972122067765
0.204000000000000015,37.928846004548361748
0.205000000000000016,37.447892655118785399
0.206000000000000016,36.918926330739303410
0.207000000000000017,36.337272319008206978
0.208000000000000018,35.712793968806451517
0.209000000000000019,35.060987956337008598
0.210000000000000020,34.397796051205205003
0.211000000000000021,33.736877427878383173
0.212000000000000022,33.088454908427706869
0.213000000000000023,32.459119412997395671
0.214000000000000024,31.852173762729115936
0.215000000000000024,31.268238505491069645
0.216000000000000025,30.705942849586584487
0.217000000000000026,30.162593893443876425
0.218000000000000027,29.634765286188560651
0.219000000000000028,29.118778372855011582
0.220000000000000029,28.611069345329639191
0.221000000000000030,28.108448330304167229
0.222000000000000031,27.608263195893233188
0.223000000000000032,27.108483969071709652
0.224000000000000032,26.607724437882506408
0.225000000000000033,26.105216696912066254
0.226000000000000034,25.600752731952866270
0.227000000000000035,25.094605073549459462
0.228000000000000036,24.587436372482599722
0.229000000000000037,24.080205648537734930
0.230000000000000038,23.574077046209442443
0.231000000000000039,23.070335253537457731
0.232000000000000040,22.570310323599752422
0.233000000000000040,22.075313479646261783
0.234000000000000041,21.586584567513003918
0.235000000000000042,21.105251117904920477
0.236000000000000043,20.632298467827098420
0.237000000000000044,20.168550035593668213
0.238000000000000045,19.714656619286120787
0.239000000000000046,19.271093468345593891
0.240000000000000047,18.838163839070340089
0.241000000000000048,18.416007767124277450
0.242000000000000048,18.004614856771006259
0.243000000000000049,17.603839983359431898
0.244000000000000050,17.213420921184241053
0.245000000000000051,16.832997034164801420
0.246000000000000052,16.462128294826079866
0.247000000000000053,16.100314022563708249
0.248000000000000054,15.747010851339927839
0.249000000000000055,15.401649547195381373
0.250000000000000056,15.063650395652825154
0.251000000000000056,14.732436967378706782
0.252000000000000057,14.407448147097341007
0.253000000000000058,14.088148375906044407
0.254000000000000059,13.774036111327879084
0.255000000000000060,13.464650553395978605
0.256000000000000061,13.159576719667077427
0.257000000000000062,12.858448978268649299
0.258000000000000063,12.560953166880830523
0.259000000000000064,12.266827437920563071
0.260000000000000064,11.975861977075158649
0.261000000000000065,11.687897744616099871
0.262000000000000066,11.402824387433033948
0.263000000000000067,11.120577465211985313
0.264000000000000068,10.841135127308984210
0.265000000000000069,10.564514368232233110
0.266000000000000070,10.290766979757378863
0.267000000000000071,10.019975307001512732
0.268000000000000071,9.752247904646452525
0.269000000000000072,9.487715178239549019
0.270000000000000073,9.226525084364665119
0.271000000000000074,8.968838952668544806
0.272000000000000075,8.714827482405356207
0.273000000000000076,8.464666956442760792
0.274000000000000077,8.218535706638880001
0.275000000000000078,7.976610856205965661
0.276000000000000079,7.739065357153380731
0.277000000000000079,7.506065334158248170
0.278000000000000080,7.277767740241945837
0.279000000000000081,7.054318324412062857
0.280000000000000082,6.835849906934417852
0.281000000000000083,6.622480954088530325
0.282000000000000084,6.414314441090138708
0.283000000000000085,6.211436989288115385
0.284000000000000086,6.013918261710841762
0.285000000000000087,5.821810599499291250
0.286000000000000087,5.635148880669665239
0.287000000000000088,5.453950581949074561
0.288000000000000089,5.278216024075841339
0.289000000000000090,5.107928780906112465
0.290000000000000091,4.943056232878923595
0.291000000000000092,4.783550245821279745
0.292000000000000093,4.629347956688266486
0.293000000000000094,4.480372648595446705
0.294000000000000095,4.336534698382088493
0.295000000000000095,4.197732580915646494
0.296000000000000096,4.063853915386637539
0.297000000000000097,3.934776539925594729
0.298000000000000098,3.810369601981849819
0.299000000000000099,3.690494653020071958
0.300000000000000100,3.575006737200900009
0.301000000000000101,3.463755464804045836
0.302000000000000102,3.356586062216133648
0.303000000000000103,3.253340391332230297
0.304000000000000103,3.153857932203804726
0.305000000000000104,3.057976723700186916
0.306000000000000105,2.965534257832698639
0.307000000000000106,2.876368324216949546
0.308000000000000107,2.790317801917897800
0.309000000000000108,2.707223396633366086
0.310000000000000109,2.626928321824245849
0.311000000000000110,2.549278922995010799
0.312000000000000111,2.474125244866313356
0.313000000000000111,2.401321541665231152
0.314000000000000112,2.330726731188988765
0.315000000000000113,2.262204793677645931
0.316000000000000114,2.195625116862391923
0.317000000000000115,2.130862788841622724
0.318000000000000116,2.067798840679357930
0.319000000000000117,2.006320440822852547
0.320000000000000118,1.946321043601143330
0.321000000000000119,1.887700494196645762
0.322000000000000119,1.830365092580581221
0.323000000000000120,1.774227618972810117
0.324000000000000121,1.719207323429926770
0.325000000000000122,1.665229882185260468
0.326000000000000123,1.612227323362905862
0.327000000000000124,1.560137924667442944
0.328000000000000125,1.508906085613876069
0.329000000000000126,1.458482176810833142
0.330000000000000127,1.408822368745718645
0.331000000000000127,1.359888442445675194
0.332000000000000128,1.311647584304248548
0.333000000000000129,1.264072167272238589
0.334000000000000130,1.217139520513953910
0.335000000000000131,1.170831689527962238
0.336000000000000132,1.125135188626195770
0.337000000000000133,1.080040747557378999
0.338000000000000134,1.035543053951726522
0.339000000000000135,0.991640493154421820
0.340000000000000135,0.948334886906065266
0.341000000000000136,0.905631232220292959
0.342000000000000137,0.863537441702210251
0.343000000000000138,0.822064086447076847
0.344000000000000139,0.781224142556908974
0.345000000000000140,0.741032742214183804
0.346000000000000141,0.701506930156454045
0.347000000000000142,0.662665426304099081
0.348000000000000143,0.624528395205523612
0.349000000000000143,0.587117222880351175
0.350000000000000144,0.550454301561315140
0.351000000000000145,0.514562822760077365
0.352000000000000146,0.479466579010754679
0.353000000000000147,0.445189774577896991
0.354000000000000148,0.411756845352684475
0.355000000000000149,0.379192288102414288
0.356000000000000150,0.347520499183700982
0.357000000000000151,0.316765622779196065
0.358000000000000151,0.286951408670948926
0.359000000000000152,0.258101079520680510
0.360000000000000153,0.230237207587963677
0.361000000000000154,0.203381600781814414
0.362000000000000155,0.177555197908820850
0.363000000000000156,0.152777972952090446
0.364000000000000157,0.129068848189465984
0.365000000000000158,0.106445615936476015
0.366000000000000159,0.084924868679628118
0.367000000000000159,0.064521937348085048
0.368000000000000160,0.045250837456993917
0.369000000000000161,0.027124222843175706
0.370000000000000162,0.010153346703556877
0.371000000000000163,-0.005651970361513081
0.372000000000000164,-0.020283365604263935
0.373000000000000165,-0.033733952993580528
0.374000000000000166,-0.045998335998892081
0.375000000000000167,-0.057072614606853811
0.376000000000000167,-0.066954386884024678
0.377000000000000168,-0.075642745397335495
0.378000000000000169,-0.083138268801763754
0.379000000000000170,-0.089443008901244750
0.380000000000000171,-0.094560473484374213
0.381000000000000172,-0.098495605231264730
0.382000000000000173,-0.101254756981922323
0.383000000000000174,-0.102845663649905328
0.384000000000000175,-0.103277411057766305
0.385000000000000175,-0.102560401963080167
0.386000000000000176,-0.100706319535787320
0.387000000000000177,-0.097728088538969513
0.388000000000000178,-0.093639834456561905
0.389000000000000179,-0.088456840802313225
0.390000000000000180,-0.082195504835293698
0.391000000000000181,-0.074873291897798830
0.392000000000000182,-0.066508688582194650
0.393000000000000183,-0.057121154923777361
0.394000000000000183,-0.046731075807306822
0.395000000000000184,-0.035359711765509651
0.396000000000000185,-0.023029149338469689
0.397000000000000186,-0.009762251153691026
0.398000000000000187,0.004417394122544493
0.399000000000000188,0.019485521820798234
0.400000000000000189,0.035417241158142508
0.401000000000000190,0.052187084857533247
0.402000000000000191,0.069769058380858742
0.403000000000000191,0.088136688667921390
0.404000000000000192,0.107263072281402749
0.405000000000000193,0.127120922865670088
0.406000000000000194,0.147682617834653918
0.407000000000000195,0.168920244211230225
0.408000000000000196,0.190805643547539761
0.409000000000000197,0.213310455862259912
0.410000000000000198,0.236406162537280029
0.411000000000000199,0.260064128122444838
0.412000000000000199,0.284255641002801374
0.413000000000000200,0.308951952888478543
0.414000000000000201,0.334124317092628964
0.415000000000000202,0.359744025568029258
0.416000000000000203,0.385782444677651881
0.417000000000000204,0.412211049679262032
0.418000000000000205,0.439001457908285708
0.419000000000000206,0.466125460647348444
0.420000000000000207,0.493555053674819555
0.421000000000000207,0.521262466488118581
0.422000000000000208,0.549220190201212710
0.423000000000000209,0.577401004118636374
0.424000000000000210,0.605778000991547660
0.425000000000000211,0.634324610963998281
0.426000000000000212,0.663014624220140236
0.427000000000000213,0.691822212345554965
0.428000000000000214,0.720721948417943903
0.429000000000000214,0.749688825844574747
0.430000000000000215,0.778698275965602704
0.431000000000000216,0.807726184444070627
0.432000000000000217,0.836748906465000886
0.433000000000000218,0.865743280767236945
0.434000000000000219,0.894686642532989351
0.435000000000000220,0.923556835161094769
0.436000000000000221,0.952332220950981800
0.437000000000000222,0.980991690725150023
0.438000000000000222,1.009514672418671877
0.439000000000000223,1.037881138664872083
0.440000000000000224,1.066071613406792462
0.441000000000000225,1.094067177564532312
0.442000000000000226,1.121849473788718576
0.443000000000000227,1.149400710330770403
0.444000000000000228,1.176703664060595678
0.445000000000000229,1.203741682662534007
0.446000000000000230,1.230498686040287781
0.447000000000000230,1.256959166961529206
0.448000000000000231,1.283108190972749751
0.449000000000000232,1.308931395614711057
0.450000000000000233,1.334414988968569915
0.451000000000000234,1.359545747562553419
0.452000000000000235,1.384311013668581669
0.453000000000000236,1.408698692018006238
0.454000000000000237,1.432697245965045107
0.455000000000000238,1.456295693126211210
0.456000000000000238,1.479483600523380682
0.457000000000000239,1.502251079257787669
0.458000000000000240,1.524588778741540862
0.459000000000000241,1.546487880512864121
0.460000000000000242,1.567940091660497304
0.461000000000000243,1.588937637882289255
0.462000000000000244,1.609473256202211378
0.463000000000000245,1.629540187369599824
0.464000000000000246,1.649132167963608619
0.465000000000000246,1.668243422225339945
0.466000000000000247,1.686868653639441273
0.467000000000000248,1.705003036286302898
0.468000000000000249,1.722642205985293939
0.469000000000000250,1.739782251248919165
0.470000000000000251,1.756419704067021303
0.471000000000000252,1.772551530539574927
0.472000000000000253,1.788175121375913834
0.473000000000000254,1.803288282277634824
0.474000000000000254,1.817889224221750810
0.475000000000000255,1.831976553660030760
0.476000000000000256,1.845549262649870625
0.477000000000000257,1.858606718931361979
0.478000000000000258,1.871148655964674390
0.479000000000000259,1.883175162941226333
0.480000000000000260,1.894686674781532520
0.481000000000000261,1.905683962132068032
0.482000000000000262,1.916168121372849642
0.483000000000000262,1.926140564646950493
0.484000000000000263,1.935603009922569173
0.485000000000000264,1.944557471097756673
0.486000000000000265,1.953006248157364011
0.487000000000000266,1.960951917391289046
0.488000000000000267,1.968397321682581858
0.489000000000000268,1.975345560873475348
0.490000000000000269,1.981799982216974509
0.491000000000000270,1.987764170921115126
0.492000000000000270,1.993241940792625844
0.493000000000000271,1.998237324986231744
0.494000000000000272,2.002754566865460717
0.495000000000000273,2.006798110980389627
0.496000000000000274,2.010372594167349813
0.497000000000000275,2.013482836775303930
0.498000000000000276,2.016133834023116744
0.499000000000000277,2.018330747491720700
0.500000000000000222,2.020078896754732067
0.501000000000000334,2.021383751150787056
0.502000000000000224,2.022250921700540438
0.503000000000000336,2.022686153170965451
0.504000000000000226,2.022695316289293999
0.505000000000000338,2.022284400108655511
0.506000000000000227,2.021459504527181927
0.507000000000000339,2.020226832962140229
0.508000000000000229,2.018592685180341295
0.509000000000000341,2.016563450285855374
0.510000000000000231,2.014145599865868164
0.511000000000000343,2.011345681295241938
0.512000000000000233,2.008170311200200064
0.513000000000000345,2.004626169081273002
0.514000000000000234,2.000719991095534667
0.515000000000000346,1.996458563997948632
0.516000000000000236,1.991848719241463783
0.517000000000000348,1.986897327235326305
0.518000000000000238,1.981611291761000704
0.519000000000000350,1.975997544544818130
0.520000000000000240,1.970063039986477804
0.521000000000000352,1.963814750042266244
0.522000000000000242,1.957259659261865625
0.523000000000000353,1.950404759977373725
0.524000000000000243,1.943257047643202728
0.525000000000000355,1.935823516325273719
0.526000000000000245,1.928111154337968092
0.527000000000000357,1.920126940027090612
0.528000000000000247,1.911877837697125937
0.529000000000000359,1.903370793680916551
0.530000000000000249,1.894612732549869616
0.531000000000000361,1.885610553462702565
0.532000000000000250,1.876371126650731913
0.533000000000000362,1.866901290037582983
0.534000000000000252,1.857207845991253548
0.535000000000000364,1.847297558206273838
0.536000000000000254,1.837177148713870833
0.537000000000000366,1.826853295017781376
0.538000000000000256,1.816332627353548279
0.539000000000000368,1.805621726068913135
0.540000000000000258,1.794727119123086023
0.541000000000000369,1.783655279702456298
0.542000000000000259,1.772412623950504029
0.543000000000000371,1.761005508809460052
0.544000000000000261,1.749440229971418237
0.545000000000000373,1.737723019936478819
0.546000000000000263,1.725860046175612394
0.547000000000000375,1.713857409395773690
0.548000000000000265,1.701721141905030432
0.549000000000000377,1.689457206075199336
0.550000000000000266,1.677071492899774086
0.551000000000000378,1.664569820644671738
0.552000000000000268,1.651957933589579541
0.553000000000000380,1.639241500857484990
0.554000000000000270,1.626426115330173561
0.555000000000000382,1.613517292647323131
0.556000000000000272,1.600520470287014829
0.557000000000000384,1.587441006725337944
0.558000000000000274,1.574284180672926414
0.559000000000000385,1.561055190386170688
0.560000000000000275,1.547759153050990655
0.561000000000000387,1.534401104236943647
0.562000000000000277,1.520985997419634694
0.563000000000000389,1.507518703569230567
0.564000000000000279,1.494004010803104965
0.565000000000000391,1.480446624100487885
0.566000000000000281,1.466851165077200481
0.567000000000000393,1.453222171818396191
0.568000000000000282,1.439564098767455613
0.569000000000000394,1.425881316669025400
0.570000000000000284,1.412178112564426602
0.571000000000000396,1.398458689837441593
0.572000000000000286,1.384727168308797385
0.573000000000000398,1.370987584377447943
0.574000000000000288,1.357243891206987074
0.575000000000000400,1.343499958955379547
0.576000000000000290,1.329759575046441267
0.577000000000000401,1.316026444481272151
0.578000000000000291,1.302304190188157351
0.579000000000000403,1.288596353409246387
0.580000000000000293,1.274906394122536479
0.581000000000000405,1.261237691497546942
0.582000000000000295,1.247593544383326591
0.583000000000000407,1.233977171827188357
0.584000000000000297,1.220391713622907215
0.585000000000000409,1.206840230886840226
0.586000000000000298,1.193325706660775420
0.587000000000000410,1.179851046540015824
0.588000000000000300,1.166419079325579755
0.589000000000000412,1.153032557699109173
0.590000000000000302,1.139694158919390077
0.591000000000000414,1.126406485539165114
0.592000000000000304,1.113172066141209893
0.593000000000000416,1.099993356092409780
0.594000000000000306,1.086872738314844211
0.595000000000000417,1.073812524072713437
0.596000000000000307,1.060814953774169123
0.597000000000000419,1.047882197786922598
0.598000000000000309,1.035016357266732800
0.599000000000000421,1.022219464997791594
0.600000000000000311,1.009493486244068317
0.601000000000000423,0.996840319610705849
0.602000000000000313,0.984261797914659509
0.603000000000000425,0.971759689063627974
0.604000000000000314,0.959335696942570260
0.605000000000000426,0.946991462306906895
0.606000000000000316,0.934728563681748170
0.607000000000000428,0.922548518266296136
0.608000000000000318,0.910452782842799180
0.609000000000000430,0.898442754689281586
0.610000000000000320,0.886519772495463876
0.611000000000000432,0.874685117281122637
0.612000000000000322,0.862940013316386256
0.613000000000000433,0.851285629043243341
0.614000000000000323,0.839723077997782452
0.615000000000000435,0.828253419732524754
0.616000000000000325,0.816877660738392519
0.617000000000000437,0.805596755365703410
0.618000000000000327,0.794411606743778531
0.619000000000000439,0.783323067698623809
0.620000000000000329,0.772331941668264910
0.621000000000000441,0.761438983615263965
0.622000000000000330,0.750644900936034865
0.623000000000000442,0.739950354366488594
0.624000000000000332,0.729355958883718514
0.625000000000000444,0.718862284603236867
0.626000000000000334,0.708469857671524261
0.627000000000000446,0.698179161153459016
0.628000000000000336,0.687990635914376591
0.629000000000000448,0.677904681496392603
0.630000000000000338,0.667921656988768819
0.631000000000000449,0.658041881891944680
0.632000000000000339,0.648265636975090764
0.633000000000000451,0.638593165126823292
0.634000000000000341,0.629024672198938650
0.635000000000000453,0.619560327842845648
0.636000000000000343,0.610200266338607578
0.637000000000000455,0.600944587416256448
0.638000000000000345,0.591793357069331116
0.639000000000000457,0.582746608360340201
0.640000000000000346,0.573804342218096397
0.641000000000000458,0.564966528226668374
0.642000000000000348,0.556233105405906314
0.643000000000000460,0.547603982983311033
0.644000000000000350,0.539079041157225491
0.645000000000000462,0.530658131851133974
0.646000000000000352,0.522341079459069269
0.647000000000000464,0.514127681581928009
0.648000000000000353,0.506017709754719713
0.649000000000000465,0.498010910164556786
0.650000000000000355,0.490107004359434384
0.651000000000000467,0.482305689947633121
0.652000000000000357,0.474606641287769193
0.653000000000000469,0.467009510169399789
0.654000000000000359,0.459513926484172663
0.655000000000000471,0.452119498887464111
0.656000000000000361,0.444825815450510309
0.657000000000000473,0.437632444302970214
0.658000000000000362,0.430538934265955908
0.659000000000000474,0.423544815475481340
0.660000000000000364,0.416649599996364195
0.661000000000000476,0.409852782426536943
0.662000000000000366,0.403153840491842441
0.663000000000000478,0.396552235631256411
0.664000000000000368,0.390047413572625179
0.665000000000000480,0.383638804898870311
0.666000000000000369,0.377325825604760856
0.667000000000000481,0.371107877644223150
0.668000000000000371,0.364984349468273461
0.669000000000000483,0.358954616553569028
0.670000000000000373,0.353018041921667136
0.671000000000000485,0.347173976648993687
