# TiO2-rut-110_CS-5735-AC
# h[nm],U(h)[kJ/mol]
0.149999999999999994,122.641449914053708881
0.150999999999999995,121.357214002641057959
0.151999999999999996,119.627573847629406600
0.152999999999999997,117.789609545636423604
0.153999999999999998,115.980997512839081764
0.154999999999999999,114.240219527212317985
0.156000000000000000,112.562453208763301404
0.157000000000000001,110.928854540365392722
0.158000000000000002,109.320417194146628503
0.159000000000000002,107.723320485451566242
0.160000000000000003,106.129919519167515318
0.161000000000000004,104.537781359789775593
0.162000000000000005,102.948085142059625241
0.163000000000000006,101.364049038018748661
0.164000000000000007,99.789666991493334081
0.165000000000000008,98.228829883919985377
0.166000000000000009,96.684801847502242822
0.167000000000000010,95.159979426312901296
0.168000000000000010,93.655851892325159724
0.169000000000000011,92.173088508921779294
0.170000000000000012,90.711693007666283961
0.171000000000000013,89.271181470274527214
0.172000000000000014,87.850754354295560233
0.173000000000000015,86.449445355408954583
0.174000000000000016,85.066238873141656995
0.175000000000000017,83.700154238967300557
0.176000000000000018,82.350298995558134152
0.177000000000000018,81.015895867897512517
0.178000000000000019,79.696289105740319769
0.179000000000000020,78.390936006449592810
0.180000000000000021,77.099388975854807882
0.181000000000000022,75.821272705171153916
0.182000000000000023,74.556260118913684209
0.183000000000000024,73.304049809742068078
0.184000000000000025,72.064346803290732169
0.185000000000000026,70.836847736478461002
0.186000000000000026,69.621230908319603259
0.187000000000000027,68.417151176946291002
0.188000000000000028,67.224239322904480787
0.189000000000000029,66.042105262419696032
0.190000000000000030,64.870344357395168799
0.191000000000000031,63.708546012521061641
0.192000000000000032,62.556303755727483917
0.193000000000000033,61.413226049575527554
0.194000000000000034,60.278947163444584589
0.195000000000000034,59.153137537286411884
0.196000000000000035,58.035513177373879046
0.197000000000000036,56.925843735181658190
0.198000000000000037,55.823959026589093924
0.199000000000000038,54.729753845996398809
0.200000000000000039,53.643191016137542704
0.201000000000000040,52.564302687962708660
0.202000000000000041,51.493189965470435254
0.203000000000000042,50.430020978006929511
0.204000000000000042,49.375027558027525743
0.205000000000000043,48.328500706683279020
0.206000000000000044,47.290785044106613100
0.207000000000000045,46.262272447284900068
0.208000000000000046,45.243395077306999497
0.209000000000000047,44.234617990886150096
0.210000000000000048,43.236431519665941892
0.211000000000000049,42.249343586056774313
0.212000000000000050,41.273872107253055219
0.213000000000000050,40.310537620548117843
0.214000000000000051,39.359856243849051793
0.215000000000000052,38.422333066036237881
0.216000000000000053,37.498456043020901518
0.217000000000000054,36.588690457431425784
0.218000000000000055,35.693473983103878311
0.219000000000000056,34.813212380182761763
0.220000000000000057,33.948275832784666761
0.221000000000000058,33.098995928924985321
0.222000000000000058,32.265663271764971398
0.223000000000000059,31.448525702193922626
0.224000000000000060,30.647787105253893714
0.225000000000000061,29.863606766866865883
0.226000000000000062,29.096099242634817728
0.227000000000000063,28.345334697039316296
0.228000000000000064,27.611339669050654066
0.229000000000000065,26.894098218841168801
0.230000000000000066,26.193553409864655634
0.231000000000000066,25.509609080888047572
0.232000000000000067,24.842131863533165159
0.233000000000000068,24.190953402391599525
0.234000000000000069,23.555872736717557103
0.235000000000000070,22.936658804985867732
0.236000000000000071,22.333053036144047354
0.237000000000000072,21.744771994109193258
0.238000000000000073,21.171510044900287539
0.239000000000000073,20.612942018693196644
0.240000000000000074,20.068725841988218406
0.241000000000000075,19.538505117950048628
0.242000000000000076,19.021911635777396299
0.243000000000000077,18.518567792657883331
0.244000000000000078,18.028088914439827306
0.245000000000000079,17.550085463587095091
0.246000000000000080,17.084165125265428742
0.247000000000000081,16.629934764526630886
0.248000000000000081,16.187002249508825713
0.249000000000000082,15.754978137351702827
0.250000000000000111,15.333477221137176372
0.251000000000000112,14.922119937610755613
0.252000000000000113,14.520533636720424298
0.253000000000000114,14.128353715136956481
0.254000000000000115,13.745224616895111325
0.255000000000000115,13.370800705131355102
0.256000000000000116,13.004747009596446361
0.257000000000000117,12.646739855200323177
0.258000000000000118,12.296467377312612967
0.259000000000000119,11.953629929901792295
0.260000000000000120,11.617940392860791832
0.261000000000000121,11.289124385045449017
0.262000000000000122,10.966920389652248247
0.263000000000000123,10.651079798593817927
0.264000000000000123,10.341366882500581781
0.265000000000000124,10.037558692894553047
0.266000000000000125,9.739444902952026695
0.267000000000000126,9.446827593104039522
0.268000000000000127,9.159520987521647228
0.269000000000000128,8.877351147305173384
0.270000000000000129,8.600155625945657079
0.271000000000000130,8.327783092359059225
0.272000000000000131,8.060092926513647171
0.273000000000000131,7.796954792381347588
0.274000000000000132,7.538248192649564139
0.275000000000000133,7.283862009332763066
0.276000000000000134,7.033694034126867223
0.277000000000000135,6.787650492056168439
0.278000000000000136,6.545645561673524071
0.279000000000000137,6.307600894792710911
0.280000000000000138,6.073445138458358983
0.281000000000000139,5.843113461593825164
0.282000000000000139,5.616547088513782704
0.283000000000000140,5.393692841244802416
0.284000000000000141,5.174502692366248269
0.285000000000000142,4.958933329864249728
0.286000000000000143,4.746945735284763934
0.287000000000000144,4.538504776277471287
0.288000000000000145,4.333578814439990268
0.289000000000000146,4.132139329203046607
0.290000000000000147,3.934160558339398595
0.291000000000000147,3.739619155534701811
0.292000000000000148,3.548493865324485519
0.293000000000000149,3.360765215579760046
0.294000000000000150,3.176415227612139347
0.295000000000000151,2.995427143868828690
0.296000000000000152,2.817785173097056450
0.297000000000000153,2.643474252776371269
0.298000000000000154,2.472479828545081748
0.299000000000000155,2.304787650283536049
0.300000000000000155,2.140383584461384991
0.301000000000000156,1.979253442308155586
0.302000000000000157,1.821382823325137679
0.303000000000000158,1.666756973622646409
0.304000000000000159,1.515360658538031258
0.305000000000000160,1.367178048967410353
0.306000000000000161,1.222192620826397569
0.307000000000000162,1.080387067042359872
0.308000000000000163,0.941743221472368885
0.309000000000000163,0.806241994136439488
0.310000000000000164,0.673863317154640762
0.311000000000000165,0.544586100779034687
0.312000000000000166,0.418388198916356036
0.313000000000000167,0.295246383545109459
0.314000000000000168,0.175136327440630707
0.315000000000000169,0.058032594633507364
0.316000000000000170,-0.056091361959711962
0.317000000000000171,-0.167263196279444581
0.318000000000000171,-0.275511658769299284
0.319000000000000172,-0.380866580438132374
0.320000000000000173,-0.483358851832041414
0.321000000000000174,-0.583020397391728729
0.322000000000000175,-0.679884145651389327
0.323000000000000176,-0.773983995715471607
0.324000000000000177,-0.865354780429863468
0.325000000000000178,-0.954032226643915848
0.326000000000000179,-1.040052912939931629
0.327000000000000179,-1.123454225186552691
0.328000000000000180,-1.204274310252985591
0.329000000000000181,-1.282552028201504823
0.330000000000000182,-1.358326903256378060
0.331000000000000183,-1.431639073828954833
0.332000000000000184,-1.502529241860000031
0.333000000000000185,-1.571038621722772977
0.334000000000000186,-1.637208888912995430
0.335000000000000187,-1.701082128735046606
0.336000000000000187,-1.762700785177716556
0.337000000000000188,-1.822107610156918911
0.338000000000000189,-1.879345613288244454
0.339000000000000190,-1.934458012337535449
0.340000000000000191,-1.987488184483937603
0.341000000000000192,-2.038479618516999992
0.342000000000000193,-2.087475868076588359
0.343000000000000194,-2.134520506032843379
0.344000000000000195,-2.179657080091646382
0.345000000000000195,-2.222929069701065075
0.346000000000000196,-2.264379844323504365
0.347000000000000197,-2.304052623129293487
0.348000000000000198,-2.341990436158259747
0.349000000000000199,-2.378236086987541853
0.350000000000000200,-2.412832116936130866
0.351000000000000201,-2.445820770829199464
0.352000000000000202,-2.477243964338540660
0.353000000000000203,-2.507143252909140418
0.354000000000000203,-2.535559802276059038
0.355000000000000204,-2.562534360570248637
0.356000000000000205,-2.588107232007183178
0.357000000000000206,-2.612318252147575404
0.358000000000000207,-2.635206764715029681
0.359000000000000208,-2.656811599952093594
0.360000000000000209,-2.677171054492482050
0.361000000000000210,-2.696322872724154163
0.362000000000000210,-2.714304229615323472
0.363000000000000211,-2.731151714972791744
0.364000000000000212,-2.746901319100058636
0.365000000000000213,-2.761588419820514062
0.366000000000000214,-2.775247770829551985
0.367000000000000215,-2.787913491337900673
0.368000000000000216,-2.799619056967421304
0.369000000000000217,-2.810397291859431768
0.370000000000000218,-2.820280361955084025
0.371000000000000218,-2.829299769406462772
0.372000000000000219,-2.837486348076852405
0.373000000000000220,-2.844870260088251612
0.374000000000000221,-2.851480993374059913
0.375000000000000222,-2.857347360194820940
0.376000000000000223,-2.862497496575290068
0.377000000000000224,-2.866958862620941240
0.378000000000000225,-2.870758243672690391
0.379000000000000226,-2.873921752258820739
0.380000000000000226,-2.876474830803871008
0.381000000000000227,-2.878442255054468379
0.382000000000000228,-2.879848138183151995
0.383000000000000229,-2.880715935531685368
0.384000000000000230,-2.881068449956143862
0.385000000000000231,-2.880927837737141228
0.386000000000000232,-2.880315615019030773
0.387000000000000233,-2.879252664743181533
0.388000000000000234,-2.877759244041086184
0.389000000000000234,-2.875854992054234671
0.390000000000000235,-2.873558938148446096
0.391000000000000236,-2.870889510491559715
0.392000000000000237,-2.867864544964170648
0.393000000000000238,-2.864501294374330875
0.394000000000000239,-2.860816437947916846
0.395000000000000240,-2.856826091067598661
0.396000000000000241,-2.852545815234224680
0.397000000000000242,-2.847990628225438137
0.398000000000000242,-2.843175014427516079
0.399000000000000243,-2.838112935317139485
0.400000000000000244,-2.832817840071049975
0.401000000000000245,-2.827302676282401173
0.402000000000000246,-2.821579900763511173
0.403000000000000247,-2.815661490415813262
0.404000000000000248,-2.809558953148606264
0.405000000000000249,-2.803283338829166027
0.406000000000000250,-2.796845250247637527
0.407000000000000250,-2.790254854081041014
0.408000000000000251,-2.783521891841501006
0.409000000000000252,-2.776655690794713305
0.410000000000000253,-2.769665174835401533
0.411000000000000254,-2.762558875307326467
0.412000000000000255,-2.755344941756146859
0.413000000000000256,-2.748031152604247129
0.414000000000000257,-2.740624925737171314
0.415000000000000258,-2.733133328992278344
0.416000000000000258,-2.725563090540557454
0.417000000000000259,-2.717920609153520850
0.418000000000000260,-2.710211964347441604
0.419000000000000261,-2.702442926397977896
0.420000000000000262,-2.694618966218679468
0.421000000000000263,-2.686745265097571611
0.422000000000000264,-2.678826724286310856
0.423000000000000265,-2.670867974437157510
0.424000000000000266,-2.662873384883408967
0.425000000000000266,-2.654847072759254356
0.426000000000000267,-2.646792911955745620
0.427000000000000268,-2.638714541909752409
0.428000000000000269,-2.630615376223270463
0.429000000000000270,-2.622498611110917643
0.430000000000000271,-2.614367233673627666
0.431000000000000272,-2.606224029997111113
0.432000000000000273,-2.598071593073817187
0.433000000000000274,-2.589912330547559982
0.434000000000000274,-2.581748472280199547
0.435000000000000275,-2.573582077740057095
0.436000000000000276,-2.565415043212085688
0.437000000000000277,-2.557249108829916739
0.438000000000000278,-2.549085865430294806
0.439000000000000279,-2.540926761230561048
0.440000000000000280,-2.532773108330010903
0.441000000000000281,-2.524626089036215326
0.442000000000000282,-2.516486762017613454
0.443000000000000282,-2.508356068283652096
0.444000000000000283,-2.500234836994194687
0.445000000000000284,-2.492123791099815744
0.446000000000000285,-2.484023552814831781
0.447000000000000286,-2.475934648925144810
0.448000000000000287,-2.467857515932824874
0.449000000000000288,-2.459792505039780419
0.450000000000000289,-2.451739886972684523
0.451000000000000290,-2.443699856651578628
0.452000000000000290,-2.435672537704629992
0.453000000000000291,-2.427657986831473824
0.454000000000000292,-2.419656198017827275
0.455000000000000293,-2.411667106603910593
0.456000000000000294,-2.403690593209427462
0.457000000000000295,-2.395726487517799264
0.458000000000000296,-2.387774571922395506
0.459000000000000297,-2.379834585037582606
0.460000000000000298,-2.371906225077362595
0.461000000000000298,-2.363989153104461671
0.462000000000000299,-2.356082996152687681
0.463000000000000300,-2.348187350225396930
0.464000000000000301,-2.340301783172950678
0.465000000000000302,-2.332425837451999939
0.466000000000000303,-2.324559032769416778
0.467000000000000304,-2.316700868613772002
0.468000000000000305,-2.308850826677115275
0.469000000000000306,-2.301008373169918464
0.470000000000000306,-2.293172961031992863
0.471000000000000307,-2.285344032042065265
0.472000000000000308,-2.277521018828880806
0.473000000000000309,-2.269703346786470455
0.474000000000000310,-2.261890435896319662
0.475000000000000311,-2.254081702459094672
0.476000000000000312,-2.246276560738579509
0.477000000000000313,-2.238474424520400241
0.478000000000000314,-2.230674708588110455
0.479000000000000314,-2.222876830119207447
0.480000000000000315,-2.215080210003498529
0.481000000000000316,-2.207284274086362963
0.482000000000000317,-2.199488454339234345
0.483000000000000318,-2.191692189959752124
0.484000000000000319,-2.183894928403862234
0.485000000000000320,-2.176096126352192961
0.486000000000000321,-2.168295250612936709
0.487000000000000322,-2.160491778963455012
0.488000000000000322,-2.152685200932711318
0.489000000000000323,-2.144875018526758659
0.490000000000000324,-2.137060746899245078
0.491000000000000325,-2.129241914969037364
0.492000000000000326,-2.121418065986873991
0.493000000000000327,-2.113588758053086547
0.494000000000000328,-2.105753564588179305
0.495000000000000329,-2.097912074758199630
0.496000000000000330,-2.090063893856618282
0.497000000000000330,-2.082208643644618551
0.498000000000000331,-2.074345962651304554
0.499000000000000332,-2.066475506435728970
0.500000000000000333,-2.058596947812220357
0.501000000000000334,-2.050709977040610532
0.502000000000000335,-2.042814301982995850
0.503000000000000336,-2.034909648228434342
0.504000000000000337,-2.026995759187104174
0.505000000000000338,-2.019072396155313420
0.506000000000000338,-2.011139338352758710
0.507000000000000339,-2.003196382933364994
0.508000000000000340,-1.995243344970980548
0.509000000000000341,-1.987280057421282775
0.510000000000000342,-1.979306371060975067
0.511000000000000343,-1.971322154405603211
0.512000000000000344,-1.963327293607032953
0.513000000000000345,-1.955321692331754901
0.514000000000000346,-1.947305271621123435
0.515000000000000346,-1.939277969734478635
0.516000000000000347,-1.931239741976235491
0.517000000000000348,-1.923190560507931579
0.518000000000000349,-1.915130414146070992
0.519000000000000350,-1.907059308146801913
0.520000000000000351,-1.898977263978198327
0.521000000000000352,-1.890884319081085341
0.522000000000000353,-1.882780526619139305
0.523000000000000353,-1.874665955219103397
0.524000000000000354,-1.866540688701878281
0.525000000000000355,-1.858404825805187288
0.526000000000000356,-1.850258479898521768
0.527000000000000357,-1.842101778691097369
0.528000000000000358,-1.833934863933377457
0.529000000000000359,-1.825757891112886666
0.530000000000000360,-1.817571029144822603
0.531000000000000361,-1.809374460058114975
0.532000000000000361,-1.801168378677435289
0.533000000000000362,-1.792952992301714232
0.534000000000000363,-1.784728520379646355
0.535000000000000364,-1.776495194182697634
0.536000000000000365,-1.768253256476038260
0.537000000000000366,-1.760002961187905557
0.538000000000000367,-1.751744573077713030
0.539000000000000368,-1.743478367403468621
0.540000000000000369,-1.735204629588699365
0.541000000000000369,-1.726923654889426896
0.542000000000000370,-1.718635748061390967
0.543000000000000371,-1.710341223027959767
0.544000000000000372,-1.702040402548987696
0.545000000000000373,-1.693733617890943233
0.546000000000000374,-1.685421208498566248
0.547000000000000375,-1.677103521668331876
0.548000000000000376,-1.668780912224008928
0.549000000000000377,-1.660453742194486493
0.550000000000000377,-1.652122380494150722
0.551000000000000378,-1.643787202605982545
0.552000000000000379,-1.635448590267625679
0.553000000000000380,-1.627106931160557268
0.554000000000000381,-1.618762618602548997
0.555000000000000382,-1.610416051243652946
0.556000000000000383,-1.602067632765726612
0.557000000000000384,-1.593717771585795306
0.558000000000000385,-1.585366880563246372
0.559000000000000385,-1.577015376711081052
0.560000000000000386,-1.568663680911275948
0.561000000000000387,-1.560312217634381105
0.562000000000000388,-1.551961414663429739
0.563000000000000389,-1.543611702822292431
0.564000000000000390,-1.535263515708486626
0.565000000000000391,-1.526917289430565372
0.566000000000000392,-1.518573462350117698
0.567000000000000393,-1.510232474828474114
0.568000000000000393,-1.501894768978099037
0.569000000000000394,-1.493560788418779151
0.570000000000000395,-1.485230978038624361
0.571000000000000396,-1.476905783759861146
0.572000000000000397,-1.468585652309548850
0.573000000000000398,-1.460271030995110353
0.574000000000000399,-1.451962367484802785
0.575000000000000400,-1.443660109593051466
0.576000000000000401,-1.435364705070693914
0.577000000000000401,-1.427076601400156797
0.578000000000000402,-1.418796245595484340
0.579000000000000403,-1.410524084007260814
0.580000000000000404,-1.402260562132447319
0.581000000000000405,-1.394006124429008064
0.582000000000000406,-1.385761214135436070
0.583000000000000407,-1.377526273095033060
0.584000000000000408,-1.369301741585013499
0.585000000000000409,-1.361088058150344837
0.586000000000000409,-1.352885659442295774
0.587000000000000410,-1.344694980061705625
0.588000000000000411,-1.336516452406844468
0.589000000000000412,-1.328350506525946439
0.590000000000000413,-1.320197569974241203
0.591000000000000414,-1.312058067675539785
0.592000000000000415,-1.303932421788296825
0.593000000000000416,-1.295821051576068417
0.594000000000000417,-1.287724373282346235
0.595000000000000417,-1.279642800009766157
0.596000000000000418,-1.271576741603486438
0.597000000000000419,-1.263526604538886433
0.598000000000000420,-1.255492791813332953
0.599000000000000421,-1.247475702842112177
0.600000000000000422,-1.239475733358370801
0.601000000000000423,-1.231493275317045333
0.602000000000000424,-1.223528716802729788
0.603000000000000425,-1.215582441941409630
0.604000000000000425,-1.207654830815972691
0.605000000000000426,-1.199746259385490621
0.606000000000000427,-1.191857099408198062
0.607000000000000428,-1.183987718368008313
0.608000000000000429,-1.176138479404718939
0.609000000000000430,-1.168309741247562927
0.610000000000000431,-1.160501858152317656
0.611000000000000432,-1.152715179841701021
0.612000000000000433,-1.144950051449092232
0.613000000000000433,-1.137206813465513999
