# TiO2-rut-110_CS-11244-AC
# h[nm],U(h)[kJ/mol]
0.149999999999999994,133.805435971260806127
0.150999999999999995,132.453454823499555459
0.151999999999999996,130.343376248679106766
0.152999999999999997,128.060483326992113007
0.153999999999999998,125.838840661749784999
0.154999999999999999,123.738805682503127059
0.156000000000000000,121.746132141706112861
0.157000000000000001,119.823807696791419630
0.158000000000000002,117.936394677676460674
0.159000000000000002,116.059156917594393121
0.160000000000000003,114.179395422449530884
0.161000000000000004,112.294313525134583642
0.162000000000000005,110.407793927171795190
0.163000000000000006,108.527292161232097101
0.164000000000000007,106.661361845575385132
0.165000000000000008,104.817945635286861261
0.166000000000000009,103.003372903442752317
0.167000000000000010,101.221923737451191982
0.168000000000000010,99.475799768973544701
0.169000000000000011,97.765355277675851653
0.170000000000000012,96.089468719317466139
0.171000000000000013,94.445964956722221473
0.172000000000000014,92.832026561414210164
0.173000000000000015,91.244556137836084986
0.174000000000000016,89.680469975989808518
0.175000000000000017,88.136916683511444148
0.176000000000000018,86.611423460654776818
0.177000000000000018,85.101978198846083501
0.178000000000000019,83.607058439094430469
0.179000000000000020,82.125619166235537705
0.180000000000000021,80.657051061228088429
0.181000000000000022,79.201119679375182159
0.182000000000000023,77.757894439784564611
0.183000000000000024,76.327674568853495884
0.184000000000000025,74.910917420939568956
0.185000000000000026,73.508173018449397773
0.186000000000000026,72.120027276474871769
0.187000000000000027,70.747055232213597264
0.188000000000000028,69.389784689681917484
0.189000000000000029,68.048670002060347883
0.190000000000000030,66.724075223968981163
0.191000000000000031,65.416265545716854035
0.192000000000000032,64.125405741342376587
0.193000000000000033,62.851564293173510123
0.194000000000000034,61.594721871168680138
0.195000000000000034,60.354782922047149896
0.196000000000000035,59.131589241289326253
0.197000000000000036,57.924934544078453769
0.198000000000000037,56.734579206089129855
0.199000000000000038,55.560264501632239842
0.200000000000000039,54.401725817604599911
0.201000000000000040,53.258704461757972126
0.202000000000000041,52.130957809646375267
0.203000000000000042,51.018267644359838187
0.204000000000000042,49.920446636096983184
0.205000000000000043,48.837342984931851220
0.206000000000000044,47.768843310585246797
0.207000000000000045,46.714873918844673994
0.208000000000000046,45.675400606982449858
0.209000000000000047,44.650427191731836274
0.210000000000000048,43.639992954766491096
0.211000000000000049,42.644169203832163362
0.212000000000000050,41.663055144247600481
0.213000000000000050,40.696773246861930318
0.214000000000000051,39.745464286010843580
0.215000000000000052,38.809282205691701506
0.216000000000000053,37.888388955057287433
0.217000000000000054,36.982949416235783247
0.218000000000000055,36.093126529106100975
0.219000000000000056,35.219076699545048825
0.220000000000000057,34.360945560244637420
0.221000000000000058,33.518864136806534759
0.222000000000000058,32.692945456680327254
0.223000000000000059,31.883281624786416586
0.224000000000000060,31.089941377432943170
0.225000000000000061,30.312968115436177641
0.226000000000000062,29.552378408171755098
0.227000000000000063,28.808160952573938829
0.228000000000000064,28.080275964790121890
0.229000000000000065,27.368654977192420574
0.230000000000000066,26.673201009648444426
0.231000000000000066,25.993789081238315219
0.232000000000000067,25.330267026866117419
0.233000000000000068,24.682456582326885552
0.234000000000000069,24.050154701246409417
0.235000000000000070,23.433135067796282414
0.236000000000000071,22.831149770100232388
0.237000000000000072,22.243931100690208069
0.238000000000000073,21.671193452155726789
0.239000000000000073,21.112635278176945519
0.240000000000000074,20.567941092365323641
0.241000000000000075,20.036783479697909627
0.242000000000000076,19.518825097760817755
0.243000000000000077,19.013720647469746439
0.244000000000000078,18.521118795368465726
0.245000000000000079,18.040664031986359817
0.246000000000000080,17.571998453035899246
0.247000000000000081,17.114763452426572599
0.248000000000000081,16.668601318148699164
0.249000000000000082,16.233156724023775297
0.250000000000000111,15.808078112119542169
0.251000000000000112,15.393018962283431250
0.252000000000000113,14.987638946752634084
0.253000000000000114,14.591604969156813709
0.254000000000000115,14.204592088438033670
0.255000000000000115,13.826284329279744156
0.256000000000000116,13.456375381565441884
0.257000000000000117,13.094569192185563367
0.258000000000000118,12.740580453185447851
0.259000000000000119,12.394134990804937857
0.260000000000000120,12.054970060410083121
0.261000000000000121,11.722834552668478736
0.262000000000000122,11.397489116578903179
0.263000000000000123,11.078706205143637575
0.264000000000000123,10.766270049573982703
0.265000000000000124,10.459976567956667637
0.266000000000000125,10.159633214286175829
0.267000000000000126,9.865058773695182026
0.268000000000000127,9.576083109596954301
0.269000000000000128,9.292546868298391161
0.270000000000000129,9.014301146454656077
0.271000000000000130,8.741207126522388293
0.272000000000000131,8.473135685133879491
0.273000000000000131,8.209966979062842896
0.274000000000000132,7.951590013189060002
0.275000000000000133,7.697902194596861314
0.276000000000000134,7.448808876665450995
0.277000000000000135,7.204222896730303027
0.278000000000000136,6.964064110616169145
0.279000000000000137,6.728258927067038542
0.280000000000000138,6.496739844828399058
0.281000000000000139,6.269444994872978683
0.282000000000000139,6.046317690006225654
0.283000000000000140,5.827305983841197801
0.284000000000000141,5.612362240896904275
0.285000000000000142,5.401442719349037525
0.286000000000000143,5.194507167748654730
0.287000000000000144,4.991518436823089822
0.288000000000000145,4.792442107283639174
0.289000000000000146,4.597246134388183414
0.290000000000000147,4.405900509841347734
0.291000000000000147,4.218376941462942398
0.292000000000000148,4.034648550913956910
0.293000000000000149,3.854689589641142611
0.294000000000000150,3.678475173082958349
0.295000000000000151,3.505981033073304332
0.296000000000000152,3.337183288283241289
0.297000000000000153,3.172058232454904037
0.298000000000000154,3.010582140105357851
0.299000000000000155,2.852731089310959867
0.300000000000000155,2.698480801124005790
0.301000000000000156,2.547806495123190018
0.302000000000000157,2.400682760556071660
0.303000000000000158,2.257083442496338854
0.304000000000000159,2.116981542409079431
0.305000000000000160,1.980349132494457987
0.306000000000000161,1.847157283162451646
0.307000000000000162,1.717376002979098093
0.308000000000000163,1.590974190417137946
0.309000000000000163,1.467919596740549837
0.310000000000000164,1.348178799353076496
0.311000000000000165,1.231717184944946641
0.312000000000000166,1.118498941779114020
0.313000000000000167,1.008487060468342023
0.314000000000000168,0.901643342606900822
0.315000000000000169,0.797928416635102389
0.316000000000000170,0.697301760331271892
0.317000000000000171,0.599721729343811072
0.318000000000000171,0.505145591195211630
0.319000000000000172,0.413529564210151968
0.320000000000000173,0.324828860841208822
0.321000000000000174,0.238997734887577279
0.322000000000000175,0.155989532124502256
0.323000000000000176,0.075756743884049321
0.324000000000000177,-0.001748936849410709
0.325000000000000178,-0.076576557242377510
0.326000000000000179,-0.148775844704905402
0.327000000000000179,-0.218397145640484680
0.328000000000000180,-0.285491363198593251
0.329000000000000181,-0.350109894353330953
0.330000000000000182,-0.412304566609563605
0.331000000000000183,-0.472127574617277390
0.332000000000000184,-0.529631416953798118
0.333000000000000185,-0.584868833313762382
0.334000000000000186,-0.637892742327285989
0.335000000000000187,-0.688756180207964919
0.336000000000000187,-0.737512240414561981
0.337000000000000188,-0.784214014492515377
0.338000000000000189,-0.828914534245327461
0.339000000000000190,-0.871666715369715739
0.340000000000000191,-0.912523302673294401
0.341000000000000192,-0.951536816979503874
0.342000000000000193,-0.988759503810504703
0.343000000000000194,-1.024243283926246972
0.344000000000000195,-1.058039705785300599
0.345000000000000195,-1.090199899982172260
0.346000000000000196,-1.120774535704475827
0.347000000000000197,-1.149813779243686884
0.348000000000000198,-1.177367254583607359
0.349000000000000199,-1.203484006081872559
0.350000000000000200,-1.228212463251862063
0.351000000000000201,-1.251600407644627655
0.352000000000000202,-1.273694941823614091
0.353000000000000203,-1.294542460418563357
0.354000000000000203,-1.314188623239086695
0.355000000000000204,-1.332678330422984114
0.356000000000000205,-1.350055699589667979
0.357000000000000206,-1.366364044964656355
0.358000000000000207,-1.381645858436931773
0.359000000000000208,-1.395942792507766761
0.360000000000000209,-1.409295645086339199
0.361000000000000210,-1.421744346084638844
0.362000000000000210,-1.433327945762035593
0.363000000000000211,-1.444084604767566837
0.364000000000000212,-1.454051585826541482
0.365000000000000213,-1.463265247016402704
0.366000000000000214,-1.471761036575828019
0.367000000000000215,-1.479573489190016300
0.368000000000000216,-1.486736223694650416
0.369000000000000217,-1.493281942140356922
0.370000000000000218,-1.499242430159552608
0.371000000000000218,-1.504648558577282857
0.372000000000000219,-1.509530286208045080
0.373000000000000220,-1.513916663780775940
0.374000000000000221,-1.517835838934719295
0.375000000000000222,-1.521315062229354309
0.376000000000000223,-1.524380694112614121
0.377000000000000224,-1.527058212792068215
0.378000000000000225,-1.529372222954981542
0.379000000000000226,-1.531346465284009639
0.380000000000000226,-1.533003826716587303
0.381000000000000227,-1.534366351396952544
0.382000000000000228,-1.535455252271339388
0.383000000000000229,-1.536290923277870979
0.384000000000000230,-1.536892952084108810
0.385000000000000231,-1.537280133326747178
0.386000000000000232,-1.537470482309011732
0.387000000000000233,-1.537481249113076043
0.388000000000000234,-1.537328933085985838
0.389000000000000234,-1.537029297659275651
0.390000000000000235,-1.536597385463660315
0.391000000000000236,-1.536047533701898171
0.392000000000000237,-1.535393389744162507
0.393000000000000238,-1.534647926911924642
0.394000000000000239,-1.533823460417541362
0.395000000000000240,-1.532931663428450442
0.396000000000000241,-1.531983583226067758
0.397000000000000242,-1.530989657430951389
0.398000000000000242,-1.529959730267273610
0.399000000000000243,-1.528903068840767876
0.400000000000000244,-1.527828379405858028
0.401000000000000245,-1.526743823598931682
0.402000000000000246,-1.525657034615800267
0.403000000000000247,-1.524575133312942921
0.404000000000000248,-1.523504744213073803
0.405000000000000249,-1.522452011396912885
0.406000000000000250,-1.521422614264061668
0.407000000000000250,-1.520421783147146710
0.408000000000000251,-1.519454314764300040
0.409000000000000252,-1.518524587496263845
0.410000000000000253,-1.517636576475258625
0.411000000000000254,-1.516793868473869100
0.412000000000000255,-1.515999676583001277
0.413000000000000256,-1.515256854669074560
0.414000000000000257,-1.514567911601191863
0.415000000000000258,-1.513935025240243037
0.416000000000000258,-1.513360056182309288
0.417000000000000259,-1.512844561249858222
0.418000000000000260,-1.512389806724714791
0.419000000000000261,-1.511996781317640481
0.420000000000000262,-1.511666208869948846
0.421000000000000263,-1.511398560783349554
0.422000000000000264,-1.511194068174622540
0.423000000000000265,-1.511052733752537680
0.424000000000000266,-1.510974343414905663
0.425000000000000266,-1.510958477564052549
0.426000000000000267,-1.511004522139747897
0.427000000000000268,-1.511111679368903227
0.428000000000000269,-1.511278978231855641
0.429000000000000270,-1.511505284645562774
0.430000000000000271,-1.511789311364266863
0.431000000000000272,-1.512129627598752579
0.432000000000000273,-1.512524668355483382
0.433000000000000274,-1.512972743497414063
0.434000000000000274,-1.513472046528440584
0.435000000000000275,-1.514020663103805120
0.436000000000000276,-1.514616579269052021
0.437000000000000277,-1.515257689430324461
0.438000000000000278,-1.515941804059066644
0.439000000000000279,-1.516666657134413843
0.440000000000000280,-1.517429913326694635
0.441000000000000281,-1.518229174925672220
0.442000000000000282,-1.519061988517415474
0.443000000000000282,-1.519925851413580498
0.444000000000000283,-1.520818217837361708
0.445000000000000284,-1.521736504870180751
0.446000000000000285,-1.522678098163432470
0.447000000000000286,-1.523640357419797642
0.448000000000000287,-1.524620621648412611
0.449000000000000288,-1.525616214198633802
0.450000000000000289,-1.526624447576865329
0.451000000000000290,-1.527642628051170126
0.452000000000000290,-1.528668060048387733
0.453000000000000291,-1.529698050348397453
0.454000000000000292,-1.530729912080380117
0.455000000000000293,-1.531760968525758271
0.456000000000000294,-1.532788556732636476
0.457000000000000295,-1.533810030946493042
0.458000000000000296,-1.534822765861866056
0.459000000000000297,-1.535824159699815894
0.460000000000000298,-1.536811637115851337
0.461000000000000298,-1.537782651943043088
0.462000000000000299,-1.538734689774996722
0.463000000000000300,-1.539665270393270280
0.464000000000000301,-1.540571950043901905
0.465000000000000302,-1.541452323567531035
0.466000000000000303,-1.542304026387634641
0.467000000000000304,-1.543124736361332072
0.468000000000000305,-1.543912175497130335
0.469000000000000306,-1.544664111543941454
0.470000000000000306,-1.545378359455687356
0.471000000000000307,-1.546052782735605868
0.472000000000000308,-1.546685294664496890
0.473000000000000309,-1.547273859416932629
0.474000000000000310,-1.547816493069417820
0.475000000000000311,-1.548311264504476981
0.476000000000000312,-1.548756296214506945
0.477000000000000313,-1.549149765009173896
0.478000000000000314,-1.549489902630055038
0.479000000000000314,-1.549774996276221284
0.480000000000000315,-1.550003389044216418
0.481000000000000316,-1.550173480286039407
0.482000000000000317,-1.550283725888409014
0.483000000000000318,-1.550332638476746627
0.484000000000000319,-1.550318787547049215
0.485000000000000320,-1.550240799528871838
0.486000000000000321,-1.550097357782499685
0.487000000000000322,-1.549887202533336561
0.488000000000000322,-1.549609130746397057
0.489000000000000323,-1.549261995943875148
0.490000000000000324,-1.548844707968473955
0.491000000000000325,-1.548356232695272450
0.492000000000000326,-1.547795591694714590
0.493000000000000327,-1.547161861849359665
0.494000000000000328,-1.546454174926801484
0.495000000000000329,-1.545671717111251064
0.496000000000000330,-1.544813728496042149
0.497000000000000330,-1.543879502539468263
0.498000000000000331,-1.542868385485963945
0.499000000000000332,-1.541779775754977599
0.500000000000000333,-1.540613123299468423
0.501000000000000334,-1.539367928936038687
0.502000000000000335,-1.538043743648716433
0.503000000000000336,-1.536640167868179585
0.504000000000000337,-1.535156850728278233
0.505000000000000338,-1.533593489301575463
0.506000000000000338,-1.531949827815611620
0.507000000000000339,-1.530225656851513794
0.508000000000000340,-1.528420812526483541
0.509000000000000341,-1.526535175661762667
0.510000000000000342,-1.524568670937406889
0.511000000000000343,-1.522521266035382181
0.512000000000000344,-1.520392970772240337
0.513000000000000345,-1.518183836222714023
0.514000000000000346,-1.515893953835490082
0.515000000000000346,-1.513523454542278213
0.516000000000000347,-1.511072507861380254
0.517000000000000348,-1.508541320996864332
0.518000000000000349,-1.505930137934311741
0.519000000000000350,-1.503239238534241240
0.520000000000000351,-1.500468937624074517
0.521000000000000352,-1.497619584089656453
0.522000000000000353,-1.494691559967092687
0.523000000000000353,-1.491685279535833519
0.524000000000000354,-1.488601188413756438
0.525000000000000355,-1.485439762654993778
0.526000000000000356,-1.482201507851228284
0.527000000000000357,-1.478886958237180194
0.528000000000000358,-1.475496675800852753
0.529000000000000359,-1.472031249399236907
0.530000000000000360,-1.468491293879967241
0.531000000000000361,-1.464877449209559312
0.532000000000000361,-1.461190379608681589
0.533000000000000362,-1.457430772694986221
0.534000000000000363,-1.453599338633926763
0.535000000000000364,-1.449696809298035571
0.536000000000000365,-1.445723937434999495
0.537000000000000366,-1.441681495844988614
0.538000000000000367,-1.437570276567484928
0.539000000000000368,-1.433391090078079966
0.540000000000000369,-1.429144764495375641
0.541000000000000369,-1.424832144798430900
0.542000000000000370,-1.420454092054874717
0.543000000000000371,-1.416011482660017418
0.544000000000000372,-1.411505207587130162
0.545000000000000373,-1.406936171649109113
0.546000000000000374,-1.402305292771682144
0.547000000000000375,-1.397613501278326842
0.548000000000000376,-1.392861739187071013
0.549000000000000377,-1.388050959519242733
0.550000000000000377,-1.383182125620338043
0.551000000000000378,-1.378256210493042921
0.552000000000000379,-1.373274196142563408
0.553000000000000380,-1.368237072934248122
0.554000000000000381,-1.363145838963596423
0.555000000000000382,-1.358001499438728166
0.556000000000000383,-1.352805066075228435
0.557000000000000384,-1.347557556503537146
0.558000000000000385,-1.342259993688728725
0.559000000000000385,-1.336913405362797791
0.560000000000000386,-1.331518823469368895
0.561000000000000387,-1.326077283620823000
0.562000000000000388,-1.320589824567781623
0.563000000000000389,-1.315057487680959536
0.564000000000000390,-1.309481316445258781
0.565000000000000391,-1.303862355966094455
0.566000000000000392,-1.298201652487860569
0.567000000000000393,-1.292500252924485560
0.568000000000000393,-1.286759204401939805
0.569000000000000394,-1.280979553812665594
0.570000000000000395,-1.275162347381819661
0.571000000000000396,-1.269308630245176150
0.572000000000000397,-1.263419446038676286
0.573000000000000398,-1.257495836499424646
0.574000000000000399,-1.251538841078082331
0.575000000000000400,-1.245549496562485592
0.576000000000000401,-1.239528836712394222
0.577000000000000401,-1.233477891905274904
0.578000000000000402,-1.227397688792900565
0.579000000000000403,-1.221289249968702251
0.580000000000000404,-1.215153593645744934
0.581000000000000405,-1.208991733345111674
0.582000000000000406,-1.202804677594653482
0.583000000000000407,-1.196593429637859751
0.584000000000000408,-1.190358987152798864
0.585000000000000409,-1.184102341980907358
0.586000000000000409,-1.177824479865506202
0.587000000000000410,-1.171526380199923612
0.588000000000000411,-1.165209015784990587
0.589000000000000412,-1.158873352595872763
0.590000000000000413,-1.152520349557953683
0.591000000000000414,-1.146150958331725089
0.592000000000000415,-1.139766123106482620
0.593000000000000416,-1.133366780402645047
0.594000000000000417,-1.126953858882589588
0.595000000000000417,-1.120528279169855868
0.596000000000000418,-1.114090953676461826
0.597000000000000419,-1.107642786438342020
0.598000000000000420,-1.101184672958574140
0.599000000000000421,-1.094717500058389081
0.600000000000000422,-1.088242145735714983
0.601000000000000423,-1.081759479031131788
0.602000000000000424,-1.075270359901097983
0.603000000000000425,-1.068775639098287211
0.604000000000000425,-1.062276158058849340
0.605000000000000426,-1.055772748796501403
0.606000000000000427,-1.049266233803296533
0.607000000000000428,-1.042757425956804873
0.608000000000000429,-1.036247128433799292
0.609000000000000430,-1.029736134629995359
0.610000000000000431,-1.023225228085991700
0.611000000000000432,-1.016715182419056784
0.612000000000000433,-1.010206761260708630
0.613000000000000433,-1.003700718199974418
