# TiO2-rut-110_CS-13835861-AC
# h[nm],U(h)[kJ/mol]
0.149999999999999994,161.123090029622005659
0.150999999999999995,159.346111915748480214
0.151999999999999996,156.949837126327963688
0.152999999999999997,154.463080698192300133
0.153999999999999998,152.067942286882100689
0.154999999999999999,149.789416842499747418
0.156000000000000000,147.595365211344073941
0.157000000000000001,145.444584687016487123
0.158000000000000002,143.306225751681154179
0.159000000000000002,141.164482786878011211
0.160000000000000003,139.016598869432357333
0.161000000000000004,136.868585313716494056
0.162000000000000005,134.730870055278188602
0.163000000000000006,132.614825376174508165
0.164000000000000007,130.530435655900362235
0.165000000000000008,128.485022743720122662
0.166000000000000009,126.482804968854566141
0.167000000000000010,124.525034767997752283
0.168000000000000010,122.610483968530132870
0.169000000000000011,120.736092371351602992
0.170000000000000012,118.897646354772177801
0.171000000000000013,117.090400614795044021
0.172000000000000014,115.309594019115564834
0.173000000000000015,113.550839034661137816
0.174000000000000016,111.810384005696988652
0.175000000000000017,110.085260117474064145
0.176000000000000018,108.373331774403055761
0.177000000000000018,106.673271865968700922
0.178000000000000019,104.984483293367901524
0.179000000000000020,103.306986238339817419
0.180000000000000021,101.641287777632499001
0.181000000000000022,99.988247165763141311
0.182000000000000023,98.348946824838080261
0.183000000000000024,96.724576047050078387
0.184000000000000025,95.116331776468186376
0.185000000000000026,93.525338655218519079
0.186000000000000026,91.952588803273314966
0.187000000000000027,90.398900523293491460
0.188000000000000028,88.864894233866081663
0.189000000000000029,87.350983377432328325
0.190000000000000030,85.857377761930919746
0.191000000000000031,84.384096718670463133
0.192000000000000032,82.930989539488194850
0.193000000000000033,81.497760847026000874
0.194000000000000034,80.083998813667022887
0.195000000000000034,78.689204445458827308
0.196000000000000035,77.312820462290403611
0.197000000000000036,75.954258615980393188
0.198000000000000037,74.612924580405689312
0.199000000000000038,73.288239813463150085
0.200000000000000039,71.979660024233410809
0.201000000000000040,70.686690077779289254
0.202000000000000041,69.408895334295394264
0.203000000000000042,68.145909550141112732
0.204000000000000042,66.897439568026513257
0.205000000000000043,65.663267095370287052
0.206000000000000044,64.443247917055813900
0.207000000000000045,63.237308915070073567
0.208000000000000046,62.045443276349125483
0.209000000000000047,60.867704264934253899
0.210000000000000048,59.704197918355042418
0.211000000000000049,58.555075003782334875
0.212000000000000050,57.420522539365855152
0.213000000000000050,56.300755152386763314
0.214000000000000051,55.196006510162000325
0.215000000000000052,54.106521023475679044
0.216000000000000053,53.032545986823706130
0.217000000000000054,51.974324285827364633
0.218000000000000055,50.932087770446678121
0.219000000000000056,49.906051363563925349
0.220000000000000057,48.896407948387512477
0.221000000000000058,47.903324055103851720
0.222000000000000058,46.926936347294940788
0.223000000000000059,45.967348891801137256
0.224000000000000060,45.024631181799655621
0.225000000000000061,44.098816871722853250
0.226000000000000062,43.189903174036501809
0.227000000000000063,42.297850861603919270
0.228000000000000064,41.422584815132658775
0.229000000000000065,40.563995052779453943
0.230000000000000066,39.721938178140881348
0.231000000000000066,38.896239183333939593
0.232000000000000067,38.086693545459141319
0.233000000000000068,37.293069557222338517
0.234000000000000069,36.515110835687046631
0.235000000000000070,35.752538956860050234
0.236000000000000071,35.005056167929275546
0.237000000000000072,34.272348133338013554
0.238000000000000073,33.554086675378549387
0.239000000000000073,32.849932474521999382
0.240000000000000074,32.159537699182870085
0.241000000000000075,31.482548538983639475
0.242000000000000076,30.818607619775697515
0.243000000000000077,30.167356282648636778
0.244000000000000078,29.528436712886826143
0.245000000000000079,28.901493908286710166
0.246000000000000080,28.286177479418405767
0.247000000000000081,27.682143277289231520
0.248000000000000081,27.089054846447549352
0.249000000000000082,26.506584703853839358
0.250000000000000111,25.934415445849673176
0.251000000000000112,25.372240687286421235
0.252000000000000113,24.819765838345656306
0.253000000000000114,24.276708725810017597
0.254000000000000115,23.742800066540091564
0.255000000000000115,23.217783801700157653
0.256000000000000116,22.701417300869028537
0.257000000000000117,22.193471445590965629
0.258000000000000118,21.693730602183297407
0.259000000000000119,21.201992493738121226
0.260000000000000120,20.718067981253788901
0.261000000000000121,20.241780763722378111
0.262000000000000122,19.772967006797145473
0.263000000000000123,19.311474909384838128
0.264000000000000123,18.857164217161383135
0.265000000000000124,18.409905691612191703
0.266000000000000125,17.969580542757714881
0.267000000000000126,17.536079833252991023
0.268000000000000127,17.109303861054502960
0.269000000000000128,16.689161527338391977
0.270000000000000129,16.275569695836271222
0.271000000000000130,15.868452549235906091
0.272000000000000131,15.467740947779418548
0.273000000000000131,15.073371794685419545
0.274000000000000132,14.685287412528259310
0.275000000000000133,14.303434934229883879
0.276000000000000134,13.927765711861173514
0.277000000000000135,13.558234746012155725
0.278000000000000136,13.194800138074526785
0.279000000000000137,12.837422567388514949
0.280000000000000138,12.486064794839407455
0.281000000000000139,12.140691194146260301
0.282000000000000139,11.801267311769100488
0.283000000000000140,11.467759456068591817
0.284000000000000141,11.140134316085401167
0.285000000000000142,10.818358610063533831
0.286000000000000143,10.502398763622533551
0.287000000000000144,10.192220617287333084
0.288000000000000145,9.887789162909076168
0.289000000000000146,9.589068308357369119
0.290000000000000147,9.296020669729344377
0.291000000000000147,9.008607390206254451
0.292000000000000148,8.726787984589652325
0.293000000000000149,8.450520208468406125
0.294000000000000150,8.179759950900864496
0.295000000000000151,7.914461149444508514
0.296000000000000152,7.654575726326068086
0.297000000000000153,7.400053544517734672
0.298000000000000154,7.150842382468310277
0.299000000000000155,6.906887926231496166
0.300000000000000155,6.668133777735246959
0.301000000000000156,6.434521477946383072
0.302000000000000157,6.205990543700774076
0.303000000000000158,5.982478516993099404
0.304000000000000159,5.763921025547884547
0.305000000000000160,5.550251853526765089
0.306000000000000161,5.341403021263571027
0.307000000000000162,5.137304872958926794
0.308000000000000163,4.937886171308785599
0.309000000000000163,4.743074198086391746
0.310000000000000164,4.552794859743348077
0.311000000000000165,4.366972797143518825
0.312000000000000166,4.185531498591652522
0.313000000000000167,4.008393415367669910
0.314000000000000168,3.835480079026353017
0.315000000000000169,3.666712219770844605
0.316000000000000170,3.502009885256430088
0.317000000000000171,3.341292559228551173
0.318000000000000171,3.184479279445468158
0.319000000000000172,3.031488754380993633
0.320000000000000173,2.882239478247102138
0.321000000000000174,2.736649843918666836
0.322000000000000175,2.594638253383559690
0.323000000000000176,2.456123225381082076
0.324000000000000177,2.321023499929295131
0.325000000000000178,2.189258139478242882
0.326000000000000179,2.060746626460035369
0.327000000000000179,1.935408957039798761
0.328000000000000180,1.813165730902121409
0.329000000000000181,1.693938236936632036
0.330000000000000182,1.577648534713973705
0.331000000000000183,1.464219531668609076
0.332000000000000184,1.353575055929158832
0.333000000000000185,1.245639924758976669
0.334000000000000186,1.140340008590243315
0.335000000000000187,1.037602290654024983
0.336000000000000187,0.937354922225897225
0.337000000000000188,0.839527273523239637
0.338000000000000189,0.744049980304264169
0.339000000000000190,0.650854986232431765
0.340000000000000191,0.559875581081824003
0.341000000000000192,0.471046434869396624
0.342000000000000193,0.384303628009777298
0.343000000000000194,0.299584677596352100
0.344000000000000195,0.216828559920090896
0.345000000000000195,0.135975729343110169
0.346000000000000196,0.056968133650091526
0.347000000000000197,-0.020250773995548553
0.348000000000000198,-0.095736026359841825
0.349000000000000199,-0.169541136577269047
0.350000000000000200,-0.241718095584940340
0.351000000000000201,-0.312317372414803729
0.352000000000000202,-0.381387917205968430
0.353000000000000203,-0.448977166799028882
0.354000000000000203,-0.515131052774543075
0.355000000000000204,-0.579894011798455566
0.356000000000000205,-0.643308998138646282
0.357000000000000206,-0.705417498218403716
0.358000000000000207,-0.766259547074221947
0.359000000000000208,-0.825873746588041135
0.360000000000000209,-0.884297285366431707
0.361000000000000210,-0.941565960141826586
0.362000000000000210,-0.997714198574349398
0.363000000000000211,-1.052775083335621531
0.364000000000000212,-1.106780377359605883
0.365000000000000213,-1.159760550148849045
0.366000000000000214,-1.211744805028327709
0.367000000000000215,-1.262761107242610148
0.368000000000000216,-1.312836212796179902
0.369000000000000217,-1.361995697940175498
0.370000000000000218,-1.410263989213191849
0.371000000000000218,-1.457664393947236459
0.372000000000000219,-1.504219131154203470
0.373000000000000220,-1.549949362711980694
0.374000000000000221,-1.594875224773174782
0.375000000000000222,-1.639015859323206481
0.376000000000000223,-1.682389445818712304
0.377000000000000224,-1.725013232840385324
0.378000000000000225,-1.766903569698528242
0.379000000000000226,-1.808075937932919874
0.380000000000000226,-1.848544982652433832
0.381000000000000227,-1.888324543662898147
0.382000000000000228,-1.927427686335535295
0.383000000000000229,-1.965866732171214881
0.384000000000000230,-2.003653289019129424
0.385000000000000231,-2.040798280911678475
0.386000000000000232,-2.077311977480047922
0.387000000000000233,-2.113204022918268699
0.388000000000000234,-2.148483464465906767
0.389000000000000234,-2.183158780382637776
0.390000000000000235,-2.217237907390201546
0.391000000000000236,-2.250728267559957363
0.392000000000000237,-2.283636794626489053
0.393000000000000238,-2.315969959710112658
0.394000000000000239,-2.347733796433172593
0.395000000000000240,-2.378933925417246797
0.396000000000000241,-2.409575578150235486
0.397000000000000242,-2.439663620214208795
0.398000000000000242,-2.469202573866799089
0.399000000000000243,-2.498196639970356348
0.400000000000000244,-2.526649719264958627
0.401000000000000245,-2.554565432982745410
0.402000000000000246,-2.581947142802353934
0.403000000000000247,-2.608797970143858169
0.404000000000000248,-2.635120814805563594
0.405000000000000249,-2.660918372945407562
0.406000000000000250,-2.686193154410614348
0.407000000000000250,-2.710947499420488516
0.408000000000000251,-2.735183594607993207
0.409000000000000252,-2.758903488426704076
0.410000000000000253,-2.782109105930599124
0.411000000000000254,-2.804802262934777080
0.412000000000000255,-2.826984679565916814
0.413000000000000256,-2.848657993212052375
0.414000000000000257,-2.869823770881484215
0.415000000000000258,-2.890483520981570464
0.416000000000000258,-2.910638704528185183
0.417000000000000259,-2.930290745797402785
0.418000000000000260,-2.949441042431037552
0.419000000000000261,-2.968090975008216503
0.420000000000000262,-2.986241916095212723
0.421000000000000263,-3.003895238786283173
0.422000000000000264,-3.021052324748066731
0.423000000000000265,-3.037714571780648853
0.424000000000000266,-3.053883400908312229
0.425000000000000266,-3.069560263013007884
0.426000000000000267,-3.084746645023884959
0.427000000000000268,-3.099444075676053512
0.428000000000000269,-3.113654130851790214
0.429000000000000270,-3.127378438517492754
0.430000000000000271,-3.140618683269443157
0.431000000000000272,-3.153376610501624988
0.432000000000000273,-3.165654030208483682
0.433000000000000274,-3.177452820435655134
0.434000000000000274,-3.188774930391414575
0.435000000000000275,-3.199622383231491618
0.436000000000000276,-3.209997278529812093
0.437000000000000277,-3.219901794447450616
0.438000000000000278,-3.229338189611977050
0.439000000000000279,-3.238308804719221001
0.440000000000000280,-3.246816063869130797
0.441000000000000281,-3.254862475647351427
0.442000000000000282,-3.262450633963924762
0.443000000000000282,-3.269583218660081059
0.444000000000000283,-3.276262995894200003
0.445000000000000284,-3.282492818317457761
0.446000000000000285,-3.288275625049627671
0.447000000000000286,-3.293614441465291698
0.448000000000000287,-3.298512378800205092
0.449000000000000288,-3.302972633587715645
0.450000000000000289,-3.306998486934468851
0.451000000000000290,-3.310593303644682184
0.452000000000000290,-3.313760531201927595
0.453000000000000291,-3.316503698616971807
0.454000000000000292,-3.318826415150231135
0.455000000000000293,-3.320732368916886834
0.456000000000000294,-3.322225325382627936
0.457000000000000295,-3.323309125757696769
0.458000000000000296,-3.323987685296563743
0.459000000000000297,-3.324264991510498923
0.460000000000000298,-3.324145102299882915
0.461000000000000298,-3.323632144012962808
0.462000000000000299,-3.322730309437530227
0.463000000000000300,-3.321443855731619266
0.464000000000000301,-3.319777102299347860
0.465000000000000302,-3.317734428617523434
0.466000000000000303,-3.315320272018581704
0.467000000000000304,-3.312539125435198351
0.468000000000000305,-3.309395535111576692
0.469000000000000306,-3.305894098286343841
0.470000000000000306,-3.302039460851758257
0.471000000000000307,-3.297836314993551898
0.472000000000000308,-3.293289396815836767
0.473000000000000309,-3.288403483955058881
0.474000000000000310,-3.283183393186865917
0.475000000000000311,-3.277633978029636630
0.476000000000000312,-3.271760126348170594
0.477000000000000313,-3.265566757960868038
0.478000000000000314,-3.259058822253551035
0.479000000000000314,-3.252241295802998255
0.480000000000000315,-3.245119180012938642
0.481000000000000316,-3.237697498765291559
0.482000000000000317,-3.229981296089080356
0.483000000000000318,-3.221975633849497367
0.484000000000000319,-3.213685589459290615
0.485000000000000320,-3.205116253614620714
0.486000000000000321,-3.196272728057333090
0.487000000000000322,-3.187160123365512465
0.488000000000000322,-3.177783556773928986
0.489000000000000323,-3.168148150026153242
0.490000000000000324,-3.158259027259641805
0.491000000000000325,-3.148121312925232562
0.492000000000000326,-3.137740129742279116
0.493000000000000327,-3.127120596690614374
0.494000000000000328,-3.116267827040316352
0.495000000000000329,-3.105186926420309135
0.496000000000000330,-3.093882990926550391
0.497000000000000330,-3.082361105270737145
0.498000000000000331,-3.070626340969967227
0.499000000000000332,-3.058683754578230385
0.500000000000000333,-3.046538385960054995
0.501000000000000334,-3.034195256606786018
0.502000000000000335,-3.021659367995945367
0.503000000000000336,-3.008935699993903423
0.504000000000000337,-2.996029209302133012
0.505000000000000338,-2.982944827947188848
0.506000000000000338,-2.969687461814574103
0.507000000000000339,-2.956261989226518505
0.508000000000000340,-2.942673259563639121
0.509000000000000341,-2.928926091930571296
0.510000000000000342,-2.915025273865265554
0.511000000000000343,-2.900975560092019734
0.512000000000000344,-2.886781671317888431
0.513000000000000345,-2.872448293072341396
0.514000000000000346,-2.857980074589914210
0.515000000000000346,-2.843381627735454664
0.516000000000000347,-2.828657525971703279
0.517000000000000348,-2.813812303368867340
0.518000000000000349,-2.798850453655657766
0.519000000000000350,-2.783776429311533462
0.520000000000000351,-2.768594640699514109
0.521000000000000352,-2.753309455239284720
0.522000000000000353,-2.737925196619886758
0.523000000000000353,-2.722446144051599681
0.524000000000000354,-2.706876531556477783
0.525000000000000355,-2.691220547296878873
0.526000000000000356,-2.675482332941488295
0.527000000000000357,-2.659665983068267181
0.528000000000000358,-2.643775544603602867
0.529000000000000359,-2.627815016297211592
0.530000000000000360,-2.611788348231973256
0.531000000000000361,-2.595699441368241267
0.532000000000000361,-2.579552147121842332
0.533000000000000362,-2.563350266975199077
0.534000000000000363,-2.547097552120849429
0.535000000000000364,-2.530797703136765442
0.536000000000000365,-2.514454369692718849
0.537000000000000366,-2.498071150287117348
0.538000000000000367,-2.481651592013490504
0.539000000000000368,-2.465199190356160752
0.540000000000000369,-2.448717389014166024
0.541000000000000369,-2.432209579752999229
0.542000000000000370,-2.415679102283271540
0.543000000000000371,-2.399129244165783881
0.544000000000000372,-2.382563240742241462
0.545000000000000373,-2.365984275090981193
0.546000000000000374,-2.349395478006997884
0.547000000000000375,-2.332799928005638623
0.548000000000000376,-2.316200651349319628
0.549000000000000377,-2.299600622096546587
0.550000000000000377,-2.283002762172647415
0.551000000000000378,-2.266409941461515309
0.552000000000000379,-2.249824977917796787
0.553000000000000380,-2.233250637698803498
0.554000000000000381,-2.216689635315556295
0.555000000000000382,-2.200144633802418870
0.556000000000000383,-2.183618244904504735
0.557000000000000384,-2.167113029282534242
0.558000000000000385,-2.150631496734244585
0.559000000000000385,-2.134176106432013054
0.560000000000000386,-2.117749267175963013
0.561000000000000387,-2.101353337662026810
0.562000000000000388,-2.084990626764390509
0.563000000000000389,-2.068663393831801312
0.564000000000000390,-2.052373848997129269
0.565000000000000391,-2.036124153499693890
0.566000000000000392,-2.019916420019791659
0.567000000000000393,-2.003752713024971932
0.568000000000000393,-1.987635049127438602
0.569000000000000394,-1.971565397452176072
0.570000000000000395,-1.955545680015296828
0.571000000000000396,-1.939577772112036413
0.572000000000000397,-1.923663502714079154
0.573000000000000398,-1.907804654875591144
0.574000000000000399,-1.892002966147642073
0.575000000000000400,-1.876260129000463905
0.576000000000000401,-1.860577791253173796
0.577000000000000401,-1.844957556510577801
0.578000000000000402,-1.829400984606502245
0.579000000000000403,-1.813909592053373432
0.580000000000000404,-1.798484852497641340
0.581000000000000405,-1.783128197180554819
0.582000000000000406,-1.767841015404061356
0.583000000000000407,-1.752624655001313370
0.584000000000000408,-1.737480422811557901
0.585000000000000409,-1.722409585158957368
0.586000000000000409,-1.707413368335039205
0.587000000000000410,-1.692492959084487936
0.588000000000000411,-1.677649505093836257
0.589000000000000412,-1.662884115482902825
0.590000000000000413,-1.648197861298510869
0.591000000000000414,-1.633591776010301144
0.592000000000000415,-1.619066856008327893
0.593000000000000416,-1.604624061102096322
0.594000000000000417,-1.590264315020840424
0.595000000000000417,-1.575988505914805327
0.596000000000000418,-1.561797486857101180
0.597000000000000419,-1.547692076346156576
0.598000000000000420,-1.533673058808244782
0.599000000000000421,-1.519741185100085712
0.600000000000000422,-1.505897173011138346
0.601000000000000423,-1.492141707765439751
0.602000000000000424,-1.478475442522784400
0.603000000000000425,-1.464898998879005543
0.604000000000000425,-1.451412967365169004
0.605000000000000426,-1.438017907945510654
0.606000000000000427,-1.424714350513961447
0.607000000000000428,-1.411502795388932530
0.608000000000000429,-1.398383713806471862
0.609000000000000430,-1.385357548411282336
0.610000000000000431,-1.372424713745778568
0.611000000000000432,-1.359585596736778257
0.612000000000000433,-1.346840557179806108
0.613000000000000433,-1.334189928220875787
