# TiO2-rut-110_BGALNA-JS
# h[nm],U(h)[kJ/mol]
0.200000000000000011,142.183598679247694463
0.201000000000000012,139.985006560478666415
0.202000000000000013,137.788482004990271435
0.203000000000000014,135.642259542330094746
0.204000000000000015,133.562071377397501237
0.205000000000000016,131.546173113537349764
0.206000000000000016,129.584776234269696715
0.207000000000000017,127.665681992680674739
0.208000000000000018,125.777394715143216786
0.209000000000000019,123.910612995975128570
0.210000000000000020,122.058720629539081415
0.211000000000000021,120.217699329726968926
0.212000000000000022,118.385742531302142311
0.213000000000000023,116.562748881616613517
0.214000000000000024,114.749804138036893164
0.215000000000000024,112.948712632948357282
0.216000000000000025,111.161607952494975393
0.217000000000000026,109.390652328230387980
0.218000000000000027,107.637822028182128520
0.219000000000000028,105.904769250404726222
0.220000000000000029,104.192747858801709526
0.221000000000000030,102.502589466919559413
0.222000000000000031,100.834716962877280366
0.223000000000000032,99.189183951160202923
0.224000000000000032,97.565730342720485169
0.225000000000000033,95.963846178780585205
0.226000000000000034,94.382837555341637881
0.227000000000000035,92.821890126834816215
0.228000000000000036,91.280127060441984099
0.229000000000000037,89.756659472083924811
0.230000000000000038,88.250628306531510248
0.231000000000000039,86.761237345574926394
0.232000000000000040,85.287777564254000140
0.233000000000000040,83.829643432984639162
0.234000000000000041,82.386342010180740658
0.235000000000000042,80.957495811261907193
0.236000000000000043,79.542840498858410569
0.237000000000000044,78.142218435764519313
0.238000000000000045,76.755569093919390866
0.239000000000000046,75.382917233657352085
0.240000000000000047,74.024359669198929623
0.241000000000000048,72.680051327981189502
0.242000000000000048,71.350191199952774923
0.243000000000000049,70.035008663607129620
0.244000000000000050,68.734750572027451199
0.245000000000000051,67.449669387055422476
0.246000000000000052,66.180012564413999598
0.247000000000000053,64.926013317955693083
0.248000000000000054,63.687882827354044935
0.249000000000000055,62.465803900244068814
0.250000000000000056,61.259926056485106471
0.251000000000000056,60.070361968090296045
0.252000000000000057,58.897185162550286464
0.253000000000000058,57.740428878815194480
0.254000000000000059,56.600085953116682447
0.255000000000000060,55.476109605166016081
0.256000000000000061,54.368414993150906867
0.257000000000000062,53.276881407539306679
0.258000000000000063,52.201354978219839609
0.259000000000000064,51.141651776287609721
0.260000000000000064,50.097561200217782584
0.261000000000000065,49.068849545747397656
0.262000000000000066,48.055263669054397724
0.263000000000000067,47.056534663425942711
0.264000000000000068,46.072381480231484829
0.265000000000000069,45.102514435419905681
0.266000000000000070,44.146638552754737361
0.267000000000000071,43.204456704438165104
0.268000000000000071,42.275672518554166857
0.269000000000000072,41.359993030809604875
0.270000000000000073,40.457131065332006870
0.271000000000000074,39.566807335776452703
0.272000000000000075,38.688752263703619860
0.273000000000000076,37.822707516137448636
0.274000000000000077,36.968427268422544785
0.275000000000000078,36.125679202019718161
0.276000000000000079,35.294245249749721438
0.277000000000000079,34.473922103267746309
0.278000000000000080,33.664521499283608819
0.279000000000000081,32.865870302281770421
0.280000000000000082,32.077810402300741544
0.281000000000000083,31.300198446752585113
0.282000000000000084,30.532905425350683970
0.283000000000000085,29.775816127017776580
0.284000000000000086,29.028828487206073561
0.285000000000000087,28.291852843426262609
0.286000000000000087,27.564811115982017498
0.287000000000000088,26.847635929982647696
0.288000000000000089,26.140269693685798558
0.289000000000000090,25.442663647133674232
0.290000000000000091,24.754776893915785507
0.291000000000000092,24.076575427736603530
0.292000000000000093,23.408031164310251881
0.293000000000000094,22.749120987959450702
0.294000000000000095,22.099825821176334983
0.295000000000000095,21.460129724318562694
0.296000000000000096,20.830019031576551214
0.297000000000000097,20.209481528359496849
0.298000000000000098,19.598505674318708714
0.299000000000000099,18.997079875356153167
0.300000000000000100,18.405191807160719009
0.301000000000000101,17.822827792070718544
0.302000000000000102,17.249972230385132832
0.303000000000000103,16.686607086629994257
0.304000000000000103,16.132711430736730307
0.305000000000000104,15.588261033597991201
0.306000000000000105,15.053228016034617909
0.307000000000000106,14.527580549832071810
0.308000000000000107,14.011282609181089143
0.309000000000000108,13.504293770585258372
0.310000000000000109,13.006569059070784533
0.311000000000000110,12.518058838352486006
0.312000000000000111,12.038708742465100698
0.313000000000000111,11.568459646264479090
0.314000000000000112,11.107247672129391347
0.315000000000000113,10.655004230152080424
0.316000000000000114,10.211656089090105581
0.317000000000000115,9.777125475360586293
0.318000000000000116,9.351330197387236254
0.319000000000000117,8.934183792659396772
0.320000000000000118,8.525595694926485280
0.321000000000000119,8.125471419028952980
0.322000000000000119,7.733712760957065946
0.323000000000000120,7.350218010827920700
0.324000000000000121,6.974882176577172466
0.325000000000000122,6.607597216275353347
0.326000000000000123,6.248252277095501128
0.327000000000000124,5.896733939078616871
0.328000000000000125,5.552926461965329352
0.329000000000000126,5.216712033484577127
0.330000000000000127,4.887971017611649316
0.331000000000000127,4.566582201428856180
0.332000000000000128,4.252423039340481381
0.333000000000000129,3.945369893509317993
0.334000000000000130,3.645298269495129695
0.335000000000000131,3.352083046183371717
0.336000000000000132,3.065598699198244681
0.337000000000000133,2.785719517093533604
0.338000000000000134,2.512319809710438889
0.339000000000000135,2.245274108183080042
0.340000000000000135,1.984457356156822616
0.341000000000000136,1.729745091866488504
0.342000000000000137,1.481013620796445274
0.343000000000000138,1.238140178715638751
0.344000000000000139,1.001003084945624400
0.345000000000000140,0.769481885781003960
0.346000000000000141,0.543457488036914071
0.347000000000000142,0.322812282749823376
0.348000000000000143,0.107430259103963976
0.349000000000000143,-0.102802891301621194
0.350000000000000144,-0.307999679692938955
0.351000000000000145,-0.508270734680976388
0.352000000000000146,-0.703724725925380823
0.353000000000000147,-0.894468296658633699
0.354000000000000148,-1.080606004805050979
0.355000000000000149,-1.262240272409054453
0.356000000000000150,-1.439471343070622522
0.357000000000000151,-1.612397247072319129
0.358000000000000151,-1.781113773871147998
0.359000000000000152,-1.945714451620015994
0.360000000000000153,-2.106290533377776608
0.361000000000000154,-2.262930989662029546
0.362000000000000155,-2.415722506997680874
0.363000000000000156,-2.564749492113305163
0.364000000000000157,-2.710094081438899405
0.365000000000000158,-2.851836155561818575
0.366000000000000159,-2.990053358300979180
0.367000000000000159,-3.124821120065786495
0.368000000000000160,-3.256212685171756327
0.369000000000000161,-3.384299142792677628
0.370000000000000162,-3.509149461237112799
0.371000000000000163,-3.630830525245811291
0.372000000000000164,-3.749407176016191556
0.373000000000000165,-3.864942253669835459
0.374000000000000166,-3.977496641889616935
0.375000000000000167,-4.087129314463106233
0.376000000000000167,-4.193897383480648777
0.377000000000000168,-4.297856148947040822
0.378000000000000169,-4.399059149577106531
0.379000000000000170,-4.497558214556816480
0.380000000000000171,-4.593403516062938508
0.381000000000000172,-4.686643622345115112
0.382000000000000173,-4.777325551185812813
0.383000000000000174,-4.865494823564334936
0.384000000000000175,-4.951195517361981047
0.385000000000000175,-5.034470320956009104
0.386000000000000176,-5.115360586560783851
0.387000000000000177,-5.193906383183984232
0.388000000000000178,-5.270146549076542897
0.389000000000000179,-5.344118743563631924
0.390000000000000180,-5.415859498154011575
0.391000000000000181,-5.485404266833795894
0.392000000000000182,-5.552787475459085798
0.393000000000000183,-5.618042570170718619
0.394000000000000183,-5.681202064761928128
0.395000000000000184,-5.742297586937618270
0.396000000000000185,-5.801359923411127717
0.397000000000000186,-5.858419063791215464
0.398000000000000187,-5.913504243218908663
0.399000000000000188,-5.966643983719832178
0.400000000000000189,-6.017866134243542220
0.401000000000000190,-6.067197909367409991
0.402000000000000191,-6.114665926647308680
0.403000000000000191,-6.160296242602722572
0.404000000000000192,-6.204114387328438340
0.405000000000000193,-6.246145397729200965
0.406000000000000194,-6.286413849378007512
0.407000000000000195,-6.324943887002249632
0.408000000000000196,-6.361759253605545616
0.409000000000000197,-6.396883318236268323
0.410000000000000198,-6.430339102416889219
0.411000000000000199,-6.462149305250534326
0.412000000000000199,-6.492336327224426995
0.413000000000000200,-6.520922292731185621
0.414000000000000201,-6.547929071331848760
0.415000000000000202,-6.573378297785727575
0.416000000000000203,-6.597291390874104877
0.417000000000000204,-6.619689571046237120
0.418000000000000205,-6.640593876917212590
0.419000000000000206,-6.660025180648544207
0.420000000000000207,-6.678004202243036147
0.421000000000000207,-6.694551522786636788
0.422000000000000208,-6.709687596670074861
0.423000000000000209,-6.723432762824249842
0.424000000000000210,-6.735807255003121163
0.425000000000000211,-6.746831211148467844
0.426000000000000212,-6.756524681871030502
0.427000000000000213,-6.764907638082320318
0.428000000000000214,-6.771999977811724136
0.429000000000000214,-6.777821532243097025
0.430000000000000215,-6.782392071004982981
0.431000000000000216,-6.785731306748300717
0.432000000000000217,-6.787858899044908689
0.433000000000000218,-6.788794457640079827
0.434000000000000219,-6.788557545091514100
0.435000000000000220,-6.787167678826929951
0.436000000000000221,-6.784644332651629028
0.437000000000000222,-6.781006937736977491
0.438000000000000222,-6.776274883119971726
0.439000000000000223,-6.770467515743453291
0.440000000000000224,-6.763604140065774928
0.441000000000000225,-6.755704017267933459
0.442000000000000226,-6.746786364085679111
0.443000000000000227,-6.736870351292887804
0.444000000000000228,-6.725975101862275096
0.445000000000000229,-6.714119688828164456
0.446000000000000230,-6.701323132875542044
0.447000000000000230,-6.687604399678877876
0.448000000000000231,-6.672982397013086597
0.449000000000000232,-6.657475971658347369
0.450000000000000233,-6.641103906119876221
0.451000000000000234,-6.623884915182463473
0.452000000000000235,-6.605837642319336567
0.453000000000000236,-6.586980655973545318
0.454000000000000237,-6.567332445729872070
0.455000000000000238,-6.546911418393898785
0.456000000000000238,-6.525735893994509595
0.457000000000000239,-6.503824101725207640
0.458000000000000240,-6.481194175838822957
0.459000000000000241,-6.457864151509467021
0.460000000000000242,-6.433851960675089465
0.461000000000000243,-6.409175427872834341
0.462000000000000244,-6.383852266079320437
0.463000000000000245,-6.357900072566531335
0.464000000000000246,-6.331336324784247793
0.465000000000000246,-6.304178376278471774
0.466000000000000247,-6.276443452655205313
0.467000000000000248,-6.248148647598215533
0.468000000000000249,-6.219310918948698585
0.469000000000000250,-6.189947084854400039
0.470000000000000251,-6.160073819995051103
0.471000000000000252,-6.129707651890413445
0.472000000000000253,-6.098864957297071676
0.473000000000000254,-6.067561958698975744
0.474000000000000254,-6.035814720896996555
0.475000000000000255,-6.003639147701645307
0.476000000000000256,-5.971050978733189574
0.477000000000000257,-5.938065786332634488
0.478000000000000258,-5.904698972586769123
0.479000000000000259,-5.870965766470118474
0.480000000000000260,-5.836881221106215101
0.481000000000000261,-5.802460211150213709
0.482000000000000262,-5.767717430294672987
0.483000000000000262,-5.732667388899912453
0.484000000000000263,-5.697324411749945305
0.485000000000000264,-5.661702635935008665
0.486000000000000265,-5.625816008861091788
0.487000000000000266,-5.589678286386751793
0.488000000000000267,-5.553303031087376773
0.489000000000000268,-5.516703610646596978
0.490000000000000269,-5.479893196374454156
0.491000000000000270,-5.442884761851788156
0.492000000000000270,-5.405691081699897538
0.493000000000000271,-5.368324730474610007
0.494000000000000272,-5.330798081683550294
0.495000000000000273,-5.293123306925226146
0.496000000000000274,-5.255312375148593063
0.497000000000000275,-5.217377052031347162
0.498000000000000276,-5.179328899475345693
0.499000000000000277,-5.141179275217204747
0.500000000000000222,-5.102939332552159257
0.501000000000000334,-5.064620020169127379
0.502000000000000224,-5.026232082094855613
0.503000000000000336,-4.987786057744822976
0.504000000000000226,-4.949292282078774363
0.505000000000000338,-4.910760885858282521
0.506000000000000227,-4.872201796004189234
0.507000000000000339,-4.833624736051172377
0.508000000000000229,-4.795039226697168644
0.509000000000000341,-4.756454586444819554
0.510000000000000231,-4.717879932332722959
0.511000000000000343,-4.679324180753424045
0.512000000000000233,-4.640796048355920966
0.513000000000000345,-4.602304053029682152
0.514000000000000234,-4.563856514967897127
0.515000000000000346,-4.525461557806801594
0.516000000000000236,-4.487127109838910499
0.517000000000000348,-4.448860905297086887
0.518000000000000238,-4.410670485707102628
0.519000000000000350,-4.372563201305728953
0.520000000000000240,-4.334546212521988906
0.521000000000000352,-4.296626491518813040
0.522000000000000242,-4.258810823792523514
0.523000000000000353,-4.221105809827560229
0.524000000000000243,-4.183517866803907026
0.525000000000000355,-4.146053230354715957
0.526000000000000245,-4.108717956371622293
0.527000000000000357,-4.071517922855222515
0.528000000000000247,-4.034458831808439783
0.529000000000000359,-3.997546211170205144
0.530000000000000249,-3.960785416787280244
0.531000000000000361,-3.924181634421737730
0.532000000000000250,-3.887739881791999697
0.533000000000000362,-3.851465010645043208
0.534000000000000252,-3.815361708857702094
0.535000000000000364,-3.779434502564838816
0.536000000000000254,-3.743687758312429281
0.537000000000000366,-3.708125685233226498
0.538000000000000256,-3.672752337243389231
0.539000000000000368,-3.637571615257701119
0.540000000000000258,-3.602587269421869909
0.541000000000000369,-3.567802901359625967
0.542000000000000259,-3.533221966433226502
0.543000000000000371,-3.498847776015227229
0.544000000000000261,-3.464683499770027542
0.545000000000000373,-3.430732167943442157
0.546000000000000263,-3.396996673658700505
0.547000000000000375,-3.363479775217135259
0.548000000000000265,-3.330184098402400927
0.549000000000000377,-3.297112138786240987
0.550000000000000266,-3.264266264034852760
0.551000000000000378,-3.231648716214063022
0.552000000000000268,-3.199261614092248074
0.553000000000000380,-3.167106955439531912
0.554000000000000270,-3.135186619322142931
0.555000000000000382,-3.103502368390530730
0.556000000000000272,-3.072055851160373940
0.557000000000000384,-3.040848604284978052
0.558000000000000274,-3.009882054818406427
0.559000000000000385,-2.979157522467911434
0.560000000000000275,-2.948676221835009326
0.561000000000000387,-2.918439264644010933
0.562000000000000277,-2.888447661957221246
0.563000000000000389,-2.858702326375902381
0.564000000000000279,-2.829204074226193466
0.565000000000000391,-2.799953627729126371
0.566000000000000281,-2.770951617154095548
0.567000000000000393,-2.742198582954924468
0.568000000000000282,-2.713694977888029491
0.569000000000000394,-2.685441169111798754
0.570000000000000284,-2.657437440266826378
0.571000000000000396,-2.629683993536212405
0.572000000000000286,-2.602180951685576282
0.573000000000000398,-2.574928360082039625
0.574000000000000288,-2.547926188691949534
0.575000000000000400,-2.521174334056712762
0.576000000000000290,-2.494672621246405431
0.577000000000000401,-2.468420805790716877
0.578000000000000291,-2.442418575586920770
0.579000000000000403,-2.416665552784489357
0.580000000000000293,-2.391161295646100804
0.581000000000000405,-2.365905300384639975
0.582000000000000295,-2.340897002976134456
0.583000000000000407,-2.316135780948169742
0.584000000000000297,-2.291620955143737426
0.585000000000000409,-2.267351791460266774
0.586000000000000298,-2.243327502563682962
0.587000000000000410,-2.219547249577357384
0.588000000000000300,-2.196010143745845244
0.589000000000000412,-2.172715248073235461
0.590000000000000302,-2.149661578936147954
0.591000000000000414,-2.126848107671249544
0.592000000000000304,-2.104273762137245818
0.593000000000000416,-2.081937428251289024
0.594000000000000306,-2.059837951499939646
0.595000000000000417,-2.037974138424475168
0.596000000000000307,-2.016344758080750754
0.597000000000000419,-1.994948543473545000
0.598000000000000309,-1.973784192965514661
0.599000000000000421,-1.952850371660724393
0.600000000000000311,-1.932145712762970646
0.601000000000000423,-1.911668818908849543
0.602000000000000313,-1.891418263475808770
0.603000000000000425,-1.871392591865132626
0.604000000000000314,-1.851590322760232166
0.605000000000000426,-1.832009949360070333
0.606000000000000316,-1.812649940588169972
0.607000000000000428,-1.793508742277130752
0.608000000000000318,-1.774584778329004298
0.609000000000000430,-1.755876451851510867
0.610000000000000320,-1.737382146270512351
0.611000000000000432,-1.719100226418691646
0.612000000000000322,-1.701029039600839399
0.613000000000000433,-1.683166916635822741
0.614000000000000323,-1.665512172875523778
0.615000000000000435,-1.648063109200922138
0.616000000000000325,-1.630818012995575828
0.617000000000000437,-1.613775159096690448
0.618000000000000327,-1.596932810724107421
0.619000000000000439,-1.580289220387287141
0.620000000000000329,-1.563842630770702069
0.621000000000000441,-1.547591275597801630
0.622000000000000330,-1.531533380473777406
0.623000000000000442,-1.515667163707464793
0.624000000000000332,-1.499990837112564313
0.625000000000000444,-1.484502606788485002
0.626000000000000334,-1.469200673881076114
0.627000000000000446,-1.454083235323469392
0.628000000000000336,-1.439148484557364105
0.629000000000000448,-1.424394612234967106
0.630000000000000338,-1.409819806901909223
0.631000000000000449,-1.395422255661364686
0.632000000000000339,-1.381200144819671793
0.633000000000000451,-1.367151660513739042
0.634000000000000341,-1.353274989320487176
0.635000000000000453,-1.339568318848627815
0.636000000000000343,-1.326029838313026676
0.637000000000000455,-1.312657739091943387
0.638000000000000345,-1.299450215267466735
0.639000000000000457,-1.286405464149285915
0.640000000000000346,-1.273521686782286277
0.641000000000000458,-1.260797088437994429
0.642000000000000348,-1.248229879090399397
0.643000000000000460,-1.235818273876192475
0.644000000000000350,-1.223560493539879390
0.645000000000000462,-1.211454764863914013
0.646000000000000352,-1.199499321084205761
0.647000000000000464,-1.187692402291171234
0.648000000000000353,-1.176032255816766625
0.649000000000000465,-1.164517136607519321
0.650000000000000355,-1.153145307584087398
0.651000000000000467,-1.141915039987377201
0.652000000000000357,-1.130824613711672866
0.653000000000000469,-1.119872317624855063
0.654000000000000359,-1.109056449876146377
0.655000000000000471,-1.098375318191448402
0.656000000000000361,-1.087827240156712838
0.657000000000000473,-1.077410543489408346
0.658000000000000362,-1.067123566298500581
0.659000000000000474,-1.056964657333046897
0.660000000000000364,-1.046932176219770527
0.661000000000000476,-1.037024493689725269
0.662000000000000366,-1.027239991794410612
0.663000000000000478,-1.017577064111492735
