# TiO2-rut-110_BSAI3
# h[nm],U(h)[kJ/mol]
0.149999999999999994,117.784695286444204498
0.150999999999999995,116.670671665040885046
0.151999999999999996,114.557894504060371332
0.152999999999999997,112.247471305523916385
0.153999999999999998,110.042953476854265205
0.154999999999999999,108.010281071673787778
0.156000000000000000,106.119173520962291946
0.157000000000000001,104.314490211361160732
0.158000000000000002,102.547868217605923746
0.159000000000000002,100.788111273175061910
0.160000000000000003,99.021236587545956809
0.161000000000000004,97.246339514235899060
0.162000000000000005,95.470531609593024314
0.163000000000000006,93.704487924072736860
0.164000000000000007,91.959167301304006514
0.165000000000000008,90.243757804884836560
0.166000000000000009,88.564662162071030593
0.167000000000000010,86.925257043616923625
0.168000000000000010,85.326161624733288136
0.169000000000000011,83.765790960053095660
0.170000000000000012,82.241022775211945373
0.171000000000000013,80.747858620496771209
0.172000000000000014,79.282005418242945893
0.173000000000000015,77.839338939532495942
0.174000000000000016,76.416236656398410787
0.175000000000000017,75.009784868344411279
0.176000000000000018,73.617875580143319780
0.177000000000000018,72.239213948886202843
0.178000000000000019,70.873258708633358083
0.179000000000000020,69.520117067810218714
0.180000000000000021,68.180413144055563635
0.181000000000000022,66.855145794510093538
0.182000000000000023,65.545548244811939753
0.183000000000000024,64.252958571572918345
0.184000000000000025,62.978707069140668295
0.185000000000000026,61.724023948568266462
0.186000000000000026,60.489968718672493253
0.187000000000000027,59.277380980193854043
0.188000000000000028,58.086851187444935363
0.189000000000000029,56.918709142893945341
0.190000000000000030,55.773027526516059993
0.191000000000000031,54.649637560087512611
0.192000000000000032,53.548153906923332102
0.193000000000000033,52.468006055928434250
0.194000000000000034,51.408473688666916246
0.195000000000000034,50.368723840646886458
0.196000000000000035,49.347848011945934843
0.197000000000000036,48.344897733440973298
0.198000000000000037,47.358917435237714244
0.199000000000000038,46.388973780728065321
0.200000000000000039,45.434180914772525739
0.201000000000000040,44.493721323117341626
0.202000000000000041,43.566862210423543900
0.203000000000000042,42.652967476432550598
0.204000000000000042,41.751505505578435873
0.205000000000000043,40.862053087588222411
0.206000000000000044,39.984295858742996188
0.207000000000000045,39.118025699303828446
0.208000000000000046,38.263135546031534773
0.209000000000000047,37.419612083565098715
0.210000000000000048,36.587526768282828016
0.211000000000000049,35.767025616474356298
0.212000000000000050,34.958318158178400381
0.213000000000000050,34.161665921513851174
0.214000000000000051,33.377370771989582465
0.215000000000000052,32.605763389015862685
0.216000000000000053,31.847192119206034988
0.217000000000000054,31.102012404288576164
0.218000000000000055,30.370576941510950775
0.219000000000000056,29.653226697016872748
0.220000000000000057,28.950282858318740153
0.221000000000000058,28.262039780986718540
0.222000000000000058,27.588758957196670707
0.223000000000000059,26.930664009869360598
0.224000000000000060,26.287936695732287973
0.225000000000000061,25.660713883612515929
0.226000000000000062,25.049085460434532990
0.227000000000000063,24.453093106520320532
0.228000000000000064,23.872729873614424889
0.229000000000000065,23.307940493311544827
0.230000000000000066,22.758622339975495663
0.231000000000000066,22.224626970527758374
0.232000000000000067,21.705762163391032260
0.233000000000000068,21.201794380141244289
0.234000000000000069,20.712451575817450333
0.235000000000000070,20.237426287142113779
0.236000000000000071,19.776378931918209503
0.237000000000000072,19.328941257412907362
0.238000000000000073,18.894719880454140082
0.239000000000000073,18.473299867116878659
0.240000000000000074,18.064248305136942463
0.241000000000000075,17.667117827464952740
0.242000000000000076,17.281450050570004606
0.243000000000000077,16.906778896154744274
0.244000000000000078,16.542633769792356446
0.245000000000000079,16.188542574597406087
0.246000000000000080,15.844034542363900187
0.247000000000000081,15.508642868620132305
0.248000000000000081,15.181907141747856826
0.249000000000000082,14.863375559683740690
0.250000000000000111,14.552606930763209547
0.251000000000000112,14.249172457983842577
0.252000000000000113,13.952657308365067124
0.253000000000000114,13.662661971175969811
0.254000000000000115,13.378803410604579227
0.255000000000000115,13.100716019969183890
0.256000000000000116,12.828052385840276628
0.257000000000000117,12.560483871469925177
0.258000000000000118,12.297701029733175915
0.259000000000000119,12.039413856391359303
0.260000000000000120,11.785351894909714687
0.261000000000000121,11.535264204320668568
0.262000000000000122,11.288919201735835074
0.263000000000000123,11.046104391093690467
0.264000000000000123,10.806625989600393112
0.265000000000000124,10.570308463095539508
0.266000000000000125,10.336993981266106246
0.267000000000000126,10.106541803254616596
0.268000000000000127,9.878827603773460808
0.269000000000000128,9.653742749358601216
0.270000000000000129,9.431193533881890190
0.271000000000000130,9.211100381901770717
0.272000000000000131,8.993397027875857930
0.273000000000000131,8.778029678692528037
0.274000000000000132,8.564956166409306348
0.275000000000000133,8.354145097518991037
0.276000000000000134,8.145575004504852501
0.277000000000000135,7.939233504898993488
0.278000000000000136,7.735116472525007225
0.279000000000000137,7.533227225092026913
0.280000000000000138,7.333575731813764875
0.281000000000000139,7.136177844254507185
0.282000000000000139,6.941054553157252727
0.283000000000000140,6.748231273586361212
0.284000000000000141,6.557737160320755265
0.285000000000000142,6.369604455062667370
0.286000000000000143,6.183867866682317249
0.287000000000000144,6.000563985400161116
0.288000000000000145,5.819730731514706434
0.289000000000000146,5.641406839015951746
0.290000000000000147,5.465631374179920954
0.291000000000000147,5.292443289019530539
0.292000000000000148,5.121881009268460794
0.293000000000000149,4.953982056398537281
0.294000000000000150,4.788782703014705433
0.295000000000000151,4.626317660835201018
0.296000000000000152,4.466619800346036229
0.297000000000000153,4.309719901117853524
0.298000000000000154,4.155646431687849862
0.299000000000000155,4.004425357839552113
0.300000000000000155,3.856079978056436541
0.301000000000000156,3.710630784882317013
0.302000000000000157,3.568095350888850881
0.303000000000000158,3.428488237929885774
0.304000000000000159,3.291820928350451148
0.305000000000000160,3.158101776815696038
0.306000000000000161,3.027335981430210765
0.307000000000000162,2.899525572830270903
0.308000000000000163,2.774669419950269944
0.309000000000000163,2.652763251188360094
0.310000000000000164,2.533799689725234394
0.311000000000000165,2.417768301782869944
0.312000000000000166,2.304655656646453554
0.313000000000000167,2.194445397312166257
0.314000000000000168,2.087118320665296345
0.315000000000000169,1.982652466136930469
0.316000000000000170,1.881023211832673070
0.317000000000000171,1.782203377173285919
0.318000000000000171,1.686163331134257204
0.319000000000000172,1.592871105218574446
0.320000000000000173,1.502292510344814813
0.321000000000000174,1.414391256879913517
0.322000000000000175,1.329129077092937594
0.323000000000000176,1.246465849352628608
0.324000000000000177,1.166359723436925622
0.325000000000000178,1.088767246367418950
0.326000000000000179,1.013643488224857503
0.327000000000000179,0.940942167444410726
0.328000000000000180,0.870615775130048730
0.329000000000000181,0.802615697966947983
0.330000000000000182,0.736892339349026204
0.331000000000000183,0.673395238374910221
0.332000000000000184,0.612073186400894587
0.333000000000000185,0.552874340872646863
0.334000000000000186,0.495746336189193393
0.335000000000000187,0.440636391382953962
0.336000000000000187,0.387491414428020597
0.337000000000000188,0.336258103016163601
0.338000000000000189,0.286883041665070837
0.339000000000000190,0.239312795047486176
0.340000000000000191,0.193493997452329813
0.341000000000000192,0.149373438309523154
0.342000000000000193,0.106898143730029233
0.343000000000000194,0.066015454030401072
0.344000000000000195,0.026673097228291011
0.345000000000000195,-0.011180741489753298
0.346000000000000196,-0.047597354312109097
0.347000000000000197,-0.082627449328801422
0.348000000000000198,-0.116321093000440176
0.349000000000000199,-0.148727656517879975
0.350000000000000200,-0.179895765991537310
0.351000000000000201,-0.209873256400463948
0.352000000000000202,-0.238707129223552250
0.353000000000000203,-0.266443513668428389
0.354000000000000203,-0.293127631407501144
0.355000000000000204,-0.318803764725340666
0.356000000000000205,-0.343515227977239490
0.357000000000000206,-0.367304342254931027
0.358000000000000207,-0.390212413152201454
0.359000000000000208,-0.412279711520837477
0.360000000000000209,-0.433545457105280529
0.361000000000000210,-0.454047804942881161
0.362000000000000210,-0.473823834415909861
0.363000000000000211,-0.492909540840775484
0.364000000000000212,-0.511339829480107810
0.365000000000000213,-0.529148511863418713
0.366000000000000214,-0.546368304302966123
0.367000000000000215,-0.563030828492246060
0.368000000000000216,-0.579166614076046971
0.369000000000000217,-0.594805103082260755
0.370000000000000218,-0.609974656107717395
0.371000000000000218,-0.624702560152027409
0.372000000000000219,-0.639015037995817159
0.373000000000000220,-0.652937259021933003
0.374000000000000221,-0.666493351380718080
0.375000000000000222,-0.679706415402961839
0.376000000000000223,-0.692598538167087163
0.377000000000000224,-0.705190809129568219
0.378000000000000225,-0.717503336730709096
0.379000000000000226,-0.729555265890632021
0.380000000000000226,-0.741364796313501051
0.381000000000000227,-0.752949201520647593
0.382000000000000228,-0.764324848536642620
0.383000000000000229,-0.775507218155067735
0.384000000000000230,-0.786510925713844955
0.385000000000000231,-0.797349742313053889
0.386000000000000232,-0.808036616410925723
0.387000000000000233,-0.818583695736862849
0.388000000000000234,-0.829002349463021759
0.389000000000000234,-0.839303190579063219
0.390000000000000235,-0.849496098417271694
0.391000000000000236,-0.859590241278203826
0.392000000000000237,-0.869594099109561092
0.393000000000000238,-0.879515486193763740
0.394000000000000239,-0.889361573802153083
0.395000000000000240,-0.899138912776396126
0.396000000000000241,-0.908853456000007442
0.397000000000000242,-0.918510580725315551
0.398000000000000242,-0.928115110723568781
0.399000000000000243,-0.937671338227970330
0.400000000000000244,-0.947183045641731503
0.401000000000000245,-0.956653526985296154
0.402000000000000246,-0.966085609058747408
0.403000000000000247,-0.975481672297600966
0.404000000000000248,-0.984843671301843693
0.405000000000000249,-0.994173155019976162
0.406000000000000250,-1.003471286571462118
0.407000000000000250,-1.012738862692741382
0.408000000000000251,-1.021976332793396391
0.409000000000000252,-1.031183817610706210
0.410000000000000253,-1.040361127452139600
0.411000000000000254,-1.049507780016797343
0.412000000000000255,-1.058623017788019371
0.413000000000000256,-1.067705824990762498
0.414000000000000257,-1.076754944108277545
0.415000000000000258,-1.085768891954047799
0.416000000000000258,-1.094745975295662088
0.417000000000000259,-1.103684306028573037
0.418000000000000260,-1.112581815898426196
0.419000000000000261,-1.121436270771648758
0.420000000000000262,-1.130245284454716614
0.421000000000000263,-1.139006332063413840
0.422000000000000264,-1.147716762943928437
0.423000000000000265,-1.156373813148527052
0.424000000000000266,-1.164974617469056728
0.425000000000000266,-1.173516221032044227
0.426000000000000267,-1.181995590459876455
0.427000000000000268,-1.190409624602901006
0.428000000000000269,-1.198755164847782551
0.429000000000000270,-1.207029005007928424
0.430000000000000271,-1.215227900802073879
0.431000000000000272,-1.223348578927590635
0.432000000000000273,-1.231387745735283756
0.433000000000000274,-1.239342095512812936
0.434000000000000274,-1.247208318384081638
0.435000000000000275,-1.254983107832170264
0.436000000000000276,-1.262663167853622648
0.437000000000000277,-1.270245219751988897
0.438000000000000278,-1.277726008578768280
0.439000000000000279,-1.285102309229971151
0.440000000000000280,-1.292370932206600820
0.441000000000000281,-1.299528729047468190
0.442000000000000282,-1.306572597442870576
0.443000000000000282,-1.313499486037524866
0.444000000000000283,-1.320306398931427427
0.445000000000000284,-1.326990399887097993
0.446000000000000285,-1.333548616251752028
0.447000000000000286,-1.339978242603021119
0.448000000000000287,-1.346276544126553176
0.449000000000000288,-1.352440859734086009
0.450000000000000289,-1.358468604930272328
0.451000000000000290,-1.364357274436617917
0.452000000000000290,-1.370104444580797498
0.453000000000000291,-1.375707775459414473
0.454000000000000292,-1.381165012882366039
0.455000000000000293,-1.386473990106677379
0.456000000000000294,-1.391632629367697493
0.457000000000000295,-1.396638943215373407
0.458000000000000296,-1.401491035663183116
0.459000000000000297,-1.406187103157230389
0.460000000000000298,-1.410725435372830683
0.461000000000000298,-1.415104415845793273
0.462000000000000299,-1.419322522445476853
0.463000000000000300,-1.423378327696516843
0.464000000000000301,-1.427270498956040967
0.465000000000000302,-1.430997798452964265
0.466000000000000303,-1.434559083195863005
0.467000000000000304,-1.437953304755760886
0.468000000000000305,-1.441179508929976816
0.469000000000000306,-1.444236835293073895
0.470000000000000306,-1.447124516640808434
0.471000000000000307,-1.449841878332699840
0.472000000000000308,-1.452388337538896623
0.473000000000000309,-1.454763402396661798
0.474000000000000310,-1.456966671081753706
0.475000000000000311,-1.458997830799812379
0.476000000000000312,-1.460856656702692158
0.477000000000000313,-1.462543010734540960
0.478000000000000314,-1.464056840412247817
0.479000000000000314,-1.465398177544822600
0.480000000000000315,-1.466567136895982060
0.481000000000000316,-1.467563914794232982
0.482000000000000317,-1.468388787694444586
0.483000000000000318,-1.469042110694909420
0.484000000000000319,-1.469524316013626208
0.485000000000000320,-1.469835911427486597
0.486000000000000321,-1.469977478677893634
0.487000000000000322,-1.469949671846182193
0.488000000000000322,-1.469753215702081617
0.489000000000000323,-1.469388904028420040
0.490000000000000324,-1.468857597925017577
0.491000000000000325,-1.468160224094686939
0.492000000000000326,-1.467297773114079051
0.493000000000000327,-1.466271297692089082
0.494000000000000328,-1.465081910918279773
0.495000000000000329,-1.463730784503843640
0.496000000000000330,-1.462219147017308929
0.497000000000000330,-1.460548282117353880
0.498000000000000331,-1.458719526784665099
0.499000000000000332,-1.456734269555020056
0.500000000000000333,-1.454593948755401378
0.501000000000000334,-1.452300050744976589
0.502000000000000335,-1.449854108162717869
0.503000000000000336,-1.447257698183245678
0.504000000000000337,-1.444512440782483420
0.505000000000000338,-1.441619997014559340
0.506000000000000338,-1.438582067301366285
0.507000000000000339,-1.435400389736071869
0.508000000000000340,-1.432076738401778071
0.509000000000000341,-1.428612921706569505
0.510000000000000342,-1.425010780735903149
0.511000000000000343,-1.421272187623484395
0.512000000000000344,-1.417399043941454106
0.513000000000000345,-1.413393279110844780
0.514000000000000346,-1.409256848833116305
0.515000000000000346,-1.404991733543464738
0.516000000000000347,-1.400599936886655295
0.517000000000000348,-1.396083484216039450
0.518000000000000349,-1.391444421116253771
0.519000000000000350,-1.386684811950236629
0.520000000000000351,-1.381806738430958248
0.521000000000000352,-1.376812298218389241
0.522000000000000353,-1.371703603541992056
0.523000000000000353,-1.366482779849171214
0.524000000000000354,-1.361151964479943910
0.525000000000000355,-1.355713305368085209
0.526000000000000356,-1.350168959768973220
0.527000000000000357,-1.344521093014357183
0.528000000000000358,-1.338771877294124835
0.529000000000000359,-1.332923490465261818
0.530000000000000360,-1.326978114888008431
0.531000000000000361,-1.320937936289335646
0.532000000000000361,-1.314805142653709735
0.533000000000000362,-1.308581923141160619
0.534000000000000363,-1.302270467032611290
0.535000000000000364,-1.295872962702425246
0.536000000000000365,-1.289391596618054692
0.537000000000000366,-1.282828552366731767
0.538000000000000367,-1.276186009708996094
0.539000000000000368,-1.269466143659030211
0.540000000000000369,-1.262671123591484479
0.541000000000000369,-1.255803112374756836
0.542000000000000370,-1.248864265530384099
0.543000000000000371,-1.241856730418436250
0.544000000000000372,-1.234782645448602834
0.545000000000000373,-1.227644139316777405
0.546000000000000374,-1.220443330266826276
0.547000000000000375,-1.213182325377292425
0.548000000000000376,-1.205863219872769010
0.549000000000000377,-1.198488096459597418
0.550000000000000377,-1.191059024685621193
0.551000000000000378,-1.183578060323649650
0.552000000000000379,-1.176047244778350542
0.553000000000000380,-1.168468604516182063
0.554000000000000381,-1.160844150518059115
0.555000000000000382,-1.153175877754437639
0.556000000000000383,-1.145465764682364052
0.557000000000000384,-1.137715772764285926
0.558000000000000385,-1.129927846008093706
0.559000000000000385,-1.122103910528177817
0.560000000000000386,-1.114245874127037350
0.561000000000000387,-1.106355625897111672
0.562000000000000388,-1.098435035842435292
0.563000000000000389,-1.090485954519790912
0.564000000000000390,-1.082510212698914343
0.565000000000000391,-1.074509621041428442
0.566000000000000392,-1.066485969798097067
0.567000000000000393,-1.058441028524061744
0.568000000000000393,-1.050376545811611662
0.569000000000000394,-1.042294249040172982
0.570000000000000395,-1.034195844143135368
0.571000000000000396,-1.026083015391076270
0.572000000000000397,-1.017957425191109433
0.573000000000000398,-1.009820713901885547
0.574000000000000399,-1.001674499663951501
0.575000000000000400,-0.993520378245042024
0.576000000000000401,-0.985359922899964547
0.577000000000000401,-0.977194684244743983
0.578000000000000402,-0.969026190144587019
0.579000000000000403,-0.960855945615373797
0.580000000000000404,-0.952685432738324733
0.581000000000000405,-0.944516110587430013
0.582000000000000406,-0.936349415169369870
0.583000000000000407,-0.928186759375516979
0.584000000000000408,-0.920029532945731199
0.585000000000000409,-0.911879102443582168
0.586000000000000409,-0.903736811242657034
0.587000000000000410,-0.895603979523685090
0.588000000000000411,-0.887481904282055312
0.589000000000000412,-0.879371859345527751
0.590000000000000413,-0.871275095401711774
0.591000000000000414,-0.863192840035070907
0.592000000000000415,-0.855126297773147748
0.593000000000000416,-0.847076650141650012
0.594000000000000417,-0.839045055728156242
0.595000000000000417,-0.831032650254175609
0.596000000000000418,-0.823040546655142480
0.597000000000000419,-0.815069835168256818
0.598000000000000420,-0.807121583427707456
0.599000000000000421,-0.799196836567146240
0.600000000000000422,-0.791296617329057872
0.601000000000000423,-0.783421926180801087
0.602000000000000424,-0.775573741437061481
0.603000000000000425,-0.767753019388465185
0.604000000000000425,-0.759960694436072615
0.605000000000000426,-0.752197679231555782
0.606000000000000427,-0.744464864822820815
0.607000000000000428,-0.736763120804748040
0.608000000000000429,-0.729093295475006453
0.609000000000000430,-0.721456215994487837
0.610000000000000431,-0.713852688552367276
0.611000000000000432,-0.706283498535398957
0.612000000000000433,-0.698749410701332785
0.613000000000000433,-0.691251169356237538
0.614000000000000434,-0.683789498535502860
