# TiO2-rut-110_BSAI8
# h[nm],U(h)[kJ/mol]
0.149999999999999994,116.369025343733255795
0.150999999999999995,114.697118679657975804
0.151999999999999996,112.807383979959652720
0.152999999999999997,110.901310439341315828
0.153999999999999998,109.051600873485170951
0.154999999999999999,107.269808764414349866
0.156000000000000000,105.543285140941023315
0.157000000000000001,103.853873921794686908
0.158000000000000002,102.186179885587449689
0.159000000000000002,100.530215721499374126
0.160000000000000003,98.881290548644642513
0.161000000000000004,97.238772951471631245
0.162000000000000005,95.604602386748837262
0.163000000000000006,93.981968444212299119
0.164000000000000007,92.374317176339204138
0.165000000000000008,90.784704246823991980
0.166000000000000009,89.215448102528711161
0.167000000000000010,87.668012003241784669
0.168000000000000010,86.143042225274840007
0.169000000000000011,84.640499288735327355
0.170000000000000012,83.159832720174492238
0.171000000000000013,81.700163826726424077
0.172000000000000014,80.260453317723204236
0.173000000000000015,78.839640603828030407
0.174000000000000016,77.436749119694553656
0.175000000000000017,76.050957278628146696
0.176000000000000018,74.681638048003406993
0.177000000000000018,73.328372039720647990
0.178000000000000019,71.990939824362200739
0.179000000000000020,70.669299232184172865
0.180000000000000021,69.363552967907736502
0.181000000000000022,68.073911147631051222
0.182000000000000023,66.800652518593878426
0.183000000000000024,65.544087253519677461
0.184000000000000025,64.304523391457706794
0.185000000000000026,63.082238268649781787
0.186000000000000026,61.877455667105905945
0.187000000000000027,60.690328911549102031
0.188000000000000028,59.520929763413548130
0.189000000000000029,58.369242683662299953
0.190000000000000030,57.235163850909387406
0.191000000000000031,56.118504212865886416
0.192000000000000032,55.018995802656263550
0.193000000000000033,53.936300553122364931
0.194000000000000034,52.870020879340245301
0.195000000000000034,51.819711361383681947
0.196000000000000035,50.784890936816253770
0.197000000000000036,49.765055098132087608
0.198000000000000037,48.759687678623109264
0.199000000000000038,47.768271896576813162
0.200000000000000039,46.790300409163222639
0.201000000000000040,45.825284201734142187
0.202000000000000041,44.872760204249416915
0.203000000000000042,43.932297583541455310
0.204000000000000042,43.003502708017833811
0.205000000000000043,42.086022820449905169
0.206000000000000044,41.179548485238889555
0.207000000000000045,40.283814899699983414
0.208000000000000046,39.398602175280842630
0.209000000000000047,38.523734705093609421
0.210000000000000048,37.659079739560780808
0.211000000000000049,36.804545293193612565
0.212000000000000050,35.960077503324129111
0.213000000000000050,35.125657556727560404
0.214000000000000051,34.301298293143091200
0.215000000000000052,33.487040586305717227
0.216000000000000053,32.682949593730910465
0.217000000000000054,31.889110956566678823
0.218000000000000055,31.105627020692402596
0.219000000000000056,30.332613140184264466
0.220000000000000057,29.570194114503220106
0.221000000000000058,28.818500801472048067
0.222000000000000058,28.077666939409983371
0.223000000000000059,27.347826203782023669
0.224000000000000060,26.629109516443026706
0.225000000000000061,25.921642619043456790
0.226000000000000062,25.225543916416391710
0.227000000000000063,24.540922590770492207
0.228000000000000064,23.867876983244226352
0.229000000000000065,23.206493235791118224
0.230000000000000066,22.556844183423422123
0.231000000000000066,21.918988484486590096
0.232000000000000067,21.292969974820358914
0.233000000000000068,20.678817230326398402
0.234000000000000069,20.076543321555707422
0.235000000000000070,19.486145743396939167
0.236000000000000071,18.907606502740556209
0.237000000000000072,18.340892347063821433
0.238000000000000073,17.785955117185476837
0.239000000000000073,17.242732207935585365
0.240000000000000074,16.711147121135304872
0.241000000000000075,16.191110096054654122
0.242000000000000076,15.682518803379272399
0.243000000000000077,15.185259089645381181
0.244000000000000078,14.699205760072493021
0.245000000000000079,14.224223388714829497
0.246000000000000080,13.760167145849797166
0.247000000000000081,13.306883633507823106
0.248000000000000081,12.864211721014038758
0.249000000000000082,12.431983373346508159
0.250000000000000111,12.010024466011000044
0.251000000000000112,11.598155580983583235
0.252000000000000113,11.196192779073268042
0.253000000000000114,10.803948344808052440
0.254000000000000115,10.421231500642555545
0.255000000000000115,10.047849087927920309
0.256000000000000116,9.683606212671204361
0.257000000000000117,9.328306854644729640
0.258000000000000118,8.981754438887493919
0.259000000000000119,8.643752369070476504
0.260000000000000120,8.314104522579892631
0.261000000000000121,7.992615707508756273
0.262000000000000122,7.679092082039237432
0.263000000000000123,7.373341536951213193
0.264000000000000123,7.075174042206036518
0.265000000000000124,6.784401958734664895
0.266000000000000125,6.500840316706408828
0.267000000000000126,6.224307061673082231
0.268000000000000127,5.954623270074650421
0.269000000000000128,5.691613335660659523
0.270000000000000129,5.435105128427866639
0.271000000000000130,5.184930127701658620
0.272000000000000131,4.940923530999546287
0.273000000000000131,4.702924340310643103
0.274000000000000132,4.470775427408034020
0.275000000000000133,4.244323579782949274
0.276000000000000134,4.023419528752230079
0.277000000000000135,3.807917961245916416
0.278000000000000136,3.597677516729866909
0.279000000000000137,3.392560770661956049
0.280000000000000138,3.192434205820092075
0.281000000000000139,2.997168172776306871
0.282000000000000139,2.806636840726108861
0.283000000000000140,2.620718139815065406
0.284000000000000141,2.439293696037530434
0.285000000000000142,2.262248759714940327
0.286000000000000143,2.089472128494428205
0.287000000000000144,1.920856065743085095
0.288000000000000145,1.756296215148486439
0.289000000000000146,1.595691512274387103
0.290000000000000147,1.438944093759300769
0.291000000000000147,1.285959204788165167
0.292000000000000148,1.136645105410948542
0.293000000000000149,0.990912976229285647
0.294000000000000150,0.848676823921230450
0.295000000000000151,0.709853387026402105
0.296000000000000152,0.574362042368465775
0.297000000000000153,0.442124712449309676
0.298000000000000154,0.313065774109332895
0.299000000000000155,0.187111968710916177
0.300000000000000155,0.064192314067498396
0.301000000000000156,-0.055761981691512384
0.302000000000000157,-0.172817604159752058
0.303000000000000158,-0.287039214463722936
0.304000000000000159,-0.398489528735833876
0.305000000000000160,-0.507229395165800900
0.306000000000000161,-0.613317868566766289
0.307000000000000162,-0.716812282411454671
0.308000000000000163,-0.817768318310810871
0.309000000000000163,-0.916240072923127258
0.310000000000000164,-1.012280122295459606
0.311000000000000165,-1.105939583651350144
0.312000000000000166,-1.197268174649905870
0.313000000000000167,-1.286314270150619610
0.314000000000000168,-1.373124956526723617
0.315000000000000169,-1.457746083576980878
0.316000000000000170,-1.540222314092001499
0.317000000000000171,-1.620597171136096692
0.318000000000000171,-1.698913083110057398
0.319000000000000172,-1.775211426663731995
0.320000000000000173,-1.849532567529708516
0.321000000000000174,-1.921915899351619883
0.322000000000000175,-1.992399880581940064
0.323000000000000176,-2.061022069524902633
0.324000000000000177,-2.127819157600694844
0.325000000000000178,-2.192827000906755419
0.326000000000000179,-2.256080650151901068
0.327000000000000179,-2.317614379037851613
0.328000000000000180,-2.377461711161821256
0.329000000000000181,-2.435655445512546091
0.330000000000000182,-2.492227680630284770
0.331000000000000183,-2.547209837499941898
0.332000000000000184,-2.600632681244210431
0.333000000000000185,-2.652526341681770816
0.334000000000000186,-2.702920332813422366
0.335000000000000187,-2.751843571296738844
0.336000000000000187,-2.799324393967673963
0.337000000000000188,-2.845390574464984113
0.338000000000000189,-2.890069339011329674
0.339000000000000190,-2.933387381402324579
0.340000000000000191,-2.975370877252415447
0.341000000000000192,-3.016045497544419529
0.342000000000000193,-3.055436421526925184
0.343000000000000194,-3.093568349001817097
0.344000000000000195,-3.130465512041527454
0.345000000000000195,-3.166151686174062174
0.346000000000000196,-3.200650201071089551
0.347000000000000197,-3.233983950772802984
0.348000000000000198,-3.266175403481061945
0.349000000000000199,-3.297246610950426149
0.350000000000000200,-3.327219217504914006
0.351000000000000201,-3.356114468706476117
0.352000000000000202,-3.383953219699468384
0.353000000000000203,-3.410755943253832356
0.354000000000000203,-3.436542737528148983
0.355000000000000204,-3.461333333572087501
0.356000000000000205,-3.485147102586556578
0.357000000000000206,-3.508003062958536589
0.358000000000000207,-3.529919887086003349
0.359000000000000208,-3.550915908007551192
0.360000000000000209,-3.571009125849971433
0.361000000000000210,-3.590217214105941856
0.362000000000000210,-3.608557525753151474
0.363000000000000211,-3.626047099225061743
0.364000000000000212,-3.642702664242802424
0.365000000000000213,-3.658540647516690392
0.366000000000000214,-3.673577178325260206
0.367000000000000215,-3.687828093978822608
0.368000000000000216,-3.701308945174115017
0.369000000000000217,-3.714035001245702627
0.370000000000000218,-3.726021255319511560
0.371000000000000218,-3.737282429373093517
0.372000000000000219,-3.747832979206950021
0.373000000000000220,-3.757687099330652813
0.374000000000000221,-3.766858727767149695
0.375000000000000222,-3.775361550778202346
0.376000000000000223,-3.783209007513709476
0.377000000000000224,-3.790414294587203692
0.378000000000000225,-3.796990370579576446
0.379000000000000226,-3.802949960472838065
0.380000000000000226,-3.808305560015601721
0.381000000000000227,-3.813069440021477075
0.382000000000000228,-3.817253650601743153
0.383000000000000229,-3.820870025333260145
0.384000000000000230,-3.823930185362450551
0.385000000000000231,-3.826445543446261865
0.386000000000000232,-3.828427307930591716
0.387000000000000233,-3.829886486666892687
0.388000000000000234,-3.830833890867286762
0.389000000000000234,-3.831280138898753851
0.390000000000000235,-3.831235660016596878
0.391000000000000236,-3.830710698037641748
0.392000000000000237,-3.829715314953297423
0.393000000000000238,-3.828259394482874889
0.394000000000000239,-3.826352645567239641
0.395000000000000240,-3.824004605803143164
0.396000000000000241,-3.821224644818365768
0.397000000000000242,-3.818021967587871934
0.398000000000000242,-3.814405617691259742
0.399000000000000243,-3.810384480511646021
0.400000000000000244,-3.805967286376238601
0.401000000000000245,-3.801162613638909615
0.402000000000000246,-3.795978891704918201
0.403000000000000247,-3.790424403998152947
0.404000000000000248,-3.784507290871184981
0.405000000000000249,-3.778235552458453661
0.406000000000000250,-3.771617051472917037
0.407000000000000250,-3.764659515946607193
0.408000000000000251,-3.757370541915434181
0.409000000000000252,-3.749757596048726160
0.410000000000000253,-3.741828018223924968
0.411000000000000254,-3.733589024046956695
0.412000000000000255,-3.725047707318748902
0.413000000000000256,-3.716211042448516189
0.414000000000000257,-3.707085886814242226
0.415000000000000258,-3.697678983071111425
0.416000000000000258,-3.687996961408355645
0.417000000000000259,-3.678046341755246029
0.418000000000000260,-3.667833535936840583
0.419000000000000261,-3.657364849780181171
0.420000000000000262,-3.646646485171616714
0.421000000000000263,-3.635684542066022651
0.422000000000000264,-3.624485020448545036
0.423000000000000265,-3.613053822249695735
0.424000000000000266,-3.601396753214582525
0.425000000000000266,-3.589519524726919819
0.426000000000000267,-3.577427755588757918
0.427000000000000268,-3.565126973756612472
0.428000000000000269,-3.552622618034846802
0.429000000000000270,-3.539920039727134426
0.430000000000000271,-3.527024504246751402
0.431000000000000272,-3.513941192686613757
0.432000000000000273,-3.500675203349807418
0.433000000000000274,-3.487231553241493920
0.434000000000000274,-3.473615179522988594
0.435000000000000275,-3.459830940928869669
0.436000000000000276,-3.445883619147952714
0.437000000000000277,-3.431777920168920470
0.438000000000000278,-3.417518475591486471
0.439000000000000279,-3.403109843903909137
0.440000000000000280,-3.388556511727645049
0.441000000000000281,-3.373862895029973608
0.442000000000000282,-3.359033340305467075
0.443000000000000282,-3.344072125726969436
0.444000000000000283,-3.328983462267041116
0.445000000000000284,-3.313771494790545002
0.446000000000000285,-3.298440303119168249
0.447000000000000286,-3.282993903068755603
0.448000000000000287,-3.267436247460032916
0.449000000000000288,-3.251771227103657402
0.450000000000000289,-3.236002671760203953
0.451000000000000290,-3.220134351075864654
0.452000000000000290,-3.204169975494621347
0.453000000000000291,-3.188113197147488087
0.454000000000000292,-3.171967610719642838
0.455000000000000293,-3.155736754296026625
0.456000000000000294,-3.139424110186137984
0.457000000000000295,-3.123033105728669323
0.458000000000000296,-3.106567114076585590
0.459000000000000297,-3.090029454963344246
0.460000000000000298,-3.073423395450792128
0.461000000000000298,-3.056752150659418632
0.462000000000000299,-3.040018884481484829
0.463000000000000300,-3.023226710277639562
0.464000000000000301,-3.006378691557574090
0.465000000000000302,-2.989477842645273498
0.466000000000000303,-2.972527129329352480
0.467000000000000304,-2.955529469499054596
0.468000000000000305,-2.938487733766376842
0.469000000000000306,-2.921404746074801384
0.470000000000000306,-2.904283284295196221
0.471000000000000307,-2.887126080809195638
0.472000000000000308,-2.869935823080672854
0.473000000000000309,-2.852715154215631266
0.474000000000000310,-2.835466673510986801
0.475000000000000311,-2.818192936992615749
0.476000000000000312,-2.800896457943132578
0.477000000000000313,-2.783579707419709059
0.478000000000000314,-2.766245114762324153
0.479000000000000314,-2.748895068092868321
0.480000000000000315,-2.731531914805334083
0.481000000000000316,-2.714157962047564876
0.482000000000000317,-2.696775477194757187
0.483000000000000318,-2.679386688315124054
0.484000000000000319,-2.661993784627969095
0.485000000000000320,-2.644598916954490786
0.486000000000000321,-2.627204198161583459
0.487000000000000322,-2.609811703598909016
0.488000000000000322,-2.592423471529459622
0.489000000000000323,-2.575041503553959110
0.490000000000000324,-2.557667765029234097
0.491000000000000325,-2.540304185480851462
0.492000000000000326,-2.522952659010192722
0.493000000000000327,-2.505615044696244631
0.494000000000000328,-2.488293166992222361
0.495000000000000329,-2.470988816117323683
0.496000000000000330,-2.453703748443658572
0.497000000000000330,-2.436439686878705491
0.498000000000000331,-2.419198321243270833
0.499000000000000332,-2.401981308645297020
0.500000000000000333,-2.384790273849553444
0.501000000000000334,-2.367626809643364361
0.502000000000000335,-2.350492477198582009
0.503000000000000336,-2.333388806429876450
0.504000000000000337,-2.316317296349487354
0.505000000000000338,-2.299279415418552297
0.506000000000000338,-2.282276601895145252
0.507000000000000339,-2.265310264179101640
0.508000000000000340,-2.248381781153736547
0.509000000000000341,-2.231492502524609733
0.510000000000000342,-2.214643749155325914
0.511000000000000343,-2.197836813400557254
0.512000000000000344,-2.181072959436287650
0.513000000000000345,-2.164353423587404457
0.514000000000000346,-2.147679414652726493
0.515000000000000346,-2.131052114227453220
0.516000000000000347,-2.114472677023169656
0.517000000000000348,-2.097942231185485618
0.518000000000000349,-2.081461878609249361
0.519000000000000350,-2.065032695251541206
0.520000000000000351,-2.048655731442345473
0.521000000000000352,-2.032332012193086346
0.522000000000000353,-2.016062537502944618
0.523000000000000353,-1.999848282663061472
0.524000000000000354,-1.983690198558679896
0.525000000000000355,-1.967589211969191565
0.526000000000000356,-1.951546225866162221
0.527000000000000357,-1.935562119709385076
0.528000000000000358,-1.919637749740906285
0.529000000000000359,-1.903773949277155264
0.530000000000000360,-1.887971528999087711
0.531000000000000361,-1.872231277240452574
0.532000000000000361,-1.856553960274138548
0.533000000000000362,-1.840940322596649192
0.534000000000000363,-1.825391087210701091
0.535000000000000364,-1.809906955905962622
0.536000000000000365,-1.794488609537942647
0.537000000000000366,-1.779136708305058434
0.538000000000000367,-1.763851892023811541
0.539000000000000368,-1.748634780402224420
0.540000000000000369,-1.733485973311359229
0.541000000000000369,-1.718406051055102468
0.542000000000000370,-1.703395574638063126
0.543000000000000371,-1.688455086031695362
0.544000000000000372,-1.673585108438597313
0.545000000000000373,-1.658786146554997343
0.546000000000000374,-1.644058686831413540
0.547000000000000375,-1.629403197731505770
0.548000000000000376,-1.614820129989114506
0.549000000000000377,-1.600309916863477566
0.550000000000000377,-1.585872974392611656
0.551000000000000378,-1.571509701644873358
0.552000000000000379,-1.557220480968702914
0.553000000000000380,-1.543005678240520373
0.554000000000000381,-1.528865643110763672
0.555000000000000382,-1.514800709248147914
0.556000000000000383,-1.500811194581987751
0.557000000000000384,-1.486897401542755626
0.558000000000000385,-1.473059617300709556
0.559000000000000385,-1.459298114002707036
0.560000000000000386,-1.445613149007130005
0.561000000000000387,-1.432004965116947082
0.562000000000000388,-1.418473790810878876
0.563000000000000389,-1.405019840472714110
0.564000000000000390,-1.391643314618705940
0.565000000000000391,-1.378344400123094449
0.566000000000000392,-1.365123270441719106
0.567000000000000393,-1.351980085833754952
0.568000000000000393,-1.338914993581511004
0.569000000000000394,-1.325928128208330170
0.570000000000000395,-1.313019611694599131
0.571000000000000396,-1.300189553691786237
0.572000000000000397,-1.287438051734625333
0.573000000000000398,-1.274765191451312951
0.574000000000000399,-1.262171046771829896
0.575000000000000400,-1.249655680134285962
0.576000000000000401,-1.237219142689354623
0.577000000000000401,-1.224861474502791481
0.578000000000000402,-1.212582704755976959
0.579000000000000403,-1.200382851944531648
0.580000000000000404,-1.188261924075020737
0.581000000000000405,-1.176219918859674474
0.582000000000000406,-1.164256823909202598
0.583000000000000407,-1.152372616923634574
0.584000000000000408,-1.140567265881250458
0.585000000000000409,-1.128840729225548012
0.586000000000000409,-1.117192956050265140
0.587000000000000410,-1.105623886282496526
0.588000000000000411,-1.094133450863818080
0.589000000000000412,-1.082721571929533777
0.590000000000000413,-1.071388162985936976
0.591000000000000414,-1.060133129085666814
0.592000000000000415,-1.048956367001140588
0.593000000000000416,-1.037857765396033916
0.594000000000000417,-1.026837204994846209
0.595000000000000417,-1.015894558750591647
0.596000000000000418,-1.005029692010479980
0.597000000000000419,-0.994242462679798544
0.598000000000000420,-0.983532721383791220
0.599000000000000421,-0.972900311627705738
0.600000000000000422,-0.962345069954906429
0.601000000000000423,-0.951866826103108243
0.602000000000000424,-0.941465403158733283
0.603000000000000425,-0.931140617709388607
0.604000000000000425,-0.920892279994458995
0.605000000000000426,-0.910720194053845411
0.606000000000000427,-0.900624157874880149
0.607000000000000428,-0.890603963537300203
0.608000000000000429,-0.880659397356511775
0.609000000000000430,-0.870790240024880924
0.610000000000000431,-0.860996266751321571
0.611000000000000432,-0.851277247398990466
0.612000000000000433,-0.841632946621188260
0.613000000000000433,-0.832063123995490761
