# TiO2-rut-110_BSAI14
# h[nm],U(h)[kJ/mol]
0.149999999999999994,110.819120404509334321
0.150999999999999995,109.369484118040503517
0.151999999999999996,107.364425937974971248
0.152999999999999997,105.251630068079791158
0.153999999999999998,103.207783765155909350
0.154999999999999999,101.276467277842272097
0.156000000000000000,99.444647091455834698
0.157000000000000001,97.682372122581696772
0.158000000000000002,95.961212380218711360
0.159000000000000002,94.261039332523310463
0.160000000000000003,92.570908405899857030
0.161000000000000004,90.887366990007990353
0.162000000000000005,89.211998518643028433
0.163000000000000006,87.549101321985759228
0.164000000000000007,85.903873093333771749
0.165000000000000008,84.281184055318860260
0.166000000000000009,82.684880003317985597
0.167000000000000010,81.117499639096735109
0.168000000000000010,79.580280682387709135
0.169000000000000011,78.073342643946290309
0.170000000000000012,76.595956952317536093
0.171000000000000013,75.146839567337067933
0.172000000000000014,73.724423316368074666
0.173000000000000015,72.327085275123451424
0.174000000000000016,70.953318214497826943
0.175000000000000017,69.601844770828691367
0.176000000000000018,68.271679205503943422
0.177000000000000018,66.962145128424253926
0.178000000000000019,65.672859065837968728
0.179000000000000020,64.403689864232021023
0.180000000000000021,63.154703134651718699
0.181000000000000022,61.926098640641178861
0.182000000000000023,60.718147001545254682
0.183000000000000024,59.531130519388739231
0.184000000000000025,58.365291471435782000
0.185000000000000026,57.220789918373348826
0.186000000000000026,56.097671997264399124
0.187000000000000027,54.995848808745435576
0.188000000000000028,53.915085360717739604
0.189000000000000029,52.854998575956280149
0.190000000000000030,51.815063082499115410
0.191000000000000031,50.794623354930969583
0.192000000000000032,49.792910733551060787
0.193000000000000033,48.809063890648232586
0.194000000000000034,47.842151415315001373
0.195000000000000034,46.891195330364176641
0.196000000000000035,45.955194520368067401
0.197000000000000036,45.033147225327482488
0.198000000000000037,44.124071929741162990
0.199000000000000038,43.227026144312411304
0.200000000000000039,42.341122731920918909
0.201000000000000040,41.465543567426486504
0.202000000000000041,40.599550440527245598
0.203000000000000042,39.742493211635505190
0.204000000000000042,38.893815312844502330
0.205000000000000043,38.053056750484174131
0.206000000000000044,37.219854813897015333
0.207000000000000045,36.393942728584491419
0.208000000000000046,35.575146512601257598
0.209000000000000047,34.763380304866316806
0.210000000000000048,33.958640434742378034
0.211000000000000049,33.160998495530684238
0.212000000000000050,32.370593672032214272
0.213000000000000050,31.587624555476406130
0.214000000000000051,30.812340659181433722
0.215000000000000052,30.045033826386550402
0.216000000000000053,29.286029698717907621
0.217000000000000054,28.535679390487281637
0.218000000000000055,27.794351491106692009
0.219000000000000056,27.062424495823961479
0.220000000000000057,26.340279744118596739
0.221000000000000058,25.628294925721696984
0.222000000000000058,24.926838196511802437
0.223000000000000059,24.236262930607651356
0.224000000000000060,23.556903120867019652
0.225000000000000061,22.889069427705425852
0.226000000000000062,22.233045865623456194
0.227000000000000063,21.589087107998558679
0.228000000000000064,20.957416383458046027
0.229000000000000065,20.338223931386462340
0.230000000000000066,19.731665979709070768
0.231000000000000066,19.137864204898804132
0.232000000000000067,18.556905632047033805
0.233000000000000068,17.988842931685024240
0.234000000000000069,17.433695069716453219
0.235000000000000070,16.891448267202072486
0.236000000000000071,16.362057227710220531
0.237000000000000072,15.845446591406375347
0.238000000000000073,15.341512576905808274
0.239000000000000073,14.850124774068518718
0.240000000000000074,14.371128053293649174
0.241000000000000075,13.904344559407642024
0.242000000000000076,13.449575760871431029
0.243000000000000077,13.006604527706196350
0.244000000000000078,12.575197214210806607
0.245000000000000079,12.155105725177859810
0.246000000000000080,11.746069546879761347
0.247000000000000081,11.347817726564663587
0.248000000000000081,10.960070786556391553
0.249000000000000082,10.582542561276701676
0.250000000000000111,10.214941947591224647
0.251000000000000112,9.856974560816158970
0.252000000000000113,9.508344290505480245
0.253000000000000114,9.168754751769764511
0.254000000000000115,8.837910629354214009
0.255000000000000115,8.515518913032872561
0.256000000000000116,8.201290024058851102
0.257000000000000117,7.894938833453982951
0.258000000000000118,7.596185573833075466
0.259000000000000119,7.304756647242632184
0.260000000000000120,7.020385332161717784
0.261000000000000121,6.742812393370806845
0.262000000000000122,6.471786598850438388
0.263000000000000123,6.207065148235335172
0.264000000000000123,5.948414017627497330
0.265000000000000124,5.695608225773538535
0.266000000000000125,5.448432026743454948
0.267000000000000126,5.206679034318805854
0.268000000000000127,4.970152283313670871
0.269000000000000128,4.738664233020227989
0.270000000000000129,4.512036717896871885
0.271000000000000130,4.290100850507301722
0.272000000000000131,4.072696881579791928
0.273000000000000131,3.859674021890685314
0.274000000000000132,3.650890230491001809
0.275000000000000133,3.446211973593106048
0.276000000000000134,3.245513958219920170
0.277000000000000135,3.048678844495967155
0.278000000000000136,2.855596940229383485
0.279000000000000137,2.666165881201270516
0.280000000000000138,2.480290300344786036
0.281000000000000139,2.297881488763096947
0.282000000000000139,2.118857051305623962
0.283000000000000140,1.943140559196156358
0.284000000000000141,1.770661201986744926
0.285000000000000142,1.601353440898238389
0.286000000000000143,1.435156665403082510
0.287000000000000144,1.272014854709472287
0.288000000000000145,1.111876245617740011
0.289000000000000146,0.954693008042198366
0.290000000000000147,0.800420929322381625
0.291000000000000147,0.649019108289394020
0.292000000000000148,0.500449659903769550
0.293000000000000149,0.354677431142687294
0.294000000000000150,0.211669728684899111
0.295000000000000151,0.071396058822304376
0.296000000000000152,-0.066172120083139774
0.297000000000000153,-0.201061632379462729
0.298000000000000154,-0.333297807016326608
0.299000000000000155,-0.462904686506606933
0.300000000000000155,-0.589905222991981559
0.301000000000000156,-0.714321461514287437
0.302000000000000157,-0.836174710655398057
0.303000000000000158,-0.955485700761494194
0.304000000000000159,-1.072274730015052580
0.305000000000000160,-1.186561798658540390
0.306000000000000161,-1.298366731709095223
0.307000000000000162,-1.407709290533254221
0.308000000000000163,-1.514609273675519230
0.309000000000000163,-1.619086607354840668
0.310000000000000164,-1.721161426059058641
0.311000000000000165,-1.820854143679347503
0.312000000000000166,-1.918185515635286054
0.313000000000000167,-2.013176692446390081
0.314000000000000168,-2.105849265208241228
0.315000000000000169,-2.196225303431072362
0.316000000000000170,-2.284327385696017565
0.317000000000000171,-2.370178623579251465
0.318000000000000171,-2.453802679287688804
0.319000000000000172,-2.535223777441644621
0.320000000000000173,-2.614466711429922263
0.321000000000000174,-2.691556844751873179
0.322000000000000175,-2.766520107749046886
0.323000000000000176,-2.839382990115929317
0.324000000000000177,-2.910172529565799859
0.325000000000000178,-2.978916297013340930
0.326000000000000179,-3.045642378621205459
0.327000000000000179,-3.110379355042490968
0.328000000000000180,-3.173156278176000988
0.329000000000000181,-3.234002645735946313
0.330000000000000182,-3.292948373922059524
0.331000000000000183,-3.350023768461235729
0.332000000000000184,-3.405259494276232424
0.333000000000000185,-3.458686544022182119
0.334000000000000186,-3.510336205716935609
0.335000000000000187,-3.560240029676614792
0.336000000000000187,-3.608429794953926351
0.337000000000000188,-3.654937475462586072
0.338000000000000189,-3.699795205958339217
0.339000000000000190,-3.743035248033800055
0.340000000000000191,-3.784689956271809486
0.341000000000000192,-3.824791744690269724
0.342000000000000193,-3.863373053599505447
0.343000000000000194,-3.900466316982427628
0.344000000000000195,-3.936103930496808623
0.345000000000000195,-3.970318220189361202
0.346000000000000196,-4.003141412001138377
0.347000000000000197,-4.034605602135119540
0.348000000000000198,-4.064742728347853884
0.349000000000000199,-4.093584542219007361
0.350000000000000200,-4.121162582444954481
0.351000000000000201,-4.147508149195203941
0.352000000000000202,-4.172652279563680899
0.353000000000000203,-4.196625724140547575
0.354000000000000203,-4.219458924724288629
0.355000000000000204,-4.241181993188066990
0.356000000000000205,-4.261824691509493057
0.357000000000000206,-4.281416412968031437
0.358000000000000207,-4.299986164509717490
0.359000000000000208,-4.317562550275113153
0.360000000000000209,-4.334173756282549306
0.361000000000000210,-4.349847536255209590
0.362000000000000210,-4.364611198577803108
0.363000000000000211,-4.378491594365486961
0.364000000000000212,-4.391515106625464959
0.365000000000000213,-4.403707640489174402
0.366000000000000214,-4.415094614491237301
0.367000000000000215,-4.425700952869337179
0.368000000000000216,-4.435551078857931984
0.369000000000000217,-4.444668908947066122
0.370000000000000218,-4.453077848076714140
0.371000000000000218,-4.460800785735909102
0.372000000000000219,-4.467860092935287852
0.373000000000000220,-4.474277620021015700
0.374000000000000221,-4.480074695297583176
0.375000000000000222,-4.485272124426574081
0.376000000000000223,-4.489890190568577744
0.377000000000000224,-4.493948655234932588
0.378000000000000225,-4.497466759816399318
0.379000000000000226,-4.500463227755712836
0.380000000000000226,-4.502956267331433615
0.381000000000000227,-4.504963575020555666
0.382000000000000228,-4.506502339407990831
0.383000000000000229,-4.507589245611290707
0.384000000000000230,-4.508240480189551036
0.385000000000000231,-4.508471736506098893
0.386000000000000232,-4.508298220514991961
0.387000000000000233,-4.507734656942249174
0.388000000000000234,-4.506795295833183168
0.389000000000000234,-4.505493919438202433
0.390000000000000235,-4.503843849409946642
0.391000000000000236,-4.501857954285624075
0.392000000000000237,-4.499548657229039961
0.393000000000000238,-4.496927944007792277
0.394000000000000239,-4.494007371181757193
0.395000000000000240,-4.490798074479981139
0.396000000000000241,-4.487310777343857637
0.397000000000000242,-4.483555799615276172
0.398000000000000242,-4.479543066349406466
0.399000000000000243,-4.475282116732442361
0.400000000000000244,-4.470782113085585152
0.401000000000000245,-4.466051849937421103
0.402000000000000246,-4.461099763147426955
0.403000000000000247,-4.455933939064459004
0.404000000000000248,-4.450562123704632000
0.405000000000000249,-4.444991731933925827
0.406000000000000250,-4.439229856641508931
0.407000000000000250,-4.433283277890632590
0.408000000000000251,-4.427158472034615322
0.409000000000000252,-4.420861620786152635
0.410000000000000253,-4.414398620228944026
0.411000000000000254,-4.407775089761270415
0.412000000000000255,-4.400996380961766263
0.413000000000000256,-4.394067586368477940
0.414000000000000257,-4.386993548162573475
0.415000000000000258,-4.379778866749103550
0.416000000000000258,-4.372427909227392107
0.417000000000000259,-4.364944817744512484
0.418000000000000260,-4.357333517725651362
0.419000000000000261,-4.349597725975805851
0.420000000000000262,-4.341740958647647197
0.421000000000000263,-4.333766539071094215
0.422000000000000264,-4.325677605440222173
0.423000000000000265,-4.317477118354042354
0.424000000000000266,-4.309167868207749663
0.425000000000000266,-4.300752482431608570
0.426000000000000267,-4.292233432575032204
0.427000000000000268,-4.283613041233745200
0.428000000000000269,-4.274893488818273468
0.429000000000000270,-4.266076820162412631
0.430000000000000271,-4.257164950970518724
0.431000000000000272,-4.248159674102929273
0.432000000000000273,-4.239062665698943633
0.433000000000000274,-4.229875491137224941
0.434000000000000274,-4.220599610833600579
0.435000000000000275,-4.211236385876579114
0.436000000000000276,-4.201787083501116626
0.437000000000000277,-4.192252882401284353
0.438000000000000278,-4.182634877882845714
0.439000000000000279,-4.172934086856834313
0.440000000000000280,-4.163151452675380781
0.441000000000000281,-4.153287849811283294
0.442000000000000282,-4.143344088382958645
0.443000000000000282,-4.133320918526401044
0.444000000000000283,-4.123219034616180778
0.445000000000000284,-4.113039079337341697
0.446000000000000285,-4.102781647610344251
0.447000000000000286,-4.092447290371330482
0.448000000000000287,-4.082036518209836373
0.449000000000000288,-4.071549804866526401
0.450000000000000289,-4.060987590593216012
0.451000000000000290,-4.050350285377801285
0.452000000000000290,-4.039638272036652822
0.453000000000000291,-4.028851909177044277
0.454000000000000292,-4.017991534032340439
0.455000000000000293,-4.007057465172591648
0.456000000000000294,-3.996050005093304325
0.457000000000000295,-3.984969442685143637
0.458000000000000296,-3.973816055587288787
0.459000000000000297,-3.962590112427314182
0.460000000000000298,-3.951291874950320526
0.461000000000000298,-3.939921600040166449
0.462000000000000299,-3.928479541635595318
0.463000000000000300,-3.916965952543999485
0.464000000000000301,-3.905381086155725878
0.465000000000000302,-3.893725198061588344
0.466000000000000303,-3.881998547576404057
0.467000000000000304,-3.870201399171315337
0.468000000000000305,-3.858334023817562297
0.469000000000000306,-3.846396700244454792
0.470000000000000306,-3.834389716114235291
0.471000000000000307,-3.822313369116377313
0.472000000000000308,-3.810167967984054549
0.473000000000000309,-3.797953833435288917
0.474000000000000310,-3.785671299041323490
0.475000000000000311,-3.773320712024754719
0.476000000000000312,-3.760902433989895322
0.477000000000000313,-3.748416841587767667
0.478000000000000314,-3.735864327118128436
0.479000000000000314,-3.723245299070918612
0.480000000000000315,-3.710560182609350388
0.481000000000000316,-3.697809419997005964
0.482000000000000317,-3.684993470971059004
0.483000000000000318,-3.672112813063878267
0.484000000000000319,-3.659167941875068664
0.485000000000000320,-3.646159371296095575
0.486000000000000321,-3.633087633689484619
0.487000000000000322,-3.619953280024611697
0.488000000000000322,-3.606756879971975138
0.489000000000000323,-3.593499021957930584
0.490000000000000324,-3.580180313181676066
0.491000000000000325,-3.566801379596303612
0.492000000000000326,-3.553362865855655084
0.493000000000000327,-3.539865435228763069
0.494000000000000328,-3.526309769483435552
0.495000000000000329,-3.512696568740715009
0.496000000000000330,-3.499026551301665400
0.497000000000000330,-3.485300453448163971
0.498000000000000331,-3.471519029218993246
0.499000000000000332,-3.457683050162871918
0.500000000000000333,-3.443793305069687172
0.501000000000000334,-3.429850599681298462
0.502000000000000335,-3.415855756383287201
0.503000000000000336,-3.401809613878857164
0.504000000000000337,-3.387713026846154385
0.505000000000000338,-3.373566865580149177
0.506000000000000338,-3.359372015620286867
0.507000000000000339,-3.345129377364965073
0.508000000000000340,-3.330839865673908662
0.509000000000000341,-3.316504409459549940
0.510000000000000342,-3.302123951268272073
0.511000000000000343,-3.287699446852622831
0.512000000000000344,-3.273231864735296259
0.513000000000000345,-3.258722185765829060
0.514000000000000346,-3.244171402670913640
0.515000000000000346,-3.229580519599012600
0.516000000000000347,-3.214950551660182843
0.517000000000000348,-3.200282524461838474
0.518000000000000349,-3.185577473641109325
0.519000000000000350,-3.170836444394587783
0.520000000000000351,-3.156060491006036361
0.521000000000000352,-3.141250676372776329
0.522000000000000353,-3.126408071531270316
0.523000000000000353,-3.111533755182549932
0.524000000000000354,-3.096628813218026188
0.525000000000000355,-3.081694338246173892
0.526000000000000356,-3.066731429120614472
0.527000000000000357,-3.051741190470095066
0.528000000000000358,-3.036724732230755119
0.529000000000000359,-3.021683169181188955
0.530000000000000360,-3.006617620480612096
0.531000000000000361,-2.991529209210610052
0.532000000000000361,-2.976419061920776876
0.533000000000000362,-2.961288308178587236
0.534000000000000363,-2.946138080123844816
0.535000000000000364,-2.930969512027998825
0.536000000000000365,-2.915783739858595958
0.537000000000000366,-2.900581900849185324
0.538000000000000367,-2.885365133074820232
0.539000000000000368,-2.870134575033543189
0.540000000000000369,-2.854891365233892309
0.541000000000000369,-2.839636641788798155
0.542000000000000370,-2.824371542015894576
0.543000000000000371,-2.809097202044548602
0.544000000000000372,-2.793814756429678692
0.545000000000000373,-2.778525337772539849
0.546000000000000374,-2.763230076348580866
0.547000000000000375,-2.747930099742505572
0.548000000000000376,-2.732626532490650906
0.549000000000000377,-2.717320495730744856
0.550000000000000377,-2.702013106859142866
0.551000000000000378,-2.686705479195597768
0.552000000000000379,-2.671398721655665831
0.553000000000000380,-2.656093938430728940
0.554000000000000381,-2.640792228675716391
0.555000000000000382,-2.625494686204595141
0.556000000000000383,-2.610202399193518819
0.557000000000000384,-2.594916449891841559
0.558000000000000385,-2.579637914340801252
0.559000000000000385,-2.564367862100035200
0.560000000000000386,-2.549107355981820255
0.561000000000000387,-2.533857451793061877
0.562000000000000388,-2.518619198084993904
0.563000000000000389,-2.503393635910585502
0.564000000000000390,-2.488181798589583771
0.565000000000000391,-2.472984711481185816
0.566000000000000392,-2.457803391764269652
0.567000000000000393,-2.442638848225178183
0.568000000000000393,-2.427492081052923467
0.569000000000000394,-2.412364081641822366
0.570000000000000395,-2.397255832401506748
0.571000000000000396,-2.382168306574133254
0.572000000000000397,-2.367102468058887244
0.573000000000000398,-2.352059271243556182
0.574000000000000399,-2.337039660843190259
0.575000000000000400,-2.322044571745720987
0.576000000000000401,-2.307074928864456531
0.577000000000000401,-2.292131646997437322
0.578000000000000402,-2.277215630693438353
0.579000000000000403,-2.262327774124622159
0.580000000000000404,-2.247468960965756768
0.581000000000000405,-2.232640064279812098
0.582000000000000406,-2.217841946409953913
0.583000000000000407,-2.203075458877727932
0.584000000000000408,-2.188341442287432770
0.585000000000000409,-2.173640726236519161
0.586000000000000409,-2.158974129231906680
0.587000000000000410,-2.144342458612197078
0.588000000000000411,-2.129746510475551524
0.589000000000000412,-2.115187069613272630
0.590000000000000413,-2.100664909448849649
0.591000000000000414,-2.086180791982461091
0.592000000000000415,-2.071735467740802417
0.593000000000000416,-2.057329675732085139
0.594000000000000417,-2.042964143406158506
0.595000000000000417,-2.028639586619678692
0.596000000000000418,-2.014356709606060392
0.597000000000000419,-2.000116204950345811
0.598000000000000420,-1.985918753568637340
0.599000000000000421,-1.971765024692198498
0.600000000000000422,-1.957655675855963562
0.601000000000000423,-1.943591352891441915
0.602000000000000424,-1.929572689923881201
0.603000000000000425,-1.915600309373594268
0.604000000000000425,-1.901674821961320649
0.605000000000000426,-1.887796826717560439
0.606000000000000427,-1.873966910995783719
0.607000000000000428,-1.860185650489309950
0.608000000000000429,-1.846453609251961225
0.609000000000000430,-1.832771339722137682
0.610000000000000431,-1.819139382750460054
0.611000000000000432,-1.805558267630704039
0.612000000000000433,-1.792028512134002938
0.613000000000000433,-1.778550622546245963
0.614000000000000434,-1.765125093708534321
