# TiO2-rut-110_PYRIDINE-AC
# h[nm],U(h)[kJ/mol]
0.149999999999999994,129.957859594579019813
0.150999999999999995,128.661823802908116932
0.151999999999999996,126.737087708764903482
0.152999999999999997,124.702104346303059401
0.153999999999999998,122.744182726378951998
0.154999999999999999,120.896668707440397839
0.156000000000000000,119.133614219643874321
0.157000000000000001,117.416344965499007458
0.158000000000000002,115.713198577182694748
0.159000000000000002,114.005241345870217629
0.160000000000000003,112.285410176377055791
0.161000000000000004,110.555200939330418919
0.162000000000000005,108.821017028379770863
0.163000000000000006,107.091123855026722822
0.164000000000000007,105.373510292700842683
0.165000000000000008,103.674630962843451698
0.166000000000000009,101.998861876482450839
0.167000000000000010,100.348463486900982389
0.168000000000000010,98.723859008067833543
0.169000000000000011,97.124072008166621117
0.170000000000000012,95.547209051131744673
0.171000000000000013,93.990911915333057891
0.172000000000000014,92.452735910376674155
0.173000000000000015,90.930435049530586866
0.174000000000000016,89.422151782954628629
0.175000000000000017,87.926519785371922922
0.176000000000000018,86.442694252760773566
0.177000000000000018,84.970326579453811178
0.178000000000000019,83.509500274340467740
0.179000000000000020,82.060643435294224446
0.180000000000000021,80.624430725086455141
0.181000000000000022,79.201685080493206215
0.182000000000000023,77.793286680824607515
0.183000000000000024,76.400094218540033353
0.184000000000000025,75.022881373394369575
0.185000000000000026,73.662289644150206414
0.186000000000000026,72.318797342355537694
0.187000000000000027,70.992703574708059477
0.188000000000000028,69.684125390193898397
0.189000000000000029,68.393005893341822343
0.190000000000000030,67.119130971604931801
0.191000000000000031,65.862152301555354939
0.192000000000000032,64.621614438736884267
0.193000000000000033,63.396984019471005922
0.194000000000000034,62.187679376242968488
0.195000000000000034,60.993099164743192375
0.196000000000000035,59.812648899603445329
0.197000000000000036,58.645764582207014826
0.198000000000000037,57.491932867191238188
0.199000000000000038,56.350707447798455973
0.200000000000000039,55.221721540565326336
0.201000000000000040,54.104696515874522333
0.202000000000000041,52.999446853334916341
0.203000000000000042,51.905881701786157123
0.204000000000000042,50.824003395771434555
0.205000000000000043,49.753903326922177541
0.206000000000000044,48.695755593406246930
0.207000000000000045,47.649808856994972928
0.208000000000000046,46.616376828856587622
0.209000000000000047,45.595827785107786667
0.210000000000000048,44.588573484378265732
0.211000000000000049,43.595057824750618636
0.212000000000000050,42.615745538669827397
0.213000000000000050,41.651111183665378235
0.214000000000000051,40.701628645549398300
0.215000000000000052,39.767761330402620956
0.216000000000000053,38.849953183100744525
0.217000000000000054,37.948620634094176296
0.218000000000000055,37.064145543136504557
0.219000000000000056,36.196869178985792814
0.220000000000000057,35.347087247941104238
0.221000000000000058,34.515045961472274882
0.222000000000000058,33.700939114085613824
0.223000000000000059,32.904906126813628475
0.224000000000000060,32.127030999120130161
0.225000000000000061,31.367342102340550980
0.226000000000000062,30.625812740767440090
0.227000000000000063,29.902362401863776142
0.228000000000000064,29.196858614562124501
0.229000000000000065,28.509119333904617832
0.230000000000000066,27.838915771128615262
0.231000000000000066,27.185975590449970696
0.232000000000000067,26.549986396999969429
0.233000000000000068,25.930599444414013988
0.234000000000000069,25.327433495251504780
0.235000000000000070,24.740078772566484133
0.236000000000000071,24.168100946392858219
0.237000000000000072,23.611045104515802961
0.238000000000000073,23.068439662557057801
0.239000000000000073,22.539800174006650479
0.240000000000000074,22.024633006301108651
0.241000000000000075,21.522438854317073265
0.242000000000000076,21.032716067661414883
0.243000000000000077,20.554963772856883253
0.244000000000000078,20.088684775916828329
0.245000000000000079,19.633388234852237275
0.246000000000000080,19.188592095352095868
0.247000000000000081,18.753825286215480617
0.248000000000000081,18.328629674097523861
0.249000000000000082,17.912561779766431158
0.250000000000000111,17.505194260367026970
0.251000000000000112,17.106117164162895961
0.252000000000000113,16.714938965900415724
0.253000000000000114,16.331287392324405516
0.254000000000000115,15.954810048494204366
0.255000000000000115,15.585174856424439227
0.256000000000000116,15.222070318225300767
0.257000000000000117,14.865205616365098962
0.258000000000000118,14.514310563944292198
0.259000000000000119,14.169135417973498292
0.260000000000000120,13.829450568608823602
0.261000000000000121,13.495046117134990027
0.262000000000000122,13.165731355215465115
0.263000000000000123,12.841334157567947827
0.264000000000000123,12.521700299785930355
0.265000000000000124,12.206692712528209199
0.266000000000000125,11.896190682749733014
0.267000000000000126,11.590089012061534746
0.268000000000000127,11.288297141693931280
0.269000000000000128,10.990738252906755434
0.270000000000000129,10.697348351049596360
0.271000000000000130,10.408075340831985045
0.272000000000000131,10.122878099725216572
0.273000000000000131,9.841725555787798285
0.274000000000000132,9.564595775591840265
0.275000000000000133,9.291475067330789983
0.276000000000000134,9.022357103613199314
0.277000000000000135,8.757242067896239490
0.278000000000000136,8.496135827986647016
0.279000000000000137,8.239049139539165623
0.280000000000000138,7.985996882013411735
0.281000000000000139,7.736997329109766675
0.282000000000000139,7.492071455294940563
0.283000000000000140,7.251242279647021505
0.284000000000000141,7.014534247898589925
0.285000000000000142,6.781972653234156212
0.286000000000000143,6.553583096103987593
0.287000000000000144,6.329390983049843378
0.288000000000000145,6.109421064297428927
0.289000000000000146,5.893697009656032826
0.290000000000000147,5.682241022074331127
0.291000000000000147,5.475073488034123415
0.292000000000000148,5.272212663817126277
0.293000000000000149,5.073674396554750388
0.294000000000000150,4.879471878863770762
0.295000000000000151,4.689615435782323871
0.296000000000000152,4.504112342648336487
0.297000000000000153,4.322966672505694774
0.298000000000000154,4.146179171580439693
0.299000000000000155,3.973747161339505229
0.300000000000000155,3.805664465626111159
0.301000000000000156,3.641921361358479547
0.302000000000000157,3.482504551280210414
0.303000000000000158,3.327397157261540173
0.304000000000000159,3.176578732668430494
0.305000000000000160,3.030025292341671506
0.306000000000000161,2.887709358758638434
0.307000000000000162,2.749600022986208980
0.308000000000000163,2.615663019073672491
0.309000000000000163,2.485860810578147451
0.310000000000000164,2.360152687961946327
0.311000000000000165,2.238494875650760996
0.312000000000000166,2.120840647592712180
0.313000000000000167,2.007140450211055249
0.314000000000000168,1.897342031697108578
0.315000000000000169,1.791390576644189325
0.316000000000000170,1.689228845077822339
0.317000000000000171,1.590797314992083322
0.318000000000000171,1.496034327555877175
0.319000000000000172,1.404876234206255070
0.320000000000000173,1.317257544898616128
0.321000000000000174,1.233111076835002651
0.322000000000000175,1.152368103041851777
0.323000000000000176,1.074958500217569668
0.324000000000000177,1.000810895317547633
0.325000000000000178,0.929852810390091378
0.326000000000000179,0.862010805220616128
0.327000000000000179,0.797210617384042308
0.328000000000000180,0.735377299345735702
0.329000000000000181,0.676435352289913361
0.330000000000000182,0.620308856391691088
0.331000000000000183,0.566921597283492451
0.332000000000000184,0.516197188500098991
0.333000000000000185,0.468059189717826230
0.334000000000000186,0.422431220632724258
0.335000000000000187,0.379237070350699201
0.336000000000000187,0.338400802188143668
0.337000000000000188,0.299846853806308045
0.338000000000000189,0.263500132624913008
0.339000000000000190,0.229286106481675189
0.340000000000000191,0.197130889523996350
0.341000000000000192,0.166961323336668604
0.342000000000000193,0.138705053326242084
0.343000000000000194,0.112290600397497137
0.344000000000000195,0.087647427971605976
0.345000000000000195,0.064706004407463297
0.346000000000000196,0.043397860899511712
0.347000000000000197,0.023655644935055897
0.348000000000000198,0.005413169403225604
0.349000000000000199,-0.011394542544270258
0.350000000000000200,-0.026831216773657497
0.351000000000000201,-0.040959291477650782
0.352000000000000202,-0.053839884393854606
0.353000000000000203,-0.065532763810348865
0.354000000000000203,-0.076096323232277177
0.355000000000000204,-0.085587559580220601
0.356000000000000205,-0.094062054789109492
0.357000000000000206,-0.101573960674792810
0.358000000000000207,-0.108175986934114537
0.359000000000000208,-0.113919392144182272
0.360000000000000209,-0.118853977626291463
0.361000000000000210,-0.123028084040341004
0.362000000000000210,-0.126488590576593174
0.363000000000000211,-0.129280916612603047
0.364000000000000212,-0.131449025704886008
0.365000000000000213,-0.133035431786512170
0.366000000000000214,-0.134081207444093436
0.367000000000000215,-0.134625994149802836
0.368000000000000216,-0.134708014326833686
0.369000000000000217,-0.134364085129165367
0.370000000000000218,-0.133629633819702193
0.371000000000000218,-0.132538714633605059
0.372000000000000219,-0.131124027017052530
0.373000000000000220,-0.129416935134762934
0.374000000000000221,-0.127447488543022847
0.375000000000000222,-0.125244443928230004
0.376000000000000223,-0.122835287814727592
0.377000000000000224,-0.120246260148763898
0.378000000000000225,-0.117502378669252283
0.379000000000000226,-0.114627463979286776
0.380000000000000226,-0.111644165236069876
0.381000000000000227,-0.108573986380118059
0.382000000000000228,-0.105437312828374097
0.383000000000000229,-0.102253438559036236
0.384000000000000230,-0.099040593519360537
0.385000000000000231,-0.095815971291154794
0.386000000000000232,-0.092595756951704952
0.387000000000000233,-0.089395155071344795
0.388000000000000234,-0.086228417791805304
0.389000000000000234,-0.083108872932769015
0.390000000000000235,-0.080048952076860080
0.391000000000000236,-0.077060218586403828
0.392000000000000237,-0.074153395507973896
0.393000000000000238,-0.071338393323692947
0.394000000000000239,-0.068624337510741221
0.395000000000000240,-0.066019595873313519
0.396000000000000241,-0.063531805613652931
0.397000000000000242,-0.061167900111248528
0.398000000000000242,-0.058934135381703869
0.399000000000000243,-0.056836116188904294
0.400000000000000244,-0.054878821786371892
0.401000000000000245,-0.053066631265865770
0.402000000000000246,-0.051403348493007296
0.403000000000000247,-0.049892226611979562
0.404000000000000248,-0.048535992102914947
0.405000000000000249,-0.047336868377501264
0.406000000000000250,-0.046296598899872740
0.407000000000000250,-0.045416469821620911
0.408000000000000251,-0.044697332121086841
0.409000000000000252,-0.044139623238707196
0.410000000000000253,-0.043743388201433732
0.411000000000000254,-0.043508300230624533
0.412000000000000255,-0.043433680828959174
0.413000000000000256,-0.043518519343213866
0.414000000000000257,-0.043761492000613120
0.415000000000000258,-0.044160980417806917
0.416000000000000258,-0.044715089582142140
0.417000000000000259,-0.045421665306135187
0.418000000000000260,-0.046278311156652797
0.419000000000000261,-0.047282404861261715
0.420000000000000262,-0.048431114194837345
0.421000000000000263,-0.049721412350354544
0.422000000000000264,-0.051150092798210811
0.423000000000000265,-0.052713783639220392
0.424000000000000266,-0.054408961456941227
0.425000000000000266,-0.056231964675299027
0.426000000000000267,-0.058179006428230193
0.427000000000000268,-0.060246186948252255
0.428000000000000269,-0.062429505481344516
0.429000000000000270,-0.064724871735907949
0.430000000000000271,-0.067128116873746577
0.431000000000000272,-0.069635004051465763
0.432000000000000273,-0.072241238520758991
0.433000000000000274,-0.074942477296405616
0.434000000000000274,-0.077734338400892750
0.435000000000000275,-0.080612409694779480
0.436000000000000276,-0.083572257302059569
0.437000000000000277,-0.086609433639854211
0.438000000000000278,-0.089719485061873439
0.439000000000000279,-0.092897959125187168
0.440000000000000280,-0.096140411489804317
0.441000000000000281,-0.099442412460638382
0.442000000000000282,-0.102799553181522715
0.443000000000000282,-0.106207451490708801
0.444000000000000283,-0.109661757447548511
0.445000000000000284,-0.113158158539767073
0.446000000000000285,-0.116692384580799488
0.447000000000000286,-0.120260212306680159
0.448000000000000287,-0.123857469681655563
0.449000000000000288,-0.127480039921896243
0.450000000000000289,-0.131123865246343924
0.451000000000000290,-0.134784950363769196
0.452000000000000290,-0.138459365704975135
0.453000000000000291,-0.142143250408879984
0.454000000000000292,-0.145832815071218230
0.455000000000000293,-0.149524344264338860
0.456000000000000294,-0.153214198836515381
0.457000000000000295,-0.156898817999032325
0.458000000000000296,-0.160574721209097160
0.459000000000000297,-0.164238509856578396
0.460000000000000298,-0.167886868762318231
0.461000000000000298,-0.171516567495665156
0.462000000000000299,-0.175124461518700036
0.463000000000000300,-0.178707493164421305
0.464000000000000301,-0.182262692456083286
0.465000000000000302,-0.185787177774612428
0.466000000000000303,-0.189278156380913221
0.467000000000000304,-0.192732924799716765
0.468000000000000305,-0.196148869071418985
0.469000000000000306,-0.199523464878196000
0.470000000000000306,-0.202854277550591350
0.471000000000000307,-0.206138961960420003
0.472000000000000308,-0.209375262305912940
0.473000000000000309,-0.212561011794650673
0.474000000000000310,-0.215694132229766827
0.475000000000000311,-0.218772633504754899
0.476000000000000312,-0.221794613011993047
0.477000000000000313,-0.224758254969987192
0.478000000000000314,-0.227661829674124544
0.479000000000000314,-0.230503692675681660
0.480000000000000315,-0.233282283893512105
0.481000000000000316,-0.235996126662868566
0.482000000000000317,-0.238643826725507380
0.483000000000000318,-0.241224071165201670
0.484000000000000319,-0.243735627292556156
0.485000000000000320,-0.246177341482936546
0.486000000000000321,-0.248548137971153826
0.487000000000000322,-0.250847017606431799
0.488000000000000322,-0.253073056570985166
0.489000000000000323,-0.255225405065569844
0.490000000000000324,-0.257303285965018724
0.491000000000000325,-0.259305993446838190
0.492000000000000326,-0.261232891595698236
0.493000000000000327,-0.263083412986623910
0.494000000000000328,-0.264857057249494543
0.495000000000000329,-0.266553389617413317
0.496000000000000330,-0.268172039461333500
0.497000000000000330,-0.269712698813333263
0.498000000000000331,-0.271175120880626341
0.499000000000000332,-0.272559118552561874
0.500000000000000333,-0.273864562902538133
0.501000000000000334,-0.275091381686737413
0.502000000000000335,-0.276239557841580718
0.503000000000000336,-0.277309127981555659
0.504000000000000337,-0.278300180899123728
0.505000000000000338,-0.279212856068221826
0.506000000000000338,-0.280047342152873247
0.507000000000000339,-0.280803875522286694
0.508000000000000340,-0.281482738773745189
0.509000000000000341,-0.282084259264611115
0.510000000000000342,-0.282608807654501248
0.511000000000000343,-0.283056796458858728
0.512000000000000344,-0.283428678614857210
0.513000000000000345,-0.283724946060670280
0.514000000000000346,-0.283946128329028713
0.515000000000000346,-0.284092791155835134
0.516000000000000347,-0.284165535104696831
0.517000000000000348,-0.284164994208118360
0.518000000000000349,-0.284091834625951500
0.519000000000000350,-0.283946753321832834
0.520000000000000351,-0.283730476758094707
0.521000000000000352,-0.283443759609770807
0.522000000000000353,-0.283087383498077327
0.523000000000000353,-0.282662155743894306
0.524000000000000354,-0.282168908141605113
0.525000000000000355,-0.281608495753645327
0.526000000000000356,-0.280981795726074124
0.527000000000000357,-0.280289706125496751
0.528000000000000358,-0.279533144797485478
0.529000000000000359,-0.278713048246817530
0.530000000000000360,-0.277830370539599081
0.531000000000000361,-0.276886082227513264
0.532000000000000361,-0.275881169294233120
0.533000000000000362,-0.274816632124138260
0.534000000000000363,-0.273693484493347794
0.535000000000000364,-0.272512752583155771
0.536000000000000365,-0.271275474015817530
0.537000000000000366,-0.269982696912733466
0.538000000000000367,-0.268635478974921460
0.539000000000000368,-0.267234886585820619
0.540000000000000369,-0.265781993936223926
0.541000000000000369,-0.264277882171377931
0.542000000000000370,-0.262723638560006467
0.543000000000000371,-0.261120355685228178
0.544000000000000372,-0.259469130657173475
0.545000000000000373,-0.257771064347151413
0.546000000000000374,-0.256027260643187704
0.547000000000000375,-0.254238825726742834
0.548000000000000376,-0.252406867370443933
0.549000000000000377,-0.250532494256566984
0.550000000000000377,-0.248616815316088674
0.551000000000000378,-0.246660939088055198
0.552000000000000379,-0.244665973099051026
0.553000000000000380,-0.242633023262491809
0.554000000000000381,-0.240563193297487432
0.555000000000000382,-0.238457584167071746
0.556000000000000383,-0.236317293535406148
0.557000000000000384,-0.234143415243838915
0.558000000000000385,-0.231937038805387907
0.559000000000000385,-0.229699248917479532
0.560000000000000386,-0.227431124992583250
0.561000000000000387,-0.225133740706484092
0.562000000000000388,-0.222808163563869593
0.563000000000000389,-0.220455454480974034
0.564000000000000390,-0.218076667384925788
0.565000000000000391,-0.215672848829539715
0.566000000000000392,-0.213245037627214501
0.567000000000000393,-0.210794264496673656
0.568000000000000393,-0.208321551726180360
0.569000000000000394,-0.205827912851978712
0.570000000000000395,-0.203314352351630312
0.571000000000000396,-0.200781865351905842
0.572000000000000397,-0.198231437351012230
0.573000000000000398,-0.195664043954733996
0.574000000000000399,-0.193080650626295008
0.575000000000000400,-0.190482212449543858
0.576000000000000401,-0.187869673905216861
0.577000000000000401,-0.185243968659985603
0.578000000000000402,-0.182606019367926198
0.579000000000000403,-0.179956737484167462
0.580000000000000404,-0.177297023090436101
0.581000000000000405,-0.174627764732132151
0.582000000000000406,-0.171949839266739901
0.583000000000000407,-0.169264111723197469
0.584000000000000408,-0.166571435172015170
0.585000000000000409,-0.163872650605810494
0.586000000000000409,-0.161168586829997434
0.587000000000000410,-0.158460060363381228
0.588000000000000411,-0.155747875348322851
0.589000000000000412,-0.153032823470293317
0.590000000000000413,-0.150315683886455942
0.591000000000000414,-0.147597223163092345
0.592000000000000415,-0.144878195221587264
0.593000000000000416,-0.142159341292696084
0.594000000000000417,-0.139441389878867616
0.595000000000000417,-0.136725056724411459
0.596000000000000418,-0.134011044793154899
0.597000000000000419,-0.131300044253503501
0.598000000000000420,-0.128592732470523108
0.599000000000000421,-0.125889774004927096
0.600000000000000422,-0.123191820618670136
0.601000000000000423,-0.120499511286947469
0.602000000000000424,-0.117813472216392628
0.603000000000000425,-0.115134316869252601
0.604000000000000425,-0.112462645993301760
0.605000000000000426,-0.109799047657320153
0.606000000000000427,-0.107144097291955759
0.607000000000000428,-0.104498357735651567
0.608000000000000429,-0.101862379285650076
0.609000000000000430,-0.099236699753631988
0.610000000000000431,-0.096621844526041417
0.611000000000000432,-0.094018326628740628
0.612000000000000433,-0.091426646795881500
0.613000000000000433,-0.088847293542854894
0.614000000000000434,-0.086280743243067046
