# TiO2-rut-110_PYRROLIDIN2ONE-AC
# h[nm],U(h)[kJ/mol]
0.149999999999999994,139.865103974043961443
0.150999999999999995,138.413192592086659261
0.151999999999999996,136.103219567544243773
0.152999999999999997,133.629106078060715390
0.153999999999999998,131.256019568090948724
0.154999999999999999,129.041320844766801201
0.156000000000000000,126.956558260440630193
0.157000000000000001,124.950217946570177219
0.158000000000000002,122.976323928485342662
0.159000000000000002,121.004391143633753813
0.160000000000000003,119.020031163620885195
0.161000000000000004,117.021569166022544550
0.162000000000000005,115.015582483311348483
0.163000000000000006,113.012794678660156933
0.164000000000000007,111.024904507410568044
0.165000000000000008,109.062463754977258645
0.166000000000000009,107.133689310301448927
0.167000000000000010,105.244004567013988094
0.168000000000000010,103.396091172988121798
0.169000000000000011,101.590256029389593095
0.170000000000000012,99.824957606034132596
0.171000000000000013,98.097377375871658955
0.172000000000000014,96.403959966072306997
0.173000000000000015,94.740876704144028508
0.174000000000000016,93.104390979329195943
0.175000000000000017,91.491120756886786580
0.176000000000000018,89.898204712398353422
0.177000000000000018,88.323384989542731205
0.178000000000000019,86.765022679461026200
0.179000000000000020,85.222062782369647493
0.180000000000000021,83.693964472443326486
0.181000000000000022,82.180610593386035134
0.182000000000000023,80.682207947430356398
0.183000000000000024,79.199187446965623849
0.184000000000000025,77.732110803885746009
0.185000000000000026,76.281588276915712754
0.186000000000000026,74.848210155443922531
0.187000000000000027,73.432493156398550127
0.188000000000000028,72.034841743011412518
0.189000000000000029,70.655523515142618862
0.190000000000000030,69.294657232902437727
0.191000000000000031,67.952211676172652233
0.192000000000000032,66.628013369150068002
0.193000000000000033,65.321761170245565609
0.194000000000000034,64.033045806548244627
0.195000000000000034,62.761372586414537977
0.196000000000000035,61.506185726537339065
0.197000000000000036,60.266892959111977746
0.198000000000000037,59.042889323173803007
0.199000000000000038,57.833579278778607602
0.200000000000000039,56.638396504009520527
0.201000000000000040,55.456820936463415705
0.202000000000000041,54.288392799036003566
0.203000000000000042,53.132723502611916899
0.204000000000000042,51.989503445328566045
0.205000000000000043,50.858506830205655547
0.206000000000000044,49.739593701698240125
0.207000000000000045,48.632709459253433693
0.208000000000000046,47.537882144639176829
0.209000000000000047,46.455217822217164780
0.210000000000000048,45.384894379997348324
0.211000000000000049,44.327154076695194362
0.212000000000000050,43.282295148404095642
0.213000000000000050,42.250662769992615608
0.214000000000000051,41.232639642793131429
0.215000000000000052,40.228636453198738820
0.216000000000000053,39.239082417814202586
0.217000000000000054,38.264416100978436930
0.218000000000000055,37.305076660741278261
0.219000000000000056,36.361495650494042309
0.220000000000000057,35.434089475998248986
0.221000000000000058,34.523252581970368169
0.222000000000000058,33.629351418944814611
0.223000000000000059,32.752719220050387605
0.224000000000000060,31.893651598678225412
0.225000000000000061,31.052402961809455917
0.226000000000000062,30.229183719959575427
0.227000000000000063,29.424158263188576967
0.228000000000000064,28.637443663291399787
0.229000000000000065,27.869109054963455918
0.230000000000000066,27.119175643262430242
0.231000000000000066,26.387617280874735570
0.232000000000000067,25.674361556360519643
0.233000000000000068,24.979291333510410311
0.234000000000000069,24.302246682023184832
0.235000000000000070,23.643027140736009528
0.236000000000000071,23.001394256448794096
0.237000000000000072,22.377074343833267989
0.238000000000000073,21.769761414871268812
0.239000000000000073,21.179120229603842773
0.240000000000000074,20.604789423580932350
0.241000000000000075,20.046384671189564131
0.242000000000000076,19.503501847918233381
0.243000000000000077,18.975720158516622860
0.244000000000000078,18.462605201871724603
0.245000000000000079,17.963711947192635421
0.246000000000000080,17.478587599735838864
0.247000000000000081,17.006774337776175088
0.248000000000000081,16.547811905812888966
0.249000000000000082,16.101240052074309972
0.250000000000000111,15.666600801237086316
0.251000000000000112,15.243440555899004707
0.252000000000000113,14.831312022733564859
0.253000000000000114,14.429775961413891849
0.254000000000000115,14.038402756321199050
0.255000000000000115,13.656773812761468179
0.256000000000000116,13.284482780906230914
0.257000000000000117,12.921136611962884544
0.258000000000000118,12.566356452176563607
0.259000000000000119,12.219778381180915972
0.260000000000000120,11.881054001962727540
0.261000000000000121,11.549850890297770789
0.262000000000000122,11.225852911964972591
0.263000000000000123,10.908760416367270452
0.264000000000000123,10.598290315390844540
0.265000000000000124,10.294176056434761080
0.266000000000000125,9.996167498549404229
0.267000000000000126,9.704030700548269550
0.268000000000000127,9.417547629811863885
0.269000000000000128,9.136515800297001277
0.270000000000000129,8.860747848007108018
0.271000000000000130,8.590071051878487296
0.272000000000000131,8.324326807702556508
0.273000000000000131,8.063370062340707634
0.274000000000000132,7.807068715104302115
0.275000000000000133,7.555302992772953807
0.276000000000000134,7.307964804314726059
0.277000000000000135,7.064957080957972479
0.278000000000000136,6.826193106848604586
0.279000000000000137,6.591595845114208707
0.280000000000000138,6.361097263749831754
0.281000000000000139,6.134637665341632129
0.282000000000000139,5.912165024257788559
0.283000000000000140,5.693634334561187060
0.284000000000000141,5.479006971538607829
0.285000000000000142,5.268250069396422930
0.286000000000000143,5.061335917344903734
0.287000000000000144,4.858241375982784938
0.288000000000000145,4.658947315600241446
0.289000000000000146,4.463438077744188881
0.290000000000000147,4.271700961132069096
0.291000000000000147,4.083725732762111704
0.292000000000000148,3.899504164846120169
0.293000000000000149,3.719029597987765445
0.294000000000000150,3.542296530842102165
0.295000000000000151,3.369300236322046338
0.296000000000000152,3.200036404263072676
0.297000000000000153,3.034500810318430553
0.298000000000000154,2.872689010732637716
0.299000000000000155,2.714596062530524989
0.300000000000000155,2.560216268561691155
0.301000000000000156,2.409542946755462545
0.302000000000000157,2.262568222867924028
0.303000000000000158,2.119282845940722471
0.304000000000000159,1.979676025638911652
0.305000000000000160,1.843735290592952270
0.306000000000000161,1.711446366835928545
0.307000000000000162,1.582793075401539795
0.308000000000000163,1.457757248130274297
0.309000000000000163,1.336318660719693074
0.310000000000000164,1.218454982049516744
0.311000000000000165,1.104141738812718598
0.312000000000000166,0.993352294489048715
0.313000000000000167,0.886057841707479588
0.314000000000000168,0.782227407057946134
0.315000000000000169,0.681827867430176315
0.316000000000000170,0.584823976977875248
0.317000000000000171,0.491178403829892751
0.318000000000000171,0.400851775695404478
0.319000000000000172,0.313802733537442424
0.320000000000000173,0.229987992518309647
0.321000000000000174,0.149362409450636779
0.322000000000000175,0.071879056019030149
0.323000000000000176,-0.002510702930521003
0.324000000000000177,-0.073857126703930298
0.325000000000000178,-0.142212012312357305
0.326000000000000179,-0.207628604870389921
0.327000000000000179,-0.270161505410551228
0.328000000000000180,-0.329866576653190802
0.329000000000000181,-0.386800847238643553
0.330000000000000182,-0.441022414896299675
0.331000000000000183,-0.492590348994641825
0.332000000000000184,-0.541564592885174889
0.333000000000000185,-0.588005866423861101
0.334000000000000186,-0.631975569024566752
0.335000000000000187,-0.673535683571014676
0.336000000000000187,-0.712748681486845670
0.337000000000000188,-0.749677429236898840
0.338000000000000189,-0.784385096508261159
0.339000000000000190,-0.816935066295211065
0.340000000000000191,-0.847390847089179111
0.341000000000000192,-0.875815987353189662
0.342000000000000193,-0.902273992438947348
0.343000000000000194,-0.926828244085297959
0.344000000000000195,-0.949541922617451517
0.345000000000000195,-0.970477931949250694
0.346000000000000196,-0.989698827473318277
0.347000000000000197,-1.007266746908641153
0.348000000000000198,-1.023243344160114976
0.349000000000000199,-1.037689726230758058
0.350000000000000200,-1.050666393214466865
0.351000000000000201,-1.062233181385027425
0.352000000000000202,-1.072449209386024949
0.353000000000000203,-1.081372827515960200
0.354000000000000203,-1.089061570093378561
0.355000000000000204,-1.095572110877936600
0.356000000000000205,-1.100960221515564941
0.357000000000000206,-1.105280732968488167
0.358000000000000207,-1.108587499884095884
0.359000000000000208,-1.110933367850991171
0.360000000000000209,-1.112370143485038820
0.361000000000000210,-1.112948567283395862
0.362000000000000210,-1.112718289180480102
0.363000000000000211,-1.111727846736011438
0.364000000000000212,-1.110024645882149219
0.365000000000000213,-1.107654944153946275
0.366000000000000214,-1.104663836325119330
0.367000000000000215,-1.101095242369189098
0.368000000000000216,-1.096991897664669313
0.369000000000000217,-1.092395345361608205
0.370000000000000218,-1.087345930826280949
0.371000000000000218,-1.081882798080020525
0.372000000000000219,-1.076043888148213501
0.373000000000000220,-1.069865939235398411
0.374000000000000221,-1.063384488642743042
0.375000000000000222,-1.056633876344585499
0.376000000000000223,-1.049647250141711785
0.377000000000000224,-1.042456572309596430
0.378000000000000225,-1.035092627661190035
0.379000000000000226,-1.027585032944847043
0.380000000000000226,-1.019962247499609287
0.381000000000000227,-1.012251585091189954
0.382000000000000228,-1.004479226853932650
0.383000000000000229,-0.996670235265525006
0.384000000000000230,-0.988848569082968809
0.385000000000000231,-0.981037099170385729
0.386000000000000232,-0.973257625150802497
0.387000000000000233,-0.965530892816342301
0.388000000000000234,-0.957876612232930524
0.389000000000000234,-0.950313476477950836
0.390000000000000235,-0.942859180951025722
0.391000000000000236,-0.935530443200437767
0.392000000000000237,-0.928343023209533436
0.393000000000000238,-0.921311744089755358
0.394000000000000239,-0.914450513128772235
0.395000000000000240,-0.907772343144486071
0.396000000000000241,-0.901289374097551055
0.397000000000000242,-0.895012894917134538
0.398000000000000242,-0.888953365496740089
0.399000000000000243,-0.883120438818706277
0.400000000000000244,-0.877522983168096737
0.401000000000000245,-0.872169104398655803
0.402000000000000246,-0.867066168215124611
0.403000000000000247,-0.862220822438392043
0.404000000000000248,-0.857639019221525745
0.405000000000000249,-0.853326037186603381
0.406000000000000250,-0.849286503453898334
0.407000000000000250,-0.845524415536784146
0.408000000000000251,-0.842043163077190071
0.409000000000000252,-0.838845549398175572
0.410000000000000253,-0.835933812851611835
0.411000000000000254,-0.833309647940543963
0.412000000000000255,-0.830974226197142007
0.413000000000000256,-0.828928216798719975
0.414000000000000257,-0.827171806905377949
0.415000000000000258,-0.825704721704474287
0.416000000000000258,-0.824526244148004350
0.417000000000000259,-0.823635234370520997
0.418000000000000260,-0.823030148776115134
0.419000000000000261,-0.822709058784259151
0.420000000000000262,-0.822669669225295608
0.421000000000000263,-0.822909336377451339
0.422000000000000264,-0.823425085638091026
0.423000000000000265,-0.824213628823025402
0.424000000000000266,-0.825271381088543032
0.425000000000000266,-0.826594477471513267
0.426000000000000267,-0.828178789043995223
0.427000000000000268,-0.830019938679326108
0.428000000000000269,-0.832113316427493976
0.429000000000000270,-0.834454094498311649
0.430000000000000271,-0.837037241851464331
0.431000000000000272,-0.839857538393252279
0.432000000000000273,-0.842909588780308638
0.433000000000000274,-0.846187835831223700
0.434000000000000274,-0.849686573547469459
0.435000000000000275,-0.853399959745493875
0.436000000000000276,-0.857322028302383132
0.437000000000000277,-0.861446701017809957
0.438000000000000278,-0.865767799095479518
0.439000000000000279,-0.870279054247604322
0.440000000000000280,-0.874974119426293995
0.441000000000000281,-0.879846579186019939
0.442000000000000282,-0.884889959681770200
0.443000000000000282,-0.890097738307492059
0.444000000000000283,-0.895463352979997906
0.445000000000000284,-0.900980211073474146
0.446000000000000285,-0.906641698010035801
0.447000000000000286,-0.912441185512070319
0.448000000000000287,-0.918372039521995864
0.449000000000000288,-0.924427627795541218
0.450000000000000289,-0.930601327174513493
0.451000000000000290,-0.936886530545292806
0.452000000000000290,-0.943276653489364514
0.453000000000000291,-0.949765140632194749
0.454000000000000292,-0.956345471696986138
0.455000000000000293,-0.963011167269737234
0.456000000000000294,-0.969755794282203709
0.457000000000000295,-0.976572971219331620
0.458000000000000296,-0.983456373057741140
0.459000000000000297,-0.990399735941909776
0.460000000000000298,-0.997396861604644691
0.461000000000000298,-1.004441621538453067
0.462000000000000299,-1.011527960924410108
0.463000000000000300,-1.018649902325055256
0.464000000000000301,-1.025801549147888014
0.465000000000000302,-1.032977088885912886
0.466000000000000303,-1.040170796141689280
0.467000000000000304,-1.047377035441275250
0.468000000000000305,-1.054590263844370268
0.469000000000000306,-1.061805033356934880
0.470000000000000306,-1.069015993152498289
0.471000000000000307,-1.076217891608195698
0.472000000000000308,-1.083405578161660721
0.473000000000000309,-1.090574004994676827
0.474000000000000310,-1.097718228549442898
0.475000000000000311,-1.104833410883281797
0.476000000000000312,-1.111914820867427434
0.477000000000000313,-1.118957835235522724
0.478000000000000314,-1.125957939487265413
0.479000000000000314,-1.132910728652684273
0.480000000000000315,-1.139811907922231971
0.481000000000000316,-1.146657293148003465
0.482000000000000317,-1.153442811221058628
0.483000000000000318,-1.160164500329910364
0.484000000000000319,-1.166818510105025686
0.485000000000000320,-1.173401101654115930
0.486000000000000321,-1.179908647492888374
0.487000000000000322,-1.186337631375827817
0.488000000000000322,-1.192684648031412609
0.489000000000000323,-1.198946402806199796
0.490000000000000324,-1.205119711221942724
0.491000000000000325,-1.211201498449914427
0.492000000000000326,-1.217188798706441588
0.493000000000000327,-1.223078754573611260
0.494000000000000328,-1.228868616248926404
0.495000000000000329,-1.234555740727669049
0.496000000000000330,-1.240137590921520871
0.497000000000000330,-1.245611734717077868
0.498000000000000331,-1.250975843977480961
0.499000000000000332,-1.256227693490674202
0.500000000000000333,-1.261365159867379848
0.501000000000000334,-1.266386220391919615
0.502000000000000335,-1.271288951828973834
0.503000000000000336,-1.276071529189107823
0.504000000000000337,-1.280732224455989332
0.505000000000000338,-1.285269405277976507
0.506000000000000338,-1.289681533626760634
0.507000000000000339,-1.293967164425634753
0.508000000000000340,-1.298124944149810833
0.509000000000000341,-1.302153609401286438
0.510000000000000342,-1.306051985460437770
0.511000000000000343,-1.309818984816685239
0.512000000000000344,-1.313453605680288350
0.513000000000000345,-1.316954930477379992
0.514000000000000346,-1.320322124330268743
0.515000000000000346,-1.323554433524820606
0.516000000000000347,-1.326651183966857994
0.517000000000000348,-1.329611779629324086
0.518000000000000349,-1.332435700991861927
0.519000000000000350,-1.335122503474515554
0.520000000000000351,-1.337671815867036651
0.521000000000000352,-1.340083338755390541
0.522000000000000353,-1.342356842946779150
0.523000000000000353,-1.344492167894653978
0.524000000000000354,-1.346489220124986508
0.525000000000000355,-1.348347971665041722
0.526000000000000356,-1.350068458475853106
0.527000000000000357,-1.351650778889571969
0.528000000000000358,-1.353095092052718273
0.529000000000000359,-1.354401616376420314
0.530000000000000360,-1.355570627994567179
0.531000000000000361,-1.356602459230864755
0.532000000000000361,-1.357497497075627502
0.533000000000000362,-1.358256181673168639
0.534000000000000363,-1.358879004820558789
0.535000000000000364,-1.359366508478530911
0.536000000000000365,-1.359719283295182102
0.537000000000000366,-1.359937967143197479
0.538000000000000367,-1.360023243671130144
0.539000000000000368,-1.359975840869448005
0.540000000000000369,-1.359796529651728481
0.541000000000000369,-1.359486122451678991
0.542000000000000370,-1.359045471836302532
0.543000000000000371,-1.358475469135762115
0.544000000000000372,-1.357777043090290459
0.545000000000000373,-1.356951158514542177
0.546000000000000374,-1.355998814979719080
0.547000000000000375,-1.354921045513784561
0.548000000000000376,-1.353718915320088367
0.549000000000000377,-1.352393520514597158
0.550000000000000377,-1.350945986882031491
0.551000000000000378,-1.349377468651053347
0.552000000000000379,-1.347689147288758660
0.553000000000000380,-1.345882230314566552
0.554000000000000381,-1.343957950133674473
0.555000000000000382,-1.341917562890237114
0.556000000000000383,-1.339762347340253346
0.557000000000000384,-1.337493603744389636
0.558000000000000385,-1.335112652780642062
0.559000000000000385,-1.332620834476999860
0.560000000000000386,-1.330019507164068804
0.561000000000000387,-1.327310046447671921
0.562000000000000388,-1.324493844201411585
0.563000000000000389,-1.321572307579208960
0.564000000000000390,-1.318546858047711545
0.565000000000000391,-1.315418930438579936
0.566000000000000392,-1.312189972020536333
0.567000000000000393,-1.308861441591161912
0.568000000000000393,-1.305434808588263440
0.569000000000000394,-1.301911552220784696
0.570000000000000395,-1.298293160619129916
0.571000000000000396,-1.294581130004728298
0.572000000000000397,-1.290776963878811134
0.573000000000000398,-1.286882172230140231
0.574000000000000399,-1.282898270761644977
0.575000000000000400,-1.278826780135730257
0.576000000000000401,-1.274669225238134862
0.577000000000000401,-1.270427134460188512
0.578000000000000402,-1.266102038999222135
0.579000000000000403,-1.261695472176993293
0.580000000000000404,-1.257208968775969327
0.581000000000000405,-1.252644064393179546
0.582000000000000406,-1.248002294811545454
0.583000000000000407,-1.243285195388386555
0.584000000000000408,-1.238494300460979414
0.585000000000000409,-1.233631142768890632
0.586000000000000409,-1.228697252892900105
0.587000000000000410,-1.223694158710317392
0.588000000000000411,-1.218623384866393877
0.589000000000000412,-1.213486452261719029
0.590000000000000413,-1.208284877555252601
0.591000000000000414,-1.203020172682861766
0.592000000000000415,-1.197693844391095386
0.593000000000000416,-1.192307393785936753
0.594000000000000417,-1.186862315896342279
0.595000000000000417,-1.181360099252356077
0.596000000000000418,-1.175802225477450280
0.597000000000000419,-1.170190168895023808
0.598000000000000420,-1.164525396148659242
0.599000000000000421,-1.158809365836032557
0.600000000000000422,-1.153043528156153519
0.601000000000000423,-1.147229324569742692
0.602000000000000424,-1.141368187472500573
0.603000000000000425,-1.135461539881044368
0.604000000000000425,-1.129510795131239309
0.605000000000000426,-1.123517356588743077
0.606000000000000427,-1.117482617371524878
0.607000000000000428,-1.111407960084030755
0.608000000000000429,-1.105294756562972713
0.609000000000000430,-1.099144367634241615
0.610000000000000431,-1.092958142880985806
0.611000000000000432,-1.086737420422421607
0.612000000000000433,-1.080483526703251762
0.613000000000000433,-1.074197776293478013
