# SiO2-Amorphous_PHO-AC
# h[nm],U(h)[kJ/mol]
0.200000000000000011,97.704352924165760896
0.201000000000000012,96.346871087194216443
0.202000000000000013,95.051796945752116130
0.203000000000000014,93.794745323109822266
0.204000000000000015,92.562107991699974718
0.205000000000000016,91.347045079662763101
0.206000000000000016,90.146750851689830597
0.207000000000000017,88.960636121534236054
0.208000000000000018,87.789160798250520656
0.209000000000000019,86.633119682212694102
0.210000000000000020,85.493237461521175646
0.211000000000000021,84.369968722183244836
0.212000000000000022,83.263428658104061242
0.213000000000000023,82.173402378459712736
0.214000000000000024,81.099397074574042676
0.215000000000000024,80.040713234734042203
0.216000000000000025,78.996519673634082892
0.217000000000000026,77.965923213772796885
0.218000000000000027,76.948028064236325463
0.219000000000000028,75.941982780652466545
0.220000000000000029,74.947014532996064418
0.221000000000000030,73.962451537888185271
0.222000000000000031,72.987735140716580418
0.223000000000000032,72.022423317513897700
0.224000000000000032,71.066187422599512047
0.225000000000000033,70.118803919379857348
0.226000000000000034,69.180142658312021808
0.227000000000000035,68.250153049823467200
0.228000000000000036,67.328849249532481736
0.229000000000000037,66.416295247209347963
0.230000000000000038,65.512590541195876881
0.231000000000000039,64.617856893011193620
0.232000000000000040,63.732226495600549754
0.233000000000000040,62.855831753699646924
0.234000000000000041,61.988796765072393669
0.235000000000000042,61.131230504954793048
0.236000000000000043,60.283221650389023694
0.237000000000000044,59.444834933521384812
0.238000000000000045,58.616108880617005639
0.239000000000000046,57.797054773881804124
0.240000000000000047,56.987656663752296993
0.241000000000000048,56.187872257947937271
0.242000000000000048,55.397634518367929957
0.243000000000000049,54.616853806225115875
0.244000000000000050,53.845420428265853729
0.245000000000000051,53.083207451389533560
0.246000000000000052,52.330073668534893727
0.247000000000000053,51.585866614611198600
0.248000000000000054,50.850425546957843892
0.249000000000000055,50.123584319893858208
0.250000000000000056,49.405174097066094419
0.251000000000000056,48.695025858316647316
0.252000000000000057,47.992972669544784026
0.253000000000000058,47.298851694474421947
0.254000000000000059,46.612505936347375268
0.255000000000000060,45.933785705374781116
0.256000000000000061,45.262549814351039856
0.257000000000000062,44.598666510245664085
0.258000000000000063,43.942014153928298015
0.259000000000000064,43.292481663552038640
0.260000000000000064,42.649968739619644964
0.261000000000000065,42.014385891492331382
0.262000000000000066,41.385654286167053328
0.263000000000000067,40.763705440645196632
0.264000000000000068,40.148480779229785753
0.265000000000000069,39.539931076703240365
0.266000000000000070,38.938015807629831500
0.267000000000000071,38.342702421062774931
0.268000000000000071,37.753965558777437650
0.269000000000000072,37.171786233851300096
0.270000000000000073,36.596150985015903245
0.271000000000000074,36.027051020755308741
0.272000000000000075,35.464481365653071521
0.273000000000000076,34.908440020024514183
0.274000000000000077,34.358927142435412350
0.275000000000000078,33.815944263322265328
0.276000000000000079,33.279493536605414761
0.277000000000000079,32.749577034938340603
0.278000000000000080,32.226196093069901849
0.279000000000000081,31.709350702718332116
0.280000000000000082,31.199038961368348311
0.281000000000000083,30.695256576507158996
0.282000000000000084,30.197996426011389559
0.283000000000000085,29.707248174683066111
0.284000000000000086,29.222997946304321459
0.285000000000000087,28.745228050037638923
0.286000000000000087,28.273916759531566356
0.287000000000000088,27.809038142701410834
0.288000000000000089,27.350561939831369074
0.289000000000000090,26.898453487385978633
0.290000000000000091,26.452673684718682523
0.291000000000000092,26.013179000717702394
0.292000000000000093,25.579921517330376446
0.293000000000000094,25.152849006850669156
0.294000000000000095,24.731905039836284743
0.295000000000000095,24.317029120536229669
0.296000000000000096,23.908156846754344826
0.297000000000000097,23.505220091142469130
0.298000000000000098,23.108147201007291471
0.299000000000000099,22.716863213822026779
0.300000000000000100,22.331290085755945540
0.301000000000000101,21.951346930667732238
0.302000000000000102,21.576950267150536433
0.303000000000000103,21.208014271364206138
0.304000000000000103,20.844451033542497953
0.305000000000000104,20.486170816217335044
0.306000000000000105,20.133082312356407328
0.307000000000000106,19.785092901764773643
0.308000000000000107,19.442108904252165757
0.309000000000000108,19.104035828216108683
0.310000000000000109,18.770778613434529802
0.311000000000000110,18.442241867001406774
0.312000000000000111,18.118330091471015919
0.313000000000000111,17.798947904404961662
0.314000000000000112,17.484000248636281327
0.315000000000000113,17.173392592679228130
0.316000000000000114,16.867031120820755064
0.317000000000000115,16.564822912530001275
0.318000000000000116,16.266676110915348374
0.319000000000000117,15.972500080045097803
0.320000000000000118,15.682205551027617929
0.321000000000000119,15.395704756819171166
0.322000000000000119,15.112911555794420693
0.323000000000000120,14.833741544174724680
0.324000000000000121,14.558112157462772984
0.325000000000000122,14.285942761080907104
0.326000000000000123,14.017154730452592304
0.327000000000000124,13.751671520804222837
0.328000000000000125,13.489418726996362352
0.329000000000000126,13.230324133721804714
0.330000000000000127,12.974317756430398418
0.331000000000000127,12.721331873360501419
0.332000000000000128,12.471301049071737310
0.333000000000000129,12.224162149885923867
0.334000000000000130,11.979854351651557209
0.335000000000000131,11.738319140252650996
0.336000000000000132,11.499500305286129986
0.337000000000000133,11.263343927331966654
0.338000000000000134,11.029798359238395022
0.339000000000000135,10.798814201841384630
0.340000000000000135,10.570344274530999229
0.341000000000000136,10.344343581070877036
0.342000000000000137,10.120769271067995732
0.343000000000000138,9.899580597480444055
0.344000000000000139,9.680738870539562058
0.345000000000000140,9.464207408451670744
0.346000000000000141,9.249951485231610704
0.347000000000000142,9.037938276007546179
0.348000000000000143,8.828136800122660333
0.349000000000000143,8.620517862345623783
0.350000000000000144,8.415053992487255385
0.351000000000000145,8.211719383706745035
0.352000000000000146,8.010489829775888637
0.353000000000000147,7.811342661555745970
0.354000000000000148,7.614256682925436337
0.355000000000000149,7.419212106388565431
0.356000000000000150,7.226190488568785320
0.357000000000000151,7.035174665791993576
0.358000000000000151,6.846148689939258070
0.359000000000000152,6.659097764741147785
0.360000000000000153,6.474008182671155964
0.361000000000000154,6.290867262583861752
0.362000000000000155,6.109663288230607670
0.363000000000000156,5.930385447774371599
0.364000000000000157,5.753023774413978053
0.365000000000000158,5.577569088216778326
0.366000000000000159,5.404012939249106751
0.367000000000000159,5.232347552083067121
0.368000000000000160,5.062565771749654608
0.369000000000000161,4.894661011198442324
0.370000000000000162,4.728627200315871804
0.371000000000000163,4.564458736546210815
0.372000000000000164,4.402150437151179929
0.373000000000000165,4.241697493137549735
0.374000000000000166,4.083095424874618296
0.375000000000000167,3.926340039417937966
0.376000000000000167,3.771427389548868803
0.377000000000000168,3.618353734534567767
0.378000000000000169,3.467115502607675204
0.379000000000000170,3.317709255160276705
0.380000000000000171,3.170131652642004472
0.381000000000000172,3.024379422148641972
0.382000000000000173,2.880449326683272915
0.383000000000000174,2.738338136069009554
0.384000000000000175,2.598042599489050808
0.385000000000000175,2.459559419627241006
0.386000000000000176,2.322885228379287348
0.387000000000000177,2.188016564103312245
0.388000000000000178,2.054949850375579867
0.389000000000000179,1.923681376216175298
0.390000000000000180,1.794207277747458473
0.391000000000000181,1.666523521246858763
0.392000000000000182,1.540625887554793128
0.393000000000000183,1.416509957796993957
0.394000000000000183,1.294171100380344885
0.395000000000000184,1.173604459220374263
0.396000000000000185,1.054804943158256902
0.397000000000000186,0.937767216525069336
0.398000000000000187,0.822485690810461967
0.399000000000000188,0.708954517393326933
0.400000000000000189,0.597167581292093019
0.401000000000000190,0.487118495891979475
0.402000000000000191,0.378800598607657413
0.403000000000000191,0.272206947439462499
0.404000000000000192,0.167330318382066329
0.405000000000000193,0.064163203645162342
0.406000000000000194,-0.037302189354008995
0.407000000000000195,-0.137073938265354578
0.408000000000000196,-0.235160405386597077
0.409000000000000197,-0.331570236587612033
0.410000000000000198,-0.426312359615455549
0.411000000000000199,-0.519395981816096475
0.412000000000000199,-0.610830587308336170
0.413000000000000200,-0.700625933643922894
0.414000000000000201,-0.788792047987544320
0.415000000000000202,-0.875339222848998233
0.416000000000000203,-0.960278011398997378
0.417000000000000204,-1.043619222399259971
0.418000000000000205,-1.125373914776269135
0.419000000000000206,-1.205553391867298929
0.420000000000000207,-1.284169195366254179
0.421000000000000207,-1.361233098995918711
0.422000000000000208,-1.436757101932076397
0.423000000000000209,-1.510753422004280200
0.424000000000000210,-1.583234488696771747
0.425000000000000211,-1.654212935972235510
0.426000000000000212,-1.723701594940249660
0.427000000000000213,-1.791713486391022014
0.428000000000000214,-1.858261813214471037
0.429000000000000214,-1.923359952723491473
0.430000000000000215,-1.987021448899591647
0.431000000000000216,-2.049260004578026706
0.432000000000000217,-2.110089473588896425
0.433000000000000218,-2.169523852869584601
0.434000000000000219,-2.227577274563437904
0.435000000000000220,-2.284263998118508887
0.436000000000000221,-2.339598402399525767
0.437000000000000222,-2.393594977825549641
0.438000000000000222,-2.446268318544936982
0.439000000000000223,-2.497633114658660780
0.440000000000000224,-2.547704144502216828
0.441000000000000225,-2.596496266995776292
0.442000000000000226,-2.644024414071593831
0.443000000000000227,-2.690303583186941960
0.444000000000000228,-2.735348829930538628
0.445000000000000229,-2.779175260729453534
0.446000000000000230,-2.821798025663248222
0.447000000000000230,-2.863232311391462837
0.448000000000000231,-2.903493334200021092
0.449000000000000232,-2.942596333171603629
0.450000000000000233,-2.980556563484763721
0.451000000000000234,-3.017389289845776368
0.452000000000000235,-3.053109780057142508
0.453000000000000236,-3.087733298725919617
0.454000000000000237,-3.121275101114962869
0.455000000000000238,-3.153750427139508705
0.456000000000000238,-3.185174495511346127
0.457000000000000239,-3.215562498032476846
0.458000000000000240,-3.244929594039698717
0.459000000000000241,-3.273290905001380313
0.460000000000000242,-3.300661509267386773
0.461000000000000243,-3.327056436972710252
0.462000000000000244,-3.352490665095333888
0.463000000000000245,-3.376979112668228034
0.464000000000000246,-3.400536636145707003
0.465000000000000246,-3.423178024923513085
0.466000000000000247,-3.444917997012280519
0.467000000000000248,-3.465771194863648041
0.468000000000000249,-3.485752181348025225
0.469000000000000250,-3.504875435883054280
0.470000000000000251,-3.523155350711429268
0.471000000000000252,-3.540606227326732913
0.472000000000000253,-3.557242273045869929
0.473000000000000254,-3.573077597726217025
0.474000000000000254,-3.588126210625998347
0.475000000000000255,-3.602402017405781809
0.476000000000000256,-3.615918817269307972
0.477000000000000257,-3.628690300241435018
0.478000000000000258,-3.640730044581178326
0.479000000000000259,-3.652051514327548265
0.480000000000000260,-3.662668056975930231
0.481000000000000261,-3.672592901282658140
0.482000000000000262,-3.681839155195341107
0.483000000000000262,-3.690419803906601182
0.484000000000000263,-3.698347708028565162
0.485000000000000264,-3.705635601885771901
0.486000000000000265,-3.712296091923821706
0.487000000000000266,-3.718341655231184539
0.488000000000000267,-3.723784638171685479
0.489000000000000268,-3.728637255124920280
0.490000000000000269,-3.732911587332073289
0.491000000000000270,-3.736619581844474958
0.492000000000000270,-3.739773050572279711
0.493000000000000271,-3.742383669430622284
0.494000000000000272,-3.744462977580676810
0.495000000000000273,-3.746022376762950579
0.496000000000000274,-3.747073130720258938
0.497000000000000275,-3.747626364707745239
0.498000000000000276,-3.747693065087462916
0.499000000000000277,-3.747284079004887136
0.500000000000000222,-3.746410114144858916
0.501000000000000334,-3.745081738564492557
0.502000000000000224,-3.743309380600523983
0.503000000000000336,-3.741103328848688570
0.504000000000000226,-3.738473732212694411
0.505000000000000338,-3.735430600020424485
0.506000000000000227,-3.731983802204980272
0.507000000000000339,-3.728143069548302435
0.508000000000000229,-3.723917993985033092
0.509000000000000341,-3.719318028964402778
0.510000000000000231,-3.714352489867942531
0.511000000000000343,-3.709030554480825081
0.512000000000000233,-3.703361263514705737
0.513000000000000345,-3.697353521179991276
0.514000000000000234,-3.691016095805499386
0.515000000000000346,-3.684357620503409869
0.516000000000000236,-3.677386593877658871
0.517000000000000348,-3.670111380773728005
0.518000000000000238,-3.662540213068073314
0.519000000000000350,-3.654681190495204568
0.520000000000000240,-3.646542281510677164
0.521000000000000352,-3.638131324188299764
0.522000000000000242,-3.629456027149687181
0.523000000000000353,-3.620523970524612167
0.524000000000000243,-3.611342606940417532
0.525000000000000355,-3.601919262538994193
0.526000000000000245,-3.592261138019647859
0.527000000000000357,-3.582375309706448796
0.528000000000000247,-3.572268730638500589
0.529000000000000359,-3.561948231681739685
0.530000000000000249,-3.551420522660881485
0.531000000000000361,-3.540692193510101671
0.532000000000000250,-3.529769715441172906
0.533000000000000362,-3.518659442127796133
0.534000000000000252,-3.507367610904798649
0.535000000000000364,-3.495900343981110048
0.536000000000000254,-3.484263649665273022
0.537000000000000366,-3.472463423602332622
0.538000000000000256,-3.460505450021124751
0.539000000000000368,-3.448395402990742209
0.540000000000000258,-3.436138847685326958
0.541000000000000369,-3.423741241656009571
0.542000000000000259,-3.411207936109224903
0.543000000000000371,-3.398544177190326643
0.544000000000000261,-3.385755107271682274
0.545000000000000373,-3.372845766244387811
0.546000000000000263,-3.359821092812754095
0.547000000000000375,-3.346685925790706229
0.548000000000000265,-3.333445005399497063
0.549000000000000377,-3.320102974565749321
0.550000000000000266,-3.306664380219366706
0.551000000000000378,-3.293133674590402737
0.552000000000000268,-3.279515216504390374
0.553000000000000380,-3.265813272675421874
0.554000000000000270,-3.252032018996413143
0.555000000000000382,-3.238175541825892623
0.556000000000000272,-3.224247839270915961
0.557000000000000384,-3.210252822465361699
0.558000000000000274,-3.196194316843334882
0.559000000000000385,-3.182076063406962252
0.560000000000000275,-3.167901719988313491
0.561000000000000387,-3.153674862504876053
0.562000000000000277,-3.139398986208222553
0.563000000000000389,-3.125077506925458604
0.564000000000000279,-3.110713762293086493
0.565000000000000391,-3.096311012982869038
0.566000000000000281,-3.081872443919452920
0.567000000000000393,-3.067401165489311854
0.568000000000000282,-3.052900214740820850
0.569000000000000394,-3.038372556575061889
0.570000000000000284,-3.023821084927188707
0.571000000000000396,-3.009248623938021172
0.572000000000000286,-2.994657929115710715
0.573000000000000398,-2.980051688487135753
0.574000000000000288,-2.965432523738951609
0.575000000000000400,-2.950802991348007165
0.576000000000000290,-2.936165583700997228
0.577000000000000401,-2.921522730203148122
0.578000000000000291,-2.906876798375807702
0.579000000000000403,-2.892230094942799479
0.580000000000000293,-2.877584866905412042
0.581000000000000405,-2.862943302605843066
0.582000000000000295,-2.848307532779147611
0.583000000000000407,-2.833679631593399861
0.584000000000000297,-2.819061617678122467
0.585000000000000409,-2.804455455140868025
0.586000000000000298,-2.789863054571875889
0.587000000000000410,-2.775286274036756318
0.588000000000000300,-2.760726920057179345
0.589000000000000412,-2.746186748579466652
0.590000000000000302,-2.731667465931133520
0.591000000000000414,-2.717170729765325810
0.592000000000000304,-2.702698149993131516
0.593000000000000416,-2.688251289703733615
0.594000000000000306,-2.673831666072516988
0.595000000000000417,-2.659440751256961555
0.596000000000000307,-2.645079973280517471
0.597000000000000419,-2.630750716904340258
0.598000000000000309,-2.616454324487009764
0.599000000000000421,-2.602192096832177448
0.600000000000000311,-2.587965294024286766
0.601000000000000423,-2.573775136252289375
0.602000000000000313,-2.559622804621510817
0.603000000000000425,-2.545509441953625718
0.604000000000000314,-2.531436153574909032
0.605000000000000426,-2.517404008092673173
0.606000000000000316,-2.503414038160122868
0.607000000000000428,-2.489467241229556205
0.608000000000000318,-2.475564580294097095
0.609000000000000430,-2.461706984617911154
0.610000000000000320,-2.447895350455139507
0.611000000000000432,-2.434130541757462574
0.612000000000000322,-2.420413390870521209
0.613000000000000433,-2.406744699219200534
0.614000000000000323,-2.393125237981890585
0.615000000000000435,-2.379555748753827249
0.616000000000000325,-2.366036944199579661
0.617000000000000437,-2.352569508694800859
0.618000000000000327,-2.339154098957368699
0.619000000000000439,-2.325791344667929472
0.620000000000000329,-2.312481849080043173
0.621000000000000441,-2.299226189619993921
0.622000000000000330,-2.286024918476340151
0.623000000000000442,-2.272878563179372868
0.624000000000000332,-2.259787627170535718
0.625000000000000444,-2.246752590361940527
0.626000000000000334,-2.233773909686107118
0.627000000000000446,-2.220852019635963348
0.628000000000000336,-2.207987332795313229
0.629000000000000448,-2.195180240359824619
0.630000000000000338,-2.182431112648656413
0.631000000000000449,-2.169740299606838896
0.632000000000000339,-2.157108131298544507
0.633000000000000451,-2.144534918391322265
0.634000000000000341,-2.132020952631437538
0.635000000000000453,-2.119566507310424619
0.636000000000000343,-2.107171837722968899
0.637000000000000455,-2.094837181616189703
0.638000000000000345,-2.082562759630554261
0.639000000000000457,-2.070348775732343327
0.640000000000000346,-2.058195417638021496
0.641000000000000458,-2.046102857230367000
0.642000000000000348,-2.034071250966734912
0.643000000000000460,-2.022100740279324960
0.644000000000000350,-2.010191451967751508
0.645000000000000462,-1.998343498583903255
0.646000000000000352,-1.986556978809302265
0.647000000000000464,-1.974831977824946794
0.648000000000000353,-1.963168567673935438
0.649000000000000465,-1.951566807616745169
0.650000000000000355,-1.940026744479500520
0.651000000000000467,-1.928548412995162664
0.652000000000000357,-1.917131836137888623
0.653000000000000469,-1.905777025450518192
0.654000000000000359,-1.894483981365465919
0.655000000000000471,-1.883252693518943754
0.656000000000000361,-1.872083141058793698
0.657000000000000473,-1.860975292945846515
0.658000000000000362,-1.849929108249112275
0.659000000000000474,-1.838944536434715005
0.660000000000000364,-1.828021517648824368
0.661000000000000476,-1.817159982994549505
0.662000000000000366,-1.806359854803023968
0.663000000000000478,-1.795621046898668638
0.664000000000000368,-1.784943464858803397
