# SiO2-Amorphous_VALSCA-AC
# h[nm],U(h)[kJ/mol]
0.149999999999999994,115.066447886877810447
0.150999999999999995,112.641962062755510487
0.151999999999999996,111.040832505198295621
0.152999999999999997,109.616109208119127061
0.153999999999999998,108.129099599252498365
0.154999999999999999,106.535241577120402212
0.156000000000000000,104.867124466816406425
0.157000000000000001,103.175321733066539309
0.158000000000000002,101.502268117181898788
0.159000000000000002,99.873950784421523963
0.160000000000000003,98.300334718400918632
0.161000000000000004,96.779336840184924995
0.162000000000000005,95.301571659010406279
0.163000000000000006,93.854534978656914745
0.164000000000000007,92.425720721841742034
0.165000000000000008,91.004610939886731558
0.166000000000000009,89.583692054896900459
0.167000000000000010,88.158728792883238157
0.168000000000000010,86.728532478554228646
0.169000000000000011,85.294429951576859139
0.170000000000000012,83.859595455144358311
0.171000000000000013,82.428362726136541028
0.172000000000000014,81.005594358427160273
0.173000000000000015,79.596152830771899289
0.174000000000000016,78.204492816008055911
0.175000000000000017,76.834376854247338429
0.176000000000000018,75.488705029195344309
0.177000000000000018,74.169442653481297612
0.178000000000000019,72.877626929889501639
0.179000000000000020,71.613433052657711642
0.180000000000000021,70.376281380184352088
0.181000000000000022,69.164969472052419519
0.182000000000000023,67.977815435989228376
0.183000000000000024,66.812801816964636714
0.184000000000000025,65.667711941800462228
0.185000000000000026,64.540253060748696612
0.186000000000000026,63.428162723280742341
0.187000000000000027,62.329296558719406107
0.188000000000000028,61.241697006809786785
0.189000000000000029,60.163643583831493800
0.190000000000000030,59.093686013785770683
0.191000000000000031,58.030662044738164695
0.192000000000000032,56.973702051985881667
0.193000000000000033,55.922222644925206225
0.194000000000000034,54.875911482210199210
0.195000000000000034,53.834705394193051120
0.196000000000000035,52.798763741803881544
0.197000000000000036,51.768438730981770846
0.198000000000000037,50.744244170759671420
0.199000000000000038,49.726823926089984695
0.200000000000000039,48.716921084657755614
0.201000000000000040,47.715348638256962488
0.202000000000000041,46.722962279135927588
0.203000000000000042,45.740635733247060557
0.204000000000000042,44.769238897066998106
0.205000000000000043,43.809618912816134184
0.206000000000000044,42.862584207766545319
0.207000000000000045,41.928891435505285301
0.208000000000000046,41.009235188688130336
0.209000000000000047,40.104240301907886135
0.210000000000000048,39.214456527630893845
0.211000000000000049,38.340355345547656896
0.212000000000000050,37.482328654032400550
0.213000000000000050,36.640689089749116647
0.214000000000000051,35.815671725967227701
0.215000000000000052,35.007436910248586059
0.216000000000000053,34.216074016411681669
0.217000000000000054,33.441605902842468367
0.218000000000000055,32.683993888257084848
0.219000000000000056,31.943143076065251051
0.220000000000000057,31.218907878817208967
0.221000000000000058,30.511097614285620949
0.222000000000000058,29.819482064087214468
0.223000000000000059,29.143796904068892673
0.224000000000000060,28.483748932730314607
0.225000000000000061,27.839021039580195804
0.226000000000000062,27.209276869439111834
0.227000000000000063,26.594165151276428105
0.228000000000000064,25.993323671214660919
0.229000000000000065,25.406382878894106625
0.230000000000000066,24.832969124537839889
0.231000000000000066,24.272707530876665771
0.232000000000000067,23.725224509689233798
0.233000000000000068,23.190149937190053464
0.234000000000000069,22.667119005970281620
0.235000000000000070,22.155773773772970969
0.236000000000000071,21.655764431176272922
0.237000000000000072,21.166750311366325121
0.238000000000000073,20.688400665708790882
0.239000000000000073,20.220395228862663828
0.240000000000000074,19.762424596807143473
0.241000000000000075,19.314190440450659025
0.242000000000000076,18.875405576527150231
0.243000000000000077,18.445793916320841532
0.244000000000000078,18.025090311451272385
0.245000000000000079,17.613040314541443365
0.246000000000000080,17.209399871124844594
0.247000000000000081,16.813934957654598890
0.248000000000000081,16.426421178990494809
0.249000000000000082,16.046643337279466124
0.250000000000000111,15.674394982731101322
0.251000000000000112,15.309477955437984065
0.252000000000000113,14.951701926110388285
0.253000000000000114,14.600883942397185677
0.254000000000000115,14.256847986351624868
0.255000000000000115,13.919424547578168827
0.256000000000000116,13.588450215664176213
0.257000000000000117,13.263767294657844431
0.258000000000000118,12.945223441600697711
0.259000000000000119,12.632671330454158465
0.260000000000000120,12.325968342173831971
0.261000000000000121,12.024976281176559922
0.262000000000000122,11.729561118009341314
0.263000000000000123,11.439592757661699807
0.264000000000000123,11.154944832657218257
0.265000000000000124,10.875494519812606953
0.266000000000000125,10.601122379356210601
0.267000000000000126,10.331712214949273942
0.268000000000000127,10.067150953045645778
0.269000000000000128,9.807328539956234437
0.270000000000000129,9.552137854946559870
0.271000000000000130,9.301474637686720115
0.272000000000000131,9.055237428388261733
0.273000000000000131,8.813327518997850163
0.274000000000000132,8.575648913870598022
0.275000000000000133,8.342108298412442835
0.276000000000000134,8.112615014258782509
0.277000000000000135,7.887081039643526026
0.278000000000000136,7.665420973704833330
0.279000000000000137,7.447552023571477164
0.280000000000000138,7.233393993173114822
0.281000000000000139,7.022869272818309305
0.282000000000000139,6.815902828684433423
0.283000000000000140,6.612422191462064447
0.284000000000000141,6.412357443492790132
0.285000000000000142,6.215641203832039885
0.286000000000000143,6.022208610757499692
0.287000000000000144,5.831997301328274652
0.288000000000000145,5.644947387679167150
0.289000000000000146,5.461001429809469343
0.290000000000000147,5.280104404694265341
0.291000000000000147,5.102203671610470614
0.292000000000000148,4.927248933627659255
0.293000000000000149,4.755192195267069266
0.294000000000000150,4.585987716379396062
0.295000000000000151,4.419591962334456170
0.296000000000000152,4.255963550653140359
0.297000000000000153,4.095063194244566773
0.298000000000000154,3.936853641439165052
0.299000000000000155,3.781299613032023110
0.300000000000000155,3.628367736570129232
0.301000000000000156,3.478026478132903776
0.302000000000000157,3.330246071866989066
0.303000000000000158,3.184998447545429379
0.304000000000000159,3.042257156426463105
0.305000000000000160,2.901997295690397216
0.306000000000000161,2.764195431733084796
0.307000000000000162,2.628829522592564416
0.308000000000000163,2.495878839781578318
0.309000000000000163,2.365323889792722234
0.310000000000000164,2.237146335535653119
0.311000000000000165,2.111328917957091988
0.312000000000000166,1.987855378084339764
0.313000000000000167,1.866710379722217983
0.314000000000000168,1.747879433021632511
0.315000000000000169,1.631348819125557625
0.316000000000000170,1.517105516085376582
0.317000000000000171,1.405137126227375521
0.318000000000000171,1.295431805135725867
0.319000000000000172,1.187978192404523625
0.320000000000000173,1.082765344298150412
0.321000000000000174,0.979782668445479787
0.322000000000000175,0.879019860680113618
0.323000000000000176,0.780466844125746850
0.324000000000000177,0.684113710612795467
0.325000000000000178,0.589950664500085487
0.326000000000000179,0.497967968962973906
0.327000000000000179,0.408155894797957941
0.328000000000000180,0.320504671782323947
0.329000000000000181,0.235004442616741305
0.330000000000000182,0.151645219468627801
0.331000000000000183,0.070416843124165934
0.332000000000000184,-0.008691055251986723
0.333000000000000185,-0.085689089759044809
0.334000000000000186,-0.160588152822199293
0.335000000000000187,-0.233399445699638886
0.336000000000000187,-0.304134506466699206
0.337000000000000188,-0.372805235515478728
0.338000000000000189,-0.439423918614441189
0.339000000000000190,-0.504003247577675006
0.340000000000000191,-0.566556338598205755
0.341000000000000192,-0.627096748304379004
0.342000000000000193,-0.685638487601922364
0.343000000000000194,-0.742196033367898189
0.344000000000000195,-0.796784338065419817
0.345000000000000195,-0.849418837351008649
0.346000000000000196,-0.900115455748082383
0.347000000000000197,-0.948890610462197137
0.348000000000000198,-0.995761213414875224
0.349000000000000199,-1.040744671573905267
0.350000000000000200,-1.083858885658828042
0.351000000000000201,-1.125122247300592626
0.352000000000000202,-1.164553634734598164
0.353000000000000203,-1.202172407106206986
0.354000000000000203,-1.237998397467460654
0.355000000000000204,-1.272051904542973233
0.356000000000000205,-1.304353683342414971
0.357000000000000206,-1.334924934695940424
0.358000000000000207,-1.363787293787457333
0.359000000000000208,-1.390962817759809012
0.360000000000000209,-1.416473972464084685
0.361000000000000210,-1.440343618423778782
0.362000000000000210,-1.462594996082922316
0.363000000000000211,-1.483251710405341761
0.364000000000000212,-1.502337714890478626
0.365000000000000213,-1.519877295069055112
0.366000000000000214,-1.535895051540013156
0.367000000000000215,-1.550415882607932616
0.368000000000000216,-1.563464966578190785
0.369000000000000217,-1.575067743764732686
0.370000000000000218,-1.585249898263439317
0.371000000000000218,-1.594037339541575005
0.372000000000000219,-1.601456183891918128
0.373000000000000220,-1.607532735797764234
0.374000000000000221,-1.612293469252927824
0.375000000000000222,-1.615765009078542702
0.376000000000000223,-1.617974112276610921
0.377000000000000224,-1.618947649457786131
0.378000000000000225,-1.618712586378989071
0.379000000000000226,-1.617295965624295118
0.380000000000000226,-1.614724888460671748
0.381000000000000227,-1.611026496897815408
0.382000000000000228,-1.606227955979845579
0.383000000000000229,-1.600356436334340771
0.384000000000000230,-1.593439097002501414
0.385000000000000231,-1.585503068572551522
0.386000000000000232,-1.576575436636453498
0.387000000000000233,-1.566683225588642703
0.388000000000000234,-1.555853382783542127
0.389000000000000234,-1.544112763067348348
0.390000000000000235,-1.531488113697753395
0.391000000000000236,-1.518006059664037677
0.392000000000000237,-1.503693089418389750
0.393000000000000238,-1.488575541028078320
0.394000000000000239,-1.472679588756660163
0.395000000000000240,-1.456031230081322736
0.396000000000000241,-1.438656273152168596
0.397000000000000242,-1.420580324698055508
0.398000000000000242,-1.401828778382771201
0.399000000000000243,-1.382426803613954203
0.400000000000000244,-1.362399334806459805
0.401000000000000245,-1.341771061100909046
0.402000000000000246,-1.320566416537109822
0.403000000000000247,-1.298809570681432435
0.404000000000000248,-1.276524419706347446
0.405000000000000249,-1.253734577919605186
0.406000000000000250,-1.230463369739829060
0.407000000000000250,-1.206733822114768984
0.408000000000000251,-1.182568657377702781
0.409000000000000252,-1.157990286537072588
0.410000000000000253,-1.133020802993830900
0.411000000000000254,-1.107681976680528813
0.412000000000000255,-1.081995248615754024
0.413000000000000256,-1.055981725867141119
0.414000000000000257,-1.029662176915694172
0.415000000000000258,-1.003057027414067992
0.416000000000000258,-0.976186356330860372
0.417000000000000259,-0.949069892472955923
0.418000000000000260,-0.921727011377565852
0.419000000000000261,-0.894176732565456378
0.420000000000000262,-0.866437717146662179
0.421000000000000263,-0.838528265769856951
0.422000000000000264,-0.810466316906338635
0.423000000000000265,-0.782269445459540025
0.424000000000000266,-0.753954861690950606
0.425000000000000266,-0.725539410453056255
0.426000000000000267,-0.697039570720118795
0.427000000000000268,-0.668471455407381066
0.428000000000000269,-0.639850811469367842
0.429000000000000270,-0.611193020268015585
0.430000000000000271,-0.582513098201167034
0.431000000000000272,-0.553825697582300824
0.432000000000000273,-0.525145107762151064
0.433000000000000274,-0.496485256483120641
0.434000000000000274,-0.467859711457325911
0.435000000000000275,-0.439281682159307629
0.436000000000000276,-0.410764021824495451
0.437000000000000277,-0.382319229644543512
0.438000000000000278,-0.353959453150927972
0.439000000000000279,-0.325696490778182746
0.440000000000000280,-0.297541794598313869
0.441000000000000281,-0.269506473218092624
0.442000000000000282,-0.241601294831094993
0.443000000000000282,-0.213836690416368491
0.444000000000000283,-0.186222757075957868
0.445000000000000284,-0.158769261503515946
0.446000000000000285,-0.131485643576387201
0.447000000000000286,-0.104381020063950961
0.448000000000000287,-0.077464188444749227
0.449000000000000288,-0.050743630825570249
0.450000000000000289,-0.024227517955424060
0.451000000000000290,0.002076286672206651
0.452000000000000290,0.028160222635416777
0.453000000000000291,0.054017028324621873
0.454000000000000292,0.079639736614139298
0.455000000000000293,0.105021670470704626
0.456000000000000294,0.130156438504694050
0.457000000000000295,0.155037930469779622
0.458000000000000296,0.179660312716505233
0.459000000000000297,0.204018023605095605
0.460000000000000298,0.228105768882697374
0.461000000000000298,0.251918517029979971
0.462000000000000299,0.275451494581964496
0.463000000000000300,0.298700181427740963
0.464000000000000301,0.321660306093506487
0.465000000000000302,0.344327841013285396
0.466000000000000303,0.366698997791522985
0.467000000000000304,0.388770222461513104
0.468000000000000305,0.410538190743515607
0.469000000000000306,0.431999803306317876
0.470000000000000306,0.453152181035671453
0.471000000000000307,0.473992660313157343
0.472000000000000308,0.494518788308585644
0.473000000000000309,0.514728318289140230
0.474000000000000310,0.534619204948183269
0.475000000000000311,0.554189599756615414
0.476000000000000312,0.573437846339375668
0.477000000000000313,0.592362475879806838
0.478000000000000314,0.610962202554214517
0.479000000000000314,0.629235918998950594
0.480000000000000315,0.647182691812286714
0.481000000000000316,0.664801757093051560
0.482000000000000317,0.682092516018093731
0.483000000000000318,0.699054530460339385
0.484000000000000319,0.715687518649246401
0.485000000000000320,0.731991350875227820
0.486000000000000321,0.747966045239634392
0.487000000000000322,0.763611763451668035
0.488000000000000322,0.778928806673636842
0.489000000000000323,0.793917611415675073
0.490000000000000324,0.808578745481185912
0.491000000000000325,0.822912903963991083
0.492000000000000326,0.836920905298210505
0.493000000000000327,0.850603687361708660
0.494000000000000328,0.863962303633951434
0.495000000000000329,0.876997919408997184
0.496000000000000330,0.889711808064284737
0.497000000000000330,0.902105347385758094
0.498000000000000331,0.914180015949941471
0.499000000000000332,0.925937389563280755
0.500000000000000333,0.937379137759235315
0.501000000000000334,0.948507020353423824
0.502000000000000335,0.959322884057043801
0.503000000000000336,0.969828659148802563
0.504000000000000337,0.980026356205519478
0.505000000000000338,0.989918062891461892
0.506000000000000338,0.999505940806486803
0.507000000000000339,1.008792222392989935
0.508000000000000340,1.017779207901600591
0.509000000000000341,1.026469262415524497
0.510000000000000342,1.034864812933425693
0.511000000000000343,1.042968345510659978
0.512000000000000344,1.050782402458648068
0.513000000000000345,1.058309579602144002
0.514000000000000346,1.065552523594100576
0.515000000000000346,1.072513929287848722
0.516000000000000347,1.079196537166230652
0.517000000000000348,1.085603130827266671
0.518000000000000349,1.091736534526051461
0.519000000000000350,1.097599610772341583
0.520000000000000351,1.103195257983463629
0.521000000000000352,1.108526408192006318
0.522000000000000353,1.113596024807842477
0.523000000000000353,1.118407100433937540
0.524000000000000354,1.122962654735399690
0.525000000000000355,1.127265732361240058
0.526000000000000356,1.131319400918253448
0.527000000000000357,1.135126748996412305
0.528000000000000358,1.138690884245239454
0.529000000000000359,1.142014931500433761
0.530000000000000360,1.145102030960249762
0.531000000000000361,1.147955336410869887
0.532000000000000361,1.150578013500229702
0.533000000000000362,1.152973238059535444
0.534000000000000363,1.155144194471905417
0.535000000000000364,1.157094074087388957
0.536000000000000365,1.158826073683723035
0.537000000000000366,1.160343393972122161
0.538000000000000367,1.161649238147443253
0.539000000000000368,1.162746810481968041
0.540000000000000369,1.163639314962201299
0.541000000000000369,1.164329953967878639
0.542000000000000370,1.164821926992582801
0.543000000000000371,1.165118429405199496
0.544000000000000372,1.165222651251528241
0.545000000000000373,1.165137776095356514
0.546000000000000374,1.164866979898288024
0.547000000000000375,1.164413429937626976
0.548000000000000376,1.163780283761598699
0.549000000000000377,1.162970688181241830
0.550000000000000377,1.161987778298257279
0.551000000000000378,1.160834676568116786
0.552000000000000379,1.159514491897764454
0.553000000000000380,1.158030318777197198
0.554000000000000381,1.156385236444272824
0.555000000000000382,1.154582308082037212
0.556000000000000383,1.152624580047940217
0.557000000000000384,1.150515081134213524
0.558000000000000385,1.148256821858823384
0.559000000000000385,1.145852793786274804
0.560000000000000386,1.143305968877653234
0.561000000000000387,1.140619298869257836
0.562000000000000388,1.137795714679178172
0.563000000000000389,1.134838125841180156
0.564000000000000390,1.131749419965299541
0.565000000000000391,1.128532462224490329
0.566000000000000392,1.125190094866761026
0.567000000000000393,1.121725136752143914
0.568000000000000393,1.118140382913952902
0.569000000000000394,1.114438604143695999
0.570000000000000395,1.110622546599099314
0.571000000000000396,1.106694931434652585
0.572000000000000397,1.102658454454078285
0.573000000000000398,1.098515785784252241
0.574000000000000399,1.094269569569916722
0.575000000000000400,1.089922423688740372
0.576000000000000401,1.085476939486134107
0.577000000000000401,1.080935681529301862
0.578000000000000402,1.076301187380033442
0.579000000000000403,1.071575967385726358
0.580000000000000404,1.066762504488090180
0.581000000000000405,1.061863254049109084
0.582000000000000406,1.056880643693725030
0.583000000000000407,1.051817073168776595
0.584000000000000408,1.046674914217749386
0.585000000000000409,1.041456510470842423
0.586000000000000409,1.036164177349918392
0.587000000000000410,1.030800201987880804
0.588000000000000411,1.025366843162067720
0.589000000000000412,1.019866331241183977
0.590000000000000413,1.014300868145412871
0.591000000000000414,1.008672627319239679
0.592000000000000415,1.002983753716623072
0.593000000000000416,0.997236363798085224
0.594000000000000417,0.991432545539361998
0.595000000000000417,0.985574358451199672
0.596000000000000418,0.979663833609956791
0.597000000000000419,0.973702973698618246
0.598000000000000420,0.967693753057881301
0.599000000000000421,0.961638117746947740
0.600000000000000422,0.955537985613689855
0.601000000000000423,0.949395246373853197
0.602000000000000424,0.943211761698959039
0.603000000000000425,0.936989365312575595
0.604000000000000425,0.930729863094681642
0.605000000000000426,0.924435033193775291
0.606000000000000427,0.918106626146416582
0.607000000000000428,0.911746365003998749
0.608000000000000429,0.905355945466293166
0.609000000000000430,0.898937036021702829
0.610000000000000431,0.892491278093740070
0.611000000000000432,0.886020286193603623
0.612000000000000433,0.879525648078549493
0.613000000000000433,0.873008924915759876
0.614000000000000434,0.866471651451533154
0.615000000000000435,0.859915336185501089
0.616000000000000436,0.853341461549653957
0.617000000000000437,0.846751484091930018
0.618000000000000438,0.840146834664166953
