# SiO2-Amorphous_GLUSCA-JS
# h[nm],U(h)[kJ/mol]
0.149999999999999994,98.712338104023118035
0.150999999999999995,96.874845429633978711
0.151999999999999996,95.476417069452423902
0.152999999999999997,94.228810841237347518
0.153999999999999998,93.001684711985120657
0.154999999999999999,91.749488665750874361
0.156000000000000000,90.467889086036251456
0.157000000000000001,89.169033622186802290
0.158000000000000002,87.868512259644745654
0.159000000000000002,86.579319320012544381
0.160000000000000003,85.309793675917632072
0.161000000000000004,84.063642279741102925
0.162000000000000005,82.840900911196513334
0.163000000000000006,81.639173724046528946
0.164000000000000007,80.454803010638684668
0.165000000000000008,79.283811019897797223
0.166000000000000009,78.122567270086875624
0.167000000000000010,76.968195532835835593
0.168000000000000010,75.818763515587960455
0.169000000000000011,74.673307941144713595
0.170000000000000012,73.531746555875599825
0.171000000000000013,72.394721931970295259
0.172000000000000014,71.263413067284005820
0.173000000000000015,70.139341673157417745
0.174000000000000016,69.024191731858394405
0.175000000000000017,67.919653891814988356
0.176000000000000018,66.827300695838829370
0.177000000000000018,65.748494451006337158
0.178000000000000019,64.684326590750728769
0.179000000000000020,63.635585448351228877
0.180000000000000021,62.602748247704049334
0.181000000000000022,61.585992627024765511
0.182000000000000023,60.585222973150415271
0.183000000000000024,59.600107115643858435
0.184000000000000025,58.630119396327565084
0.185000000000000026,57.674586702468332078
0.186000000000000026,56.732734664512214806
0.187000000000000027,55.803731824937280237
0.188000000000000028,54.886730151756822238
0.189000000000000029,53.980900778887814795
0.190000000000000030,53.085464295647895483
0.191000000000000031,52.199715275507898582
0.192000000000000032,51.323041031158467717
0.193000000000000033,50.454934813416684847
0.194000000000000034,49.595003841950585866
0.195000000000000034,48.742972673725830646
0.196000000000000035,47.898682488330351248
0.197000000000000036,47.062086905635723610
0.198000000000000037,46.233244957882689619
0.199000000000000038,45.412311821857691996
0.200000000000000039,44.599527883223956337
0.201000000000000040,43.795206659347748257
0.202000000000000041,42.999722053392289922
0.203000000000000042,42.213495354559547934
0.204000000000000042,41.436982339971379474
0.205000000000000043,40.670660775010858856
0.206000000000000044,39.915018552657464568
0.207000000000000045,39.170542659654742579
0.208000000000000046,38.437709109057877299
0.209000000000000047,37.716973935316516986
0.210000000000000048,37.008765309786262776
0.211000000000000049,36.313476801462300614
0.212000000000000050,35.631461779659787226
0.213000000000000050,34.963028932088477063
0.214000000000000051,34.308438852956342657
0.215000000000000052,33.667901641013045833
0.216000000000000053,33.041575436402503385
0.217000000000000054,32.429565817414577111
0.218000000000000055,31.831925973295096099
0.219000000000000056,31.248657566787812812
0.220000000000000057,30.679712199659160632
0.221000000000000058,30.124993395745509162
0.222000000000000058,29.584359018732691027
0.223000000000000059,29.057624045641070154
0.224000000000000060,28.544563621580614665
0.225000000000000061,28.044916326532188577
0.226000000000000062,27.558387590502377407
0.227000000000000063,27.084653199221076392
0.228000000000000064,26.623362838458650259
0.229000000000000065,26.174143630913128789
0.230000000000000066,25.736603625363169812
0.231000000000000066,25.310335203318938824
0.232000000000000067,24.894918373674663314
0.233000000000000068,24.489923930825902687
0.234000000000000069,24.094916456334516397
0.235000000000000070,23.709457148481821065
0.236000000000000071,23.333106467939245476
0.237000000000000072,22.965426591300758474
0.238000000000000073,22.605983667370178836
0.239000000000000073,22.254349873887068867
0.240000000000000074,21.910105274821962240
0.241000000000000075,21.572839480492440600
0.242000000000000076,21.242153114565418548
0.243000000000000077,20.917659093537949389
0.244000000000000078,20.598983725552152180
0.245000000000000079,20.285767636419915760
0.246000000000000080,19.977666531533547101
0.247000000000000081,19.674351802939618494
0.248000000000000081,19.375510991277202777
0.249000000000000082,19.080848112548189022
0.250000000000000111,18.790083859814856737
0.251000000000000112,18.502955689927937044
0.252000000000000113,18.219217805291556544
0.253000000000000114,17.938641040488121803
0.254000000000000115,17.661012663327333883
0.255000000000000115,17.386136099565369761
0.256000000000000116,17.113830590172071311
0.257000000000000117,16.843930789617814980
0.258000000000000118,16.576286313216908042
0.259000000000000119,16.310761241108760800
0.260000000000000120,16.047233585989339133
0.261000000000000121,15.785594731230636611
0.262000000000000122,15.525748845549475874
0.263000000000000123,15.267612279914965612
0.264000000000000123,15.011112951919391989
0.265000000000000124,14.756189722384155161
0.266000000000000125,14.502791768533484174
0.267000000000000126,14.250877957645769811
0.268000000000000127,14.000416224687501909
0.269000000000000128,13.751382957049628430
0.270000000000000129,13.503762389141105160
0.271000000000000130,13.257546009249869812
0.272000000000000131,13.012731980759118855
0.273000000000000131,12.769324579504644390
0.274000000000000132,12.527333648778817832
0.275000000000000133,12.286774073227121562
0.276000000000000134,12.047665272643623524
0.277000000000000135,11.810030716452768473
0.278000000000000136,11.573897459463953652
0.279000000000000137,11.339295699303390208
0.280000000000000138,11.106258355763314327
0.281000000000000139,10.874820672160138813
0.282000000000000139,10.645019838661225364
0.283000000000000140,10.416894637422014824
0.284000000000000141,10.190485109271900654
0.285000000000000142,9.965832241596245922
0.286000000000000143,9.742977676983480606
0.287000000000000144,9.521963442138723366
0.288000000000000145,9.302831696507960046
0.289000000000000146,9.085624500009776838
0.290000000000000147,8.870383599232001259
0.291000000000000147,8.657150231420228437
0.292000000000000148,8.445964945561051707
0.293000000000000149,8.236867439845884320
0.294000000000000150,8.029896414789728709
0.295000000000000151,7.825089441273428648
0.296000000000000152,7.622482842776245882
0.297000000000000153,7.422111591069001868
0.298000000000000154,7.224009214643923649
0.299000000000000155,7.028207719167525624
0.300000000000000155,6.834737519255102534
0.301000000000000156,6.643627380880606559
0.302000000000000157,6.454904373752166968
0.303000000000000158,6.268593833002716664
0.304000000000000159,6.084719329564753920
0.305000000000000160,5.903302648619747295
0.306000000000000161,5.724363775534594190
0.307000000000000162,5.547920888720258681
0.308000000000000163,5.373990358870895712
0.309000000000000163,5.202586754065197105
0.310000000000000164,5.033722850235198720
0.311000000000000165,4.867409646531248413
0.312000000000000166,4.703656385135300155
0.313000000000000167,4.542470575097668828
0.314000000000000168,4.383858019795166427
0.315000000000000169,4.227822847630802627
0.316000000000000170,4.074367545617008979
0.317000000000000171,3.923492995505546865
0.318000000000000171,3.775198512147976970
0.319000000000000172,3.629481883790206975
0.320000000000000173,3.486339414024309580
0.321000000000000174,3.345765965139036346
0.322000000000000175,3.207755002628422947
0.323000000000000176,3.072298640634982370
0.324000000000000177,2.939387688120311815
0.325000000000000178,2.809011695571644207
0.326000000000000179,2.681159002067601271
0.327000000000000179,2.555816782540846877
0.328000000000000180,2.432971095088485747
0.329000000000000181,2.312606928194045786
0.330000000000000182,2.194708247736820272
0.331000000000000183,2.079258043675732637
0.332000000000000184,1.966238376305665669
0.333000000000000185,1.855630421994318269
0.334000000000000186,1.747414518317057075
0.335000000000000187,1.641570208516225149
0.336000000000000187,1.538076285219573958
0.337000000000000188,1.436910833360517836
0.338000000000000189,1.338051272249844548
0.339000000000000190,1.241474396755489540
0.340000000000000191,1.147156417553304442
0.341000000000000192,1.055073000417402040
0.342000000000000193,0.965199304524179902
0.343000000000000194,0.877510019749035086
0.344000000000000195,0.791979402939600008
0.345000000000000195,0.708581313153092585
0.346000000000000196,0.627289245849817378
0.347000000000000197,0.548076366037949070
0.348000000000000198,0.470915540368222529
0.349000000000000199,0.395779368180015245
0.350000000000000200,0.322640211502974894
0.351000000000000201,0.251470224020773681
0.352000000000000202,0.182241379005813858
0.353000000000000203,0.114925496235521507
0.354000000000000203,0.049494267902702019
0.355000000000000204,-0.014080716465966758
0.356000000000000205,-0.075827946067981128
0.357000000000000206,-0.135775965843130619
0.358000000000000207,-0.193953354433866354
0.359000000000000208,-0.250388703069597374
0.360000000000000209,-0.305110595355628955
0.361000000000000210,-0.358147587946766044
0.362000000000000210,-0.409528192085254705
0.363000000000000211,-0.459280855982168723
0.364000000000000212,-0.507433948021130399
0.365000000000000213,-0.554015740762942355
0.366000000000000214,-0.599054395729606393
0.367000000000000215,-0.642577948946064348
0.368000000000000216,-0.684614297218131607
0.369000000000000217,-0.725191185124863913
0.370000000000000218,-0.764336192704047734
0.371000000000000218,-0.802076723809297065
0.372000000000000219,-0.838439995117719605
0.373000000000000220,-0.873453025767204183
0.374000000000000221,-0.907142627602647300
0.375000000000000222,-0.939535396010703239
0.376000000000000223,-0.970657701323161093
0.377000000000000224,-1.000535680769100155
0.378000000000000225,-1.029195230956556628
0.379000000000000226,-1.056662000864695639
0.380000000000000226,-1.082961385328035320
0.381000000000000227,-1.108118518994380519
0.382000000000000228,-1.132158270738919947
0.383000000000000229,-1.155105238517025068
0.384000000000000230,-1.176983744638895768
0.385000000000000231,-1.197817831449650594
0.386000000000000232,-1.217631257398712030
0.387000000000000233,-1.236447493483028737
0.388000000000000234,-1.254289720048827217
0.389000000000000234,-1.271180823937287485
0.390000000000000235,-1.287143395959760683
0.391000000000000236,-1.302199728688657299
0.392000000000000237,-1.316371814550571617
0.393000000000000238,-1.329681344208587745
0.394000000000000239,-1.342149705221080236
0.395000000000000240,-1.353797980964850156
0.396000000000000241,-1.364646949810706555
0.397000000000000242,-1.374717084540014067
0.398000000000000242,-1.384028551991224987
0.399000000000000243,-1.392601212925562493
0.400000000000000244,-1.400454622101621860
0.401000000000000245,-1.407608028548879453
0.402000000000000246,-1.414080376030409925
0.403000000000000247,-1.419890303685594546
0.404000000000000248,-1.425056146843807880
0.405000000000000249,-1.429595938000438826
0.406000000000000250,-1.433527407946889820
0.407000000000000250,-1.436867987046561934
0.408000000000000251,-1.439634806649045196
0.409000000000000252,-1.441844700635069421
0.410000000000000253,-1.443514207085059509
0.411000000000000254,-1.444659570064360743
0.412000000000000255,-1.445296741518480976
0.413000000000000256,-1.445441383272022318
0.414000000000000257,-1.445108869125027784
0.415000000000000258,-1.444314287040986855
0.416000000000000258,-1.443072441420669483
0.417000000000000259,-1.441397855456437060
0.418000000000000260,-1.439304773561716377
0.419000000000000261,-1.436807163870643445
0.420000000000000262,-1.433918720802991320
0.421000000000000263,-1.430652867689806040
0.422000000000000264,-1.427022759455204071
0.423000000000000265,-1.423041285350113538
0.424000000000000266,-1.418721071733881844
0.425000000000000266,-1.414074484899712658
0.426000000000000267,-1.409113633940278554
0.427000000000000268,-1.403850373649807803
0.428000000000000269,-1.398296307459209409
0.429000000000000270,-1.392462790400953221
0.430000000000000271,-1.386360932100435761
0.431000000000000272,-1.380001599790903644
0.432000000000000273,-1.373395421348911905
0.433000000000000274,-1.366552788347620284
0.434000000000000274,-1.359483859125197647
0.435000000000000275,-1.352198561865808557
0.436000000000000276,-1.344706597690778382
0.437000000000000277,-1.337017443757532842
0.438000000000000278,-1.329140356364158393
0.439000000000000279,-1.321084374057444277
0.440000000000000280,-1.312858320742345875
0.441000000000000281,-1.304470808790963554
0.442000000000000282,-1.295930242149232026
0.443000000000000282,-1.287244819439460342
0.444000000000000283,-1.278422537057170461
0.445000000000000284,-1.269471192260562376
0.446000000000000285,-1.260398386251081915
0.447000000000000286,-1.251211527243758725
0.448000000000000287,-1.241917833525770787
0.449000000000000288,-1.232524336502131890
0.450000000000000289,-1.223037883727080333
0.451000000000000290,-1.213465141920140322
0.452000000000000290,-1.203812599965689234
0.453000000000000291,-1.194086571894961146
0.454000000000000292,-1.184293199849557388
0.455000000000000293,-1.174438457025453797
0.456000000000000294,-1.164528150596676692
0.457000000000000295,-1.154567924617804442
0.458000000000000296,-1.144563262904463308
0.459000000000000297,-1.134519491891156751
0.460000000000000298,-1.124441783465662592
0.461000000000000298,-1.114335157779403840
0.462000000000000299,-1.104204486033158794
0.463000000000000300,-1.094054493237536230
0.464000000000000301,-1.083889760947716718
0.465000000000000302,-1.073714729971961157
0.466000000000000303,-1.063533703053393342
0.467000000000000304,-1.053350847524705980
0.468000000000000305,-1.043170197935344712
0.469000000000000306,-1.032995658650823101
0.470000000000000306,-1.022831006423909894
0.471000000000000307,-1.012679892937272674
0.472000000000000308,-1.002545847317429573
0.473000000000000309,-0.992432278619703956
0.474000000000000310,-0.982342478283985576
0.475000000000000311,-0.972279622561095125
0.476000000000000312,-0.962246774909641500
0.477000000000000313,-0.952246888363154298
0.478000000000000314,-0.942282807867416472
0.479000000000000314,-0.932357272587922892
0.480000000000000315,-0.922472918187315249
0.481000000000000316,-0.912632279072822294
0.482000000000000317,-0.902837790613586266
0.483000000000000318,-0.893091791327922380
0.484000000000000319,-0.883396525040461511
0.485000000000000320,-0.873754143009205508
0.486000000000000321,-0.864166706022536424
0.487000000000000322,-0.854636186466211867
0.488000000000000322,-0.845164470360370013
0.489000000000000323,-0.835753359366701587
0.490000000000000324,-0.826404572765793710
0.491000000000000325,-0.817119749404784601
0.492000000000000326,-0.807900449615406302
0.493000000000000327,-0.798748157102597389
0.494000000000000328,-0.789664280803742624
0.495000000000000329,-0.780650156718746269
0.496000000000000330,-0.771707049711034765
0.497000000000000330,-0.762836155279731920
0.498000000000000331,-0.754038601303048339
0.499000000000000332,-0.745315449753222170
0.500000000000000333,-0.736667698383085101
0.501000000000000334,-0.728096282384457227
0.502000000000000335,-0.719602076018646342
0.503000000000000336,-0.711185894219183323
0.504000000000000337,-0.702848494167049531
0.505000000000000338,-0.694590576838603480
0.506000000000000338,-0.686412788526441608
0.507000000000000339,-0.678315722333427518
0.508000000000000340,-0.670299919640092168
0.509000000000000341,-0.662365871545731677
0.510000000000000342,-0.654514020283339049
0.511000000000000343,-0.646744760608721991
0.512000000000000344,-0.639058441163980362
0.513000000000000345,-0.631455365815650538
0.514000000000000346,-0.623935794967785951
0.515000000000000346,-0.616499946850177283
0.516000000000000347,-0.609147998782035849
0.517000000000000348,-0.601880088411415604
0.518000000000000349,-0.594696314930569736
0.519000000000000350,-0.587596740267624873
0.520000000000000351,-0.580581390254735097
0.521000000000000352,-0.573650255773101803
0.522000000000000353,-0.566803293875039915
0.523000000000000353,-0.560040428883431973
0.524000000000000354,-0.553361553468842748
0.525000000000000355,-0.546766529704547422
0.526000000000000356,-0.540255190099768412
0.527000000000000357,-0.533827338611440716
0.528000000000000358,-0.527482751634702485
0.529000000000000359,-0.521221178972504195
0.530000000000000360,-0.515042344784501616
0.531000000000000361,-0.508945948515624247
0.532000000000000361,-0.502931665804509875
0.533000000000000362,-0.496999149372160054
0.534000000000000363,-0.491148029891037674
0.535000000000000364,-0.485377916834934087
0.536000000000000365,-0.479688399309850744
0.537000000000000366,-0.474079046866204667
0.538000000000000367,-0.468549410292583624
0.539000000000000368,-0.463099022391418924
0.540000000000000369,-0.457727398736730684
0.541000000000000369,-0.452434038414343764
0.542000000000000370,-0.447218424744732890
0.543000000000000371,-0.442080025988854541
0.544000000000000372,-0.437018296037189891
0.545000000000000373,-0.432032675082281048
0.546000000000000374,-0.427122590275019753
0.547000000000000375,-0.422287456364948521
0.548000000000000376,-0.417526676324866508
0.549000000000000377,-0.412839641959950931
0.550000000000000377,-0.408225734501702853
0.551000000000000378,-0.403684325186923598
0.552000000000000379,-0.399214775822030854
0.553000000000000380,-0.394816439332918212
0.554000000000000381,-0.390488660300621238
0.555000000000000382,-0.386230775483077715
0.556000000000000383,-0.382042114323139559
0.557000000000000384,-0.377921999443197543
0.558000000000000385,-0.373869747126530094
0.559000000000000385,-0.369884667785724597
0.560000000000000386,-0.365966066418347225
0.561000000000000387,-0.362113243050102063
0.562000000000000388,-0.358325493165722986
0.563000000000000389,-0.354602108127823612
0.564000000000000390,-0.350942375583927046
0.565000000000000391,-0.347345579861895570
0.566000000000000392,-0.343811002353979711
0.567000000000000393,-0.340337921889742046
0.568000000000000393,-0.336925615097997233
0.569000000000000394,-0.333573356758050832
0.570000000000000395,-0.330280420140419639
0.571000000000000396,-0.327046077337224628
0.572000000000000397,-0.323869599582512269
0.573000000000000398,-0.320750257562631869
0.574000000000000399,-0.317687321716954296
0.575000000000000400,-0.314680062529055948
0.576000000000000401,-0.311727750808595494
0.577000000000000401,-0.308829657964099946
0.578000000000000402,-0.305985056266797784
0.579000000000000403,-0.303193219105701794
0.580000000000000404,-0.300453421234181395
0.581000000000000405,-0.297764939008104856
0.582000000000000406,-0.295127050615829389
0.583000000000000407,-0.292539036300145772
0.584000000000000408,-0.290000178572390355
0.585000000000000409,-0.287509762418885151
0.586000000000000409,-0.285067075499855938
0.587000000000000410,-0.282671408341046759
0.588000000000000411,-0.280322054518112040
0.589000000000000412,-0.278018310834048155
0.590000000000000413,-0.275759477489727289
0.591000000000000414,-0.273544858247755651
0.592000000000000415,-0.271373760589788848
0.593000000000000416,-0.269245495867440343
0.594000000000000417,-0.267159379446949063
0.595000000000000417,-0.265114730847780256
0.596000000000000418,-0.263110873875214424
0.597000000000000419,-0.261147136747191255
0.598000000000000420,-0.259222852215420463
0.599000000000000421,-0.257337357681008627
0.600000000000000422,-0.255489995304657658
0.601000000000000423,-0.253680112111592471
0.602000000000000424,-0.251907060091374535
0.603000000000000425,-0.250170196292692493
0.604000000000000425,-0.248468882913257305
0.605000000000000426,-0.246802487384954417
0.606000000000000427,-0.245170382454372421
0.607000000000000428,-0.243571946258744065
0.608000000000000429,-0.242006562397590941
0.609000000000000430,-0.240473619999966720
0.610000000000000431,-0.238972513787615443
0.611000000000000432,-0.237502644134016894
0.612000000000000433,-0.236063417119480062
0.613000000000000433,-0.234654244582410687
0.614000000000000434,-0.233274544166813008
