# SiO2-Amorphous_VALSCA-JS
# h[nm],U(h)[kJ/mol]
0.149999999999999994,112.238357349526523876
0.150999999999999995,109.885363598280861197
0.151999999999999996,108.328857702218812165
0.152999999999999997,106.927012879341873486
0.153999999999999998,105.449006660963775062
0.154999999999999999,103.856836421460343445
0.156000000000000000,102.187257424761341440
0.157000000000000001,100.492844552810510095
0.158000000000000002,98.816533394966597825
0.159000000000000002,97.183989548008170800
0.160000000000000003,95.604558722648178559
0.161000000000000004,94.075575527437877099
0.162000000000000005,92.587277337712450276
0.163000000000000006,91.127034474411573228
0.164000000000000007,89.682437574494286991
0.165000000000000008,88.243220304097775397
0.166000000000000009,86.802198104527803935
0.167000000000000010,85.355472053690007783
0.168000000000000010,83.902143901080890487
0.169000000000000011,82.443751844568154752
0.170000000000000012,80.983588659396588127
0.171000000000000013,79.526016302097644939
0.172000000000000014,78.075849863049000987
0.173000000000000015,76.637850860525006169
0.174000000000000016,75.216345459724749389
0.175000000000000017,73.814966344801391074
0.176000000000000018,72.436506335770346254
0.177000000000000018,71.082866019739498142
0.178000000000000019,69.755075363114045217
0.179000000000000020,68.453369388111838134
0.180000000000000021,67.177299650241820927
0.181000000000000022,65.925865768643006959
0.182000000000000023,64.697654146650521056
0.183000000000000024,63.490973935736199962
0.184000000000000025,62.303983022474028530
0.185000000000000026,61.134799227411789957
0.186000000000000026,59.981593935663489958
0.187000000000000027,58.842667017457834788
0.188000000000000028,57.716503159474726203
0.189000000000000029,56.601810650061665342
0.190000000000000030,55.497544288701966764
0.191000000000000031,54.402914471324720580
0.192000000000000032,53.317384686412040651
0.193000000000000033,52.240659687162590785
0.194000000000000034,51.172666522063366301
0.195000000000000034,50.113530444286610077
0.196000000000000035,49.063547507781208878
0.197000000000000036,48.023155417645106979
0.198000000000000037,46.992903952179794658
0.199000000000000038,45.973426027330702937
0.200000000000000039,44.965410240601713099
0.201000000000000040,43.969575517437377243
0.202000000000000041,42.986648292385005732
0.203000000000000042,42.017342491967099249
0.204000000000000042,41.062342446465116552
0.205000000000000043,40.122288742979051790
0.206000000000000044,39.197766940628284260
0.207000000000000045,38.289298998544175845
0.208000000000000046,37.397337216024553186
0.209000000000000047,36.522260449404008398
0.210000000000000048,35.664372349379064531
0.211000000000000049,34.823901353347167742
0.212000000000000050,34.001002167560884004
0.213000000000000050,33.195758481560559972
0.214000000000000051,32.408186670633917004
0.215000000000000052,31.638240259401584353
0.216000000000000053,30.885814939705632298
0.217000000000000054,30.150753957658501747
0.218000000000000055,29.432853707072901273
0.219000000000000056,28.731869388796287268
0.220000000000000057,28.047520617135727861
0.221000000000000058,27.379496875149101243
0.222000000000000058,26.727462739774701106
0.223000000000000059,26.091062815371003580
0.224000000000000060,25.469926330111672286
0.225000000000000061,24.863671363778585999
0.226000000000000062,24.271908687818534389
0.227000000000000063,23.694245209126115981
0.228000000000000064,23.130287017966146834
0.229000000000000065,22.579642047856331999
0.230000000000000066,22.041922361218631465
0.231000000000000066,21.516746079301231731
0.232000000000000067,21.003738978410826377
0.233000000000000068,20.502535777007771856
0.234000000000000069,20.012781139838594413
0.235000000000000070,19.534130426135206449
0.236000000000000071,19.066250209118173586
0.237000000000000072,18.608818593709692379
0.238000000000000073,18.161525358594055035
0.239000000000000073,17.724071947648717185
0.240000000000000074,17.296171334386862384
0.241000000000000075,16.877547781478675404
0.242000000000000076,16.467936515710668743
0.243000000000000077,16.067083336957274753
0.244000000000000078,15.674744177920677757
0.245000000000000079,15.290684629581345888
0.246000000000000080,14.914679445524878787
0.247000000000000081,14.546512036594119621
0.248000000000000081,14.185973965680110709
0.249000000000000082,13.832864450924807542
0.250000000000000111,13.486989884173254950
0.251000000000000112,13.148163370190385280
0.252000000000000113,12.816204290950064859
0.253000000000000114,12.490937898215165092
0.254000000000000115,12.172194936652513064
0.255000000000000115,11.859811298866571150
0.256000000000000116,11.553627712983310261
0.257000000000000117,11.253489462767550577
0.258000000000000118,10.959246139706644740
0.259000000000000119,10.670751426033266540
0.260000000000000120,10.387862907284192815
0.261000000000000121,10.110441912693229227
0.262000000000000122,9.838353381486536264
0.263000000000000123,9.571465752982208031
0.264000000000000123,9.309650878284241315
0.265000000000000124,9.052783951298952303
0.266000000000000125,8.800743456782255336
0.267000000000000126,8.553411133143358214
0.268000000000000127,8.310671947778441648
0.269000000000000128,8.072414082782453093
0.270000000000000129,7.838528928982516852
0.271000000000000130,7.608911086348814301
0.272000000000000131,7.383458368964559426
0.273000000000000131,7.162071812871569243
0.274000000000000132,6.944655685249661481
0.275000000000000133,6.731117493533237628
0.276000000000000134,6.521367993214973069
0.277000000000000135,6.315321193232733776
0.278000000000000136,6.112894357978792215
0.279000000000000137,5.914008005110048316
0.280000000000000138,5.718585898472435147
0.281000000000000139,5.526555035580338782
0.282000000000000139,5.337845629213456178
0.283000000000000140,5.152391082806962785
0.284000000000000141,4.970127959416665853
0.285000000000000142,4.790995944138396467
0.286000000000000143,4.614937799950082464
0.287000000000000144,4.441899317026022587
0.288000000000000145,4.271829255645150702
0.289000000000000146,4.104679282880189461
0.290000000000000147,3.940403903310643496
0.291000000000000147,3.778960384052270971
0.292000000000000148,3.620308674436897522
0.293000000000000149,3.464411320711962894
0.294000000000000150,3.311233376157196151
0.295000000000000151,3.160742307038399090
0.296000000000000152,3.012907894834925937
0.297000000000000153,2.867702135188984869
0.298000000000000154,2.725099134031441661
0.299000000000000155,2.585075001341177181
0.300000000000000155,2.447607742993301638
0.301000000000000156,2.312677151146400156
0.302000000000000157,2.180264693610364013
0.303000000000000158,2.050353402625476829
0.304000000000000159,1.922927763469471696
0.305000000000000160,1.797973603293887335
0.306000000000000161,1.675477980573353731
0.307000000000000162,1.555429075532577254
0.308000000000000163,1.437816081895725517
0.309000000000000163,1.322629100281789594
0.310000000000000164,1.209859033547791451
0.311000000000000165,1.099497484359546418
0.312000000000000166,0.991536655247183596
0.313000000000000167,0.885969251380082090
0.314000000000000168,0.782788386273486791
0.315000000000000169,0.681987490616754899
0.316000000000000170,0.583560224391309057
0.317000000000000171,0.487500392424999540
0.318000000000000171,0.393801863508796757
0.319000000000000172,0.302458493181298971
0.320000000000000173,0.213464050267406835
0.321000000000000174,0.126812147238612560
0.322000000000000175,0.042496174444560483
0.323000000000000176,-0.039490761751411696
0.324000000000000177,-0.119155896916154247
0.325000000000000178,-0.196506862568444157
0.326000000000000179,-0.271551736291524903
0.327000000000000179,-0.344299087962268768
0.328000000000000180,-0.414758022135440552
0.329000000000000181,-0.482938216632898432
0.330000000000000182,-0.548849957397840038
0.331000000000000183,-0.612504169684184530
0.332000000000000184,-0.673912445659484494
0.333000000000000185,-0.733087068507905393
0.334000000000000186,-0.790041033126684722
0.335000000000000187,-0.844788063515723109
0.336000000000000187,-0.897342626965493162
0.337000000000000188,-0.947719945152907584
0.338000000000000189,-0.995936002259105613
0.339000000000000190,-1.042007550226222934
0.340000000000000191,-1.085952111272846077
0.341000000000000192,-1.127787977790150942
0.342000000000000193,-1.167534209741996731
0.343000000000000194,-1.205210629693433733
0.344000000000000195,-1.240837815592235049
0.345000000000000195,-1.274437091428556768
0.346000000000000196,-1.306030515896896560
0.347000000000000197,-1.335640869184019364
0.348000000000000198,-1.363291638005285522
0.349000000000000199,-1.389006999010133470
0.350000000000000200,-1.412811800675889184
0.351000000000000201,-1.434731543806720300
0.352000000000000202,-1.454792360752366287
0.353000000000000203,-1.473020993458627803
0.354000000000000203,-1.489444770458881129
0.355000000000000204,-1.504091582912786107
0.356000000000000205,-1.516989859795451867
0.357000000000000206,-1.528168542337076996
0.358000000000000207,-1.537657057809460825
0.359000000000000208,-1.545485292752824424
0.360000000000000209,-1.551683565732536296
0.361000000000000210,-1.556282599711887871
0.362000000000000210,-1.559313494123567567
0.363000000000000211,-1.560807696718732540
0.364000000000000212,-1.560796975269154840
0.365000000000000213,-1.559313389194068478
0.366000000000000214,-1.556389261179986772
0.367000000000000215,-1.552057148858003499
0.368000000000000216,-1.546349816599736027
0.369000000000000217,-1.539300207489369798
0.370000000000000218,-1.530941415526082539
0.371000000000000218,-1.521306658107466347
0.372000000000000219,-1.510429248841536065
0.373000000000000220,-1.498342570731477696
0.374000000000000221,-1.485080049774240463
0.375000000000000222,-1.470675129010867943
0.376000000000000223,-1.455161243063696208
0.377000000000000224,-1.438571793192407355
0.378000000000000225,-1.420940122898217250
0.379000000000000226,-1.402299494102752897
0.380000000000000226,-1.382683063925612910
0.381000000000000227,-1.362123862081831671
0.382000000000000228,-1.340654768918391415
0.383000000000000229,-1.318308494106271711
0.384000000000000230,-1.295117556002397974
0.385000000000000231,-1.271114261693852443
0.386000000000000232,-1.246330687734343190
0.387000000000000233,-1.220798661581321998
0.388000000000000234,-1.194549743739956593
0.389000000000000234,-1.167615210618720312
0.390000000000000235,-1.140026038099387629
0.391000000000000236,-1.111812885822870856
0.392000000000000237,-1.083006082190666630
0.393000000000000238,-1.053635610080448259
0.394000000000000239,-1.023731093272786108
0.395000000000000240,-0.993321783584988127
0.396000000000000241,-0.962436548706720352
0.397000000000000242,-0.931103860730969735
0.398000000000000242,-0.899351785373107560
0.399000000000000243,-0.867207971869597527
0.400000000000000244,-0.834699643547200276
0.401000000000000245,-0.801853589052780924
0.402000000000000246,-0.768696154232883067
0.403000000000000247,-0.735253234651750520
0.404000000000000248,-0.701550268735838145
0.405000000000000249,-0.667612231532252465
0.406000000000000250,-0.633463629068076850
0.407000000000000250,-0.599128493297193643
0.408000000000000251,-0.564630377620675805
0.409000000000000252,-0.529992352966643709
0.410000000000000253,-0.495237004415059523
0.411000000000000254,-0.460386428352769550
0.412000000000000255,-0.425462230143871356
0.413000000000000256,-0.390485522300337951
0.414000000000000257,-0.355476923137618972
0.415000000000000258,-0.320456555900039575
0.416000000000000258,-0.285444048340522227
0.417000000000000259,-0.250458532739328832
0.418000000000000260,-0.215518646346421067
0.419000000000000261,-0.180642532232098224
0.420000000000000262,-0.145847840530637207
0.421000000000000263,-0.111151730061748569
0.422000000000000264,-0.076570870314748740
0.423000000000000265,-0.042121443780454550
0.424000000000000266,-0.007819148616106197
0.425000000000000266,0.026320798371490817
0.426000000000000267,0.060283658438914679
0.427000000000000268,0.094055167329531869
0.428000000000000269,0.127621531421374723
0.429000000000000270,0.160969423613251283
0.430000000000000271,0.194085978962810962
0.431000000000000272,0.226958790089766133
0.432000000000000273,0.259575902357446209
0.433000000000000274,0.291925808845427626
0.434000000000000274,0.323997445125861927
0.435000000000000275,0.355780183855701870
0.436000000000000276,0.387263829196808462
0.437000000000000277,0.418438611075700961
0.438000000000000278,0.449295179294253333
0.439000000000000279,0.479824597502491901
0.440000000000000280,0.510018337044302883
0.441000000000000281,0.539868270686549190
0.442000000000000282,0.569366666241744923
0.443000000000000282,0.598506180094306783
0.444000000000000283,0.627279850639861913
0.445000000000000284,0.655681091646970748
0.446000000000000285,0.683703685550331786
0.447000000000000286,0.711341776683988014
0.448000000000000287,0.738589864463184975
0.449000000000000288,0.765442796522767921
0.450000000000000289,0.791895761820126554
0.451000000000000290,0.817944283710113518
0.452000000000000290,0.843584212999221927
0.453000000000000291,0.868811720986034763
0.454000000000000292,0.893623292494571841
0.455000000000000293,0.918015718907048139
0.456000000000000294,0.941986091202126063
0.457000000000000295,0.965531793004610561
0.458000000000000296,0.988650493652202700
0.459000000000000297,1.011340141284700511
0.460000000000000298,1.033598955960807420
0.461000000000000298,1.055425422807402258
0.462000000000000299,1.076818285205958237
0.463000000000000300,1.097776538020553305
0.464000000000000301,1.118299420871621930
0.465000000000000302,1.138386411459446190
0.466000000000000303,1.158037218941182056
0.467000000000000304,1.177251777364931140
0.468000000000000305,1.196030239164191711
0.469000000000000306,1.214372968715913714
0.470000000000000306,1.232280535964981549
0.471000000000000307,1.249753710118044037
0.472000000000000308,1.266793453409132297
0.473000000000000309,1.283400914939571313
0.474000000000000310,1.299577424594352770
0.475000000000000311,1.315324487037103030
0.476000000000000312,1.330643775785432803
0.477000000000000313,1.345537127368583441
0.478000000000000314,1.360006535568838215
0.479000000000000314,1.374054145748178080
0.480000000000000315,1.387682249261559031
0.481000000000000316,1.400893277957894201
0.482000000000000317,1.413689798769870887
0.483000000000000318,1.426074508393467166
0.484000000000000319,1.438050228058017188
0.485000000000000320,1.449619898387444650
0.486000000000000321,1.460786574353318823
0.487000000000000322,1.471553420320122152
0.488000000000000322,1.481923705183177065
0.489000000000000323,1.491900797599391870
0.490000000000000324,1.501488161311105518
0.491000000000000325,1.510689350563023670
0.492000000000000326,1.519508005612325574
0.493000000000000327,1.527947848331766778
0.494000000000000328,1.536012677905682633
0.495000000000000329,1.543706366618624148
0.496000000000000330,1.551032855736318883
0.497000000000000330,1.557996151478576285
0.498000000000000331,1.564600321083723600
0.499000000000000332,1.570849488964021434
0.500000000000000333,1.576747832951537642
0.501000000000000334,1.582299580633879987
0.502000000000000335,1.587509005779069726
0.503000000000000336,1.592380424848891085
0.504000000000000337,1.596918193599954794
0.505000000000000338,1.601126703771650117
0.506000000000000338,1.605010379860166037
0.507000000000000339,1.608573675977711614
0.508000000000000340,1.611821072796017162
0.509000000000000341,1.614757074573148099
0.510000000000000342,1.617386206262712234
0.511000000000000343,1.619713010704410205
0.512000000000000344,1.621742045894936313
0.513000000000000345,1.623477882338161038
0.514000000000000346,1.624925100473529893
0.515000000000000346,1.626088288181599228
0.516000000000000347,1.626972038365599449
0.517000000000000348,1.627580946607869450
0.518000000000000349,1.627919608900095794
0.519000000000000350,1.627992619446138489
0.520000000000000351,1.627804568536322494
0.521000000000000352,1.627360040492016324
0.522000000000000353,1.626663611679322496
0.523000000000000353,1.625719848590701844
0.524000000000000354,1.624533305993333787
0.525000000000000355,1.623108525143035497
0.526000000000000356,1.621450032062542901
0.527000000000000357,1.619562335882941184
0.528000000000000358,1.617449927247093466
0.529000000000000359,1.615117276773816002
0.530000000000000360,1.612568833581670802
0.531000000000000361,1.609809023871125788
0.532000000000000361,1.606842249563961378
0.533000000000000362,1.603672886998669167
0.534000000000000363,1.600305285680752032
0.535000000000000364,1.596743767086674426
0.536000000000000365,1.592992623520373296
0.537000000000000366,1.589056117021117487
0.538000000000000367,1.584938478321623156
0.539000000000000368,1.580643905855226183
0.540000000000000369,1.576176564811056613
0.541000000000000369,1.571540586236028103
0.542000000000000370,1.566740066182589208
0.543000000000000371,1.561779064901117620
0.544000000000000372,1.556661606075859350
0.545000000000000373,1.551391676103371031
0.546000000000000374,1.545973223412384190
0.547000000000000375,1.540410157824048776
0.548000000000000376,1.534706349951514337
0.549000000000000377,1.528865630637839867
0.550000000000000377,1.522891790431214254
0.551000000000000378,1.516788579096486789
0.552000000000000379,1.510559705162044519
0.553000000000000380,1.504208835501042341
0.554000000000000381,1.497739594946063679
0.555000000000000382,1.491155565936235661
0.556000000000000383,1.484460288195920130
0.557000000000000384,1.477657258444013078
0.558000000000000385,1.470749930133016248
0.559000000000000385,1.463741713216953233
0.560000000000000386,1.456635973947288942
0.561000000000000387,1.449436034695994469
0.562000000000000388,1.442145173804921576
0.563000000000000389,1.434766625460653255
0.564000000000000390,1.427303579594049854
0.565000000000000391,1.419759181803664339
0.566000000000000392,1.412136533302290164
0.567000000000000393,1.404438690885825292
0.568000000000000393,1.396668666923771562
0.569000000000000394,1.388829429370556756
0.570000000000000395,1.380923901797049158
0.571000000000000396,1.372954963441483045
0.572000000000000397,1.364925449279132064
0.573000000000000398,1.356838150110095897
0.574000000000000399,1.348695812664452820
0.575000000000000400,1.340501139724220359
0.576000000000000401,1.332256790261434620
0.577000000000000401,1.323965379591733216
0.578000000000000402,1.315629479542856695
0.579000000000000403,1.307251618637484292
0.580000000000000404,1.298834282289765607
0.581000000000000405,1.290379913015064606
0.582000000000000406,1.281890910652300652
0.583000000000000407,1.273369632598366108
0.584000000000000408,1.264818394054117778
0.585000000000000409,1.256239468281394212
0.586000000000000409,1.247635086870565679
0.587000000000000410,1.239007440018143003
0.588000000000000411,1.230358676813962493
0.589000000000000412,1.221690905537456295
0.590000000000000413,1.213006193962606893
0.591000000000000414,1.204306569671087956
0.592000000000000415,1.195594020373206723
0.593000000000000416,1.186870494236201612
0.594000000000000417,1.178137900219500045
0.595000000000000417,1.169398108416535687
0.596000000000000418,1.160652950402739414
0.597000000000000419,1.151904219589336531
0.598000000000000420,1.143153671582574971
0.599000000000000421,1.134403024548032990
0.600000000000000422,1.125653959579663965
0.601000000000000423,1.116908121073253435
0.602000000000000424,1.108167117103944888
0.603000000000000425,1.099432519807519437
0.604000000000000425,1.090705865765152716
0.605000000000000426,1.081988656391328574
0.606000000000000427,1.073282358324594288
0.607000000000000428,1.064588403820975415
0.608000000000000429,1.055908191149621089
0.609000000000000430,1.047243084990617801
0.610000000000000431,1.038594416834524248
0.611000000000000432,1.029963485383510680
0.612000000000000433,1.021351556953837392
0.613000000000000433,1.012759865879382826
0.614000000000000434,1.004189614916097595
0.615000000000000435,0.995641975647093225
0.616000000000000436,0.987118088888190193
0.617000000000000437,0.978619065093719653
0.618000000000000438,0.970145984762388780
