# SiO2-Amorphous_EST-JS
# h[nm],U(h)[kJ/mol]
0.149999999999999994,103.107785675184430829
0.150999999999999995,100.938516543243594015
0.151999999999999996,99.360169559417897744
0.152999999999999997,97.961437205117263716
0.153999999999999998,96.564188114484835523
0.154999999999999999,95.113547410660018500
0.156000000000000000,93.612640869353597850
0.157000000000000001,92.085883332997440220
0.158000000000000002,90.559985984622059618
0.159000000000000002,89.055538301015673142
0.160000000000000003,87.584551477431020317
0.161000000000000004,86.151067142926649467
0.162000000000000005,84.753081307497026842
0.163000000000000006,83.384783260970920082
0.164000000000000007,82.038587082752783886
0.165000000000000008,80.706727616751038568
0.166000000000000009,79.382364981375033608
0.167000000000000010,78.060234758877712125
0.168000000000000010,76.736924273935130714
0.169000000000000011,75.410868599822592273
0.170000000000000012,74.082156189341588970
0.171000000000000013,72.752221735278226333
0.172000000000000014,71.423488259360084385
0.173000000000000015,70.099004606619544688
0.174000000000000016,68.782110170469280774
0.175000000000000017,67.476146575386636073
0.176000000000000018,66.184226424311503933
0.177000000000000018,64.909061977997424719
0.178000000000000019,63.652851504297075280
0.179000000000000020,62.417217674830645535
0.180000000000000021,61.203190440373951731
0.181000000000000022,60.011225952429711583
0.182000000000000023,58.841253024493518353
0.183000000000000024,57.692739097008221449
0.184000000000000025,56.564768486649313672
0.185000000000000026,55.456126708993636498
0.186000000000000026,54.365385747953361317
0.187000000000000027,53.290986222366257152
0.188000000000000028,52.231313413184139449
0.189000000000000029,51.184765028251938190
0.190000000000000030,50.149809376359748114
0.191000000000000031,49.125033290761990656
0.192000000000000032,48.109179685969969853
0.193000000000000033,47.101175057440343608
0.194000000000000034,46.100147552588460087
0.195000000000000034,45.105436466131891393
0.196000000000000035,44.116594156700443818
0.197000000000000036,43.133381458420885224
0.198000000000000037,42.155757683602864461
0.199000000000000038,41.183866292459505587
0.200000000000000039,40.218017253455940363
0.201000000000000040,39.258667042483189391
0.202000000000000041,38.306397138328520668
0.203000000000000042,37.361891772262318057
0.204000000000000042,36.425915586173346128
0.205000000000000043,35.499291750653526378
0.206000000000000044,34.582880994877370995
0.207000000000000045,33.677561906332655894
0.208000000000000046,32.784212772014647896
0.209000000000000047,31.903695154591598993
0.210000000000000048,31.036839327802084654
0.211000000000000049,30.184431635093641688
0.212000000000000050,29.347203784101445478
0.213000000000000050,28.525824046627491271
0.214000000000000051,27.720890298778520844
0.215000000000000052,26.932924808227021174
0.216000000000000053,26.162370654473551923
0.217000000000000054,25.409589652786721103
0.218000000000000055,24.674861642452285082
0.219000000000000056,23.958384994366976883
0.220000000000000057,23.260278191187772734
0.221000000000000058,22.580582334566841496
0.222000000000000058,21.919264437877654217
0.223000000000000059,21.276221368749265395
0.224000000000000060,20.651284313196406117
0.225000000000000061,20.044223641750456011
0.226000000000000062,19.454754067397178829
0.227000000000000063,18.882539995000833244
0.228000000000000064,18.327200971979060284
0.229000000000000065,17.788317160067379064
0.230000000000000066,17.265434757901168439
0.231000000000000066,16.758071313699979044
0.232000000000000067,16.265720876455919353
0.233000000000000068,15.787858942620065505
0.234000000000000069,15.323947163290313256
0.235000000000000070,14.873437784292685038
0.236000000000000071,14.435777798296026475
0.237000000000000072,14.010412794200423292
0.238000000000000073,13.596790494499989777
0.239000000000000073,13.194363976157479357
0.240000000000000074,12.802594574761869239
0.241000000000000075,12.420954475405054040
0.242000000000000076,12.048928996839013195
0.243000000000000077,11.686018578099574228
0.244000000000000078,11.331740478944496431
0.245000000000000079,10.985630207190741459
0.246000000000000080,10.647242687388860816
0.247000000000000081,10.316153186277315257
0.248000000000000081,9.991958011156633290
0.249000000000000082,9.674274997745829552
0.250000000000000111,9.362743804266481007
0.251000000000000112,9.057026028475528179
0.252000000000000113,8.756805164164237709
0.253000000000000114,8.461786413288853836
0.254000000000000115,8.171696369418642192
0.255000000000000115,7.886282587607294836
0.256000000000000116,7.605313055131111000
0.257000000000000117,7.328575576812480286
0.258000000000000118,7.055877087876856635
0.259000000000000119,6.787042906488906624
0.260000000000000120,6.521915937292931176
0.261000000000000121,6.260355836455371303
0.262000000000000122,6.002238147881579167
0.263000000000000123,5.747453419464929603
0.264000000000000123,5.495906307429183180
0.265000000000000124,5.247514676051634908
0.266000000000000125,5.002208699308790862
0.267000000000000126,4.759929970272470001
0.268000000000000127,4.520630623404106707
0.269000000000000128,4.284272474252218466
0.270000000000000129,4.050826180452196112
0.271000000000000130,3.820270427360460186
0.272000000000000131,3.592591141127122967
0.273000000000000131,3.367780731521472060
0.274000000000000132,3.145837366373383404
0.275000000000000133,2.926764279079532738
0.276000000000000134,2.710569110245292901
0.277000000000000135,2.497263284190699206
0.278000000000000136,2.286861420738900641
0.279000000000000137,2.079380782428361663
0.280000000000000138,1.874840757043036321
0.281000000000000139,1.673262375135850188
0.282000000000000139,1.474667862029568566
0.283000000000000140,1.279080223612282685
0.284000000000000141,1.086522865101880786
0.285000000000000142,0.897019241832246017
0.286000000000000143,0.710592541012578627
0.287000000000000144,0.527265393328311460
0.288000000000000145,0.347059613185445426
0.289000000000000146,0.169995966349852617
0.290000000000000147,-0.003906036304699478
0.291000000000000147,-0.174628320250027030
0.292000000000000148,-0.342154405282651619
0.293000000000000149,-0.506469541355659469
0.294000000000000150,-0.667560823585336194
0.295000000000000151,-0.825417287741277428
0.296000000000000152,-0.980029987508810208
0.297000000000000153,-1.131392054786706902
0.298000000000000154,-1.279498744252550946
0.299000000000000155,-1.424347463392989122
0.300000000000000155,-1.565937789157781035
0.301000000000000156,-1.704271472355059824
0.302000000000000157,-1.839352430861981302
0.303000000000000158,-1.971186732679340192
0.304000000000000159,-2.099782569812590260
0.305000000000000160,-2.225150223914176273
0.306000000000000161,-2.347302024574636548
0.307000000000000162,-2.466252301102184852
0.308000000000000163,-2.582017328582932869
0.309000000000000163,-2.694615268967069710
0.310000000000000164,-2.804066107880090808
0.311000000000000165,-2.910391587812861669
0.312000000000000166,-3.013615138300205665
0.313000000000000167,-3.113761803654731430
0.314000000000000168,-3.210858168781078437
0.315000000000000169,-3.304932283555670924
0.316000000000000170,-3.396013586218543878
0.317000000000000171,-3.484132826186697507
0.318000000000000171,-3.569321986663152479
0.319000000000000172,-3.651614207382232191
0.320000000000000173,-3.731043707799348574
0.321000000000000174,-3.807645711003293965
0.322000000000000175,-3.881456368600278317
0.323000000000000176,-3.952512686791742169
0.324000000000000177,-4.020852453842561403
0.325000000000000178,-4.086514169112048123
0.326000000000000179,-4.149536973798161554
0.327000000000000179,-4.209960583523845834
0.328000000000000180,-4.267825222875304192
0.329000000000000181,-4.323171561983812694
0.330000000000000182,-4.376040655225676090
0.331000000000000183,-4.426473882099803525
0.332000000000000184,-4.474512890327747350
0.333000000000000185,-4.520199541208174132
0.334000000000000186,-4.563575857245717238
0.335000000000000187,-4.604683972063130959
0.336000000000000187,-4.643566082596011668
0.337000000000000188,-4.680264403559970532
0.338000000000000189,-4.714821124172571487
0.339000000000000190,-4.747278367104796004
0.340000000000000191,-4.777678149630373738
0.341000000000000192,-4.806062346935908280
0.342000000000000193,-4.832472657549375050
0.343000000000000194,-4.856950570840635528
0.344000000000000195,-4.879537336543335435
0.345000000000000195,-4.900273936245076456
0.346000000000000196,-4.919201056789383131
0.347000000000000197,-4.936359065531350510
0.348000000000000198,-4.951787987386810030
0.349000000000000199,-4.965527483613612958
0.350000000000000200,-4.977616832262732771
0.351000000000000201,-4.988094910236124058
0.352000000000000202,-4.997000176888040990
0.353000000000000203,-5.004370659106503361
0.354000000000000203,-5.010243937811777570
0.355000000000000204,-5.014657135809089894
0.356000000000000205,-5.017646906933582507
0.357000000000000206,-5.019249426426354965
0.358000000000000207,-5.019500382481113299
0.359000000000000208,-5.018434968902485416
0.360000000000000209,-5.016087878818054513
0.361000000000000210,-5.012493299387476675
0.362000000000000210,-5.007684907453652912
0.363000000000000211,-5.001695866082262576
0.364000000000000212,-4.994558821937709503
0.365000000000000213,-4.986305903444922194
0.366000000000000214,-4.976968719688349196
0.367000000000000215,-4.966578360000974079
0.368000000000000216,-4.955165394198034257
0.369000000000000217,-4.942759873411685767
0.370000000000000218,-4.929391331484765715
0.371000000000000218,-4.915088786883250016
0.372000000000000219,-4.899880745088975864
0.373000000000000220,-4.883795201435723321
0.374000000000000221,-4.866859644353448644
0.375000000000000222,-4.849101058987024260
0.376000000000000223,-4.830545931157677941
0.377000000000000224,-4.811220251636610712
0.378000000000000225,-4.791149520701983633
0.379000000000000226,-4.770358752951910475
0.380000000000000226,-4.748872482347666235
0.381000000000000227,-4.726714767462452116
0.382000000000000228,-4.703909196912851698
0.383000000000000229,-4.680478894951065172
0.384000000000000230,-4.656446527197480201
0.385000000000000231,-4.631834306494469367
0.386000000000000232,-4.606663998863211873
0.387000000000000233,-4.580956929546845302
0.388000000000000234,-4.554733989124009952
0.389000000000000234,-4.528015639678265813
0.390000000000000235,-4.500821921009514170
0.391000000000000236,-4.473172456874857872
0.392000000000000237,-4.445086461246999576
0.393000000000000238,-4.416582744579383935
0.394000000000000239,-4.387679720067914957
0.395000000000000240,-4.358395409900073680
0.396000000000000241,-4.328747451482941599
0.397000000000000242,-4.298753103642264151
0.398000000000000242,-4.268429252785618466
0.399000000000000243,-4.237792419023118207
0.400000000000000244,-4.206858762239858329
0.401000000000000245,-4.175644088114923491
0.402000000000000246,-4.144163854082146159
0.403000000000000247,-4.112433175228471072
0.404000000000000248,-4.080466830126212585
0.405000000000000249,-4.048279266595943504
0.406000000000000250,-4.015884607397119055
0.407000000000000250,-3.983296655844053014
0.408000000000000251,-3.950528901345103261
0.409000000000000252,-3.917594524863364569
0.410000000000000253,-3.884506404297416005
0.411000000000000254,-3.851277119781010949
0.412000000000000255,-3.817918958900822446
0.413000000000000256,-3.784443921831700752
0.414000000000000257,-3.750863726388965258
0.415000000000000258,-3.717189812997698795
0.416000000000000258,-3.683433349578949301
0.417000000000000259,-3.649605236353162585
0.418000000000000260,-3.615716110561145946
0.419000000000000261,-3.581776351103122202
0.420000000000000262,-3.547796083096513620
0.421000000000000263,-3.513785182353269310
0.422000000000000264,-3.479753279777557218
0.423000000000000265,-3.445709765684822568
0.424000000000000266,-3.411663794043357179
0.425000000000000266,-3.377624286639357987
0.426000000000000267,-3.343599937166831459
0.427000000000000268,-3.309599215243503867
0.428000000000000269,-3.275630370354062570
0.429000000000000270,-3.241701435722132096
0.430000000000000271,-3.207820232112234660
0.431000000000000272,-3.173994371563275685
0.432000000000000273,-3.140231261054847955
0.433000000000000274,-3.106538106107897157
0.434000000000000274,-3.072921914321080639
0.435000000000000275,-3.039389498844342175
0.436000000000000276,-3.005947481791129583
0.437000000000000277,-2.972602297590626108
0.438000000000000278,-2.939360196281502802
0.439000000000000279,-2.906227246748581461
0.440000000000000280,-2.873209339903760817
0.441000000000000281,-2.840312191812629727
0.442000000000000282,-2.807541346768144486
0.443000000000000282,-2.774902180312626143
0.444000000000000283,-2.742399902209474050
0.445000000000000284,-2.710039559365854167
0.446000000000000285,-2.677826038707531886
0.447000000000000286,-2.645764070007284197
0.448000000000000287,-2.613858228667816697
0.449000000000000288,-2.582112938460622509
0.450000000000000289,-2.550532474221697488
0.451000000000000290,-2.519120964505356941
0.452000000000000290,-2.487882394197177938
0.453000000000000291,-2.456820607087083719
0.454000000000000292,-2.425939308403629369
0.455000000000000293,-2.395242067310408896
0.456000000000000294,-2.364732319365560720
0.457000000000000295,-2.334413368945276623
0.458000000000000296,-2.304288391632167254
0.459000000000000297,-2.274360436569370592
0.460000000000000298,-2.244632428781160982
0.461000000000000298,-2.215107171460910074
0.462000000000000299,-2.185787348227102633
0.463000000000000300,-2.156675525348126676
0.464000000000000301,-2.127774153936574209
0.465000000000000302,-2.099085572113707610
0.466000000000000303,-2.070612007144672084
0.467000000000000304,-2.042355577545147405
0.468000000000000305,-2.014318295159980288
0.469000000000000306,-1.986502067214336975
0.470000000000000306,-1.958908698337999521
0.471000000000000307,-1.931539892563164162
0.472000000000000308,-1.904397255296407021
0.473000000000000309,-1.877482295265134882
0.474000000000000310,-1.850796426439061282
0.475000000000000311,-1.824340969927041645
0.476000000000000312,-1.798117155849820126
0.477000000000000313,-1.772126125188869139
0.478000000000000314,-1.746368931611848918
0.479000000000000314,-1.720846543274990426
0.480000000000000315,-1.695559844602677391
0.481000000000000316,-1.670509638044639145
0.482000000000000317,-1.645696645810961867
0.483000000000000318,-1.621121511585273067
0.484000000000000319,-1.596784802216320243
0.485000000000000320,-1.572687009388249235
0.486000000000000321,-1.548828551269792353
0.487000000000000322,-1.525209774142622932
0.488000000000000322,-1.501830954009051089
0.489000000000000323,-1.478692298179379971
0.490000000000000324,-1.455793946838999098
0.491000000000000325,-1.433135974595514561
0.492000000000000326,-1.410718392005998467
0.493000000000000327,-1.388541147084648930
0.494000000000000328,-1.366604126790935014
0.495000000000000329,-1.344907158498444888
0.496000000000000330,-1.323450011444551766
0.497000000000000330,-1.302232398161112803
0.498000000000000331,-1.281253975886231355
0.499000000000000332,-1.260514347957369719
0.500000000000000333,-1.240013065185831653
0.501000000000000334,-1.219749627212761256
0.502000000000000335,-1.199723483846844685
0.503000000000000336,-1.179934036383781804
0.504000000000000337,-1.160380638907653417
0.505000000000000338,-1.141062599574318881
0.506000000000000338,-1.121979181876954890
0.507000000000000339,-1.103129605893824028
0.508000000000000340,-1.084513049518393890
0.509000000000000341,-1.066128649671959083
0.510000000000000342,-1.047975503498783656
0.511000000000000343,-1.030052669543952248
0.512000000000000344,-1.012359168913974816
0.513000000000000345,-0.994893986420285037
0.514000000000000346,-0.977656071705737317
0.515000000000000346,-0.960644340354161352
0.516000000000000347,-0.943857674983112460
0.517000000000000348,-0.927294926319948254
0.518000000000000349,-0.910954914261234650
0.519000000000000350,-0.894836428915706583
0.520000000000000351,-0.878938231630783107
0.521000000000000352,-0.863259056002815606
0.522000000000000353,-0.847797608871123431
0.523000000000000353,-0.832552571295926414
0.524000000000000354,-0.817522599520330795
0.525000000000000355,-0.802706325916392460
0.526000000000000356,-0.788102359915422879
0.527000000000000357,-0.773709288922657001
0.528000000000000358,-0.759525679216302096
0.529000000000000359,-0.745550076831215103
0.530000000000000360,-0.731781008427179858
0.531000000000000361,-0.718216982142005689
0.532000000000000361,-0.704856488429483785
0.533000000000000362,-0.691698000882379205
0.534000000000000363,-0.678739977040514697
0.535000000000000364,-0.665980859184109764
0.536000000000000365,-0.653419075112465220
0.537000000000000366,-0.641053038908137585
0.538000000000000367,-0.628881151686669471
0.539000000000000368,-0.616901802332103566
0.540000000000000369,-0.605113368218258119
0.541000000000000369,-0.593514215916034593
0.542000000000000370,-0.582102701886771379
0.543000000000000371,-0.570877173161821183
0.544000000000000372,-0.559835968008484675
0.545000000000000373,-0.548977416582405953
0.546000000000000374,-0.538299841566564963
0.547000000000000375,-0.527801558796993975
0.548000000000000376,-0.517480877875386769
0.549000000000000377,-0.507336102768671027
0.550000000000000377,-0.497365532395718346
0.551000000000000378,-0.487567461201318608
0.552000000000000379,-0.477940179717551872
0.553000000000000380,-0.468481975112693960
0.554000000000000381,-0.459191131727769986
0.555000000000000382,-0.450065931600958702
0.556000000000000383,-0.441104654979878330
0.557000000000000384,-0.432305580822018420
0.558000000000000385,-0.423666987283333074
0.559000000000000385,-0.415187152195236941
0.560000000000000386,-0.406864353530073497
0.561000000000000387,-0.398696869855231617
0.562000000000000388,-0.390682980776039801
0.563000000000000389,-0.382820967367576537
0.564000000000000390,-0.375109112595542193
0.565000000000000391,-0.367545701726332497
0.566000000000000392,-0.360129022726441428
0.567000000000000393,-0.352857366651372961
0.568000000000000393,-0.345729028024143126
0.569000000000000394,-0.338742305203569127
0.570000000000000395,-0.331895500742458716
0.571000000000000396,-0.325186921735832357
0.572000000000000397,-0.318614880159362790
0.573000000000000398,-0.312177693198096962
0.574000000000000399,-0.305873683565699384
0.575000000000000400,-0.299701179814248431
0.576000000000000401,-0.293658516634812128
0.577000000000000401,-0.287744035148911725
0.578000000000000402,-0.281956083190997575
0.579000000000000403,-0.276293015582074475
0.580000000000000404,-0.270753194394669772
0.581000000000000405,-0.265334989209196792
0.582000000000000406,-0.260036777361919325
0.583000000000000407,-0.254856944184615131
0.584000000000000408,-0.249793883236089670
0.585000000000000409,-0.244845996525670712
0.586000000000000409,-0.240011694728813257
0.587000000000000410,-0.235289397394964628
0.588000000000000411,-0.230677533147791852
0.589000000000000412,-0.226174539877946668
0.590000000000000413,-0.221778864928444674
0.591000000000000414,-0.217488965272839202
0.592000000000000415,-0.213303307686292826
0.593000000000000416,-0.209220368909674104
0.594000000000000417,-0.205238635806804265
0.595000000000000417,-0.201356605515026210
0.596000000000000418,-0.197572785589119920
0.597000000000000419,-0.193885694138816428
0.598000000000000420,-0.190293859959915684
0.599000000000000421,-0.186795822659217375
0.600000000000000422,-0.183390132773334991
0.601000000000000423,-0.180075351881531814
0.602000000000000424,-0.176850052712695660
0.603000000000000425,-0.173712819246579997
0.604000000000000425,-0.170662246809396123
0.605000000000000426,-0.167696942163906182
0.606000000000000427,-0.164815523594140478
0.607000000000000428,-0.162016620984760829
0.608000000000000429,-0.159298875895356296
0.609000000000000430,-0.156660941629558736
0.610000000000000431,-0.154101483299307229
0.611000000000000432,-0.151619177884210365
0.612000000000000433,-0.149212714286171472
0.613000000000000433,-0.146880793379416508
0.614000000000000434,-0.144622128055967414
