# SiO2-Amorphous_ALASCA-AC
# h[nm],U(h)[kJ/mol]
0.149999999999999994,68.595853127447099951
0.150999999999999995,66.792693306083577909
0.151999999999999996,65.775214399651900976
0.152999999999999997,64.896308105236101937
0.153999999999999998,63.930735987939712572
0.154999999999999999,62.847493445927895550
0.156000000000000000,61.688281183718366663
0.157000000000000001,60.507974135943143779
0.158000000000000002,59.349735636337491940
0.159000000000000002,58.238252474290824523
0.160000000000000003,57.181448441251042425
0.161000000000000004,56.175318914364240186
0.162000000000000005,55.209127068356281143
0.163000000000000006,54.269722120685671030
0.164000000000000007,53.344584434907211801
0.165000000000000008,52.423634608973507909
0.166000000000000009,51.500033294486044610
0.167000000000000010,50.570252383985732081
0.168000000000000010,49.633682207277885823
0.169000000000000011,48.691992670618084560
0.170000000000000012,47.748411046350938136
0.171000000000000013,46.807026999187414162
0.172000000000000014,45.872191670505777950
0.173000000000000015,44.948043812492294080
0.174000000000000016,44.038171674609905892
0.175000000000000017,43.145403267482052456
0.176000000000000018,42.271708114064672657
0.177000000000000018,41.418189012584321063
0.178000000000000019,40.585141234091395290
0.179000000000000020,39.772157766779542953
0.180000000000000021,38.978261768479043781
0.181000000000000022,38.202050606813195088
0.182000000000000023,37.441839266470523739
0.183000000000000024,36.695794162760975610
0.184000000000000025,35.962051325220173226
0.185000000000000026,35.238815403836767359
0.186000000000000026,34.524437969513243729
0.187000000000000027,33.817475140330635952
0.188000000000000028,33.116725704555165066
0.189000000000000029,32.421251683820251799
0.190000000000000030,31.730383745535970519
0.191000000000000031,31.043714092493786438
0.192000000000000032,30.361079486283518492
0.193000000000000033,29.682536949948847393
0.194000000000000034,29.008334487609367613
0.195000000000000034,28.338878890523211851
0.196000000000000035,27.674702399107751205
0.197000000000000036,27.016429681119838335
0.198000000000000037,26.364746284130234244
0.199000000000000038,25.720369437337762264
0.200000000000000039,25.084021821334296476
0.201000000000000040,24.456408699083585390
0.202000000000000041,23.838198609004571438
0.203000000000000042,23.230007661637053218
0.204000000000000042,22.632387353510139860
0.205000000000000043,22.045815713194464536
0.206000000000000044,21.470691522165402887
0.207000000000000045,20.907331303804596701
0.208000000000000046,20.355968744289381078
0.209000000000000047,19.816756195999584378
0.210000000000000048,19.289767914316374942
0.211000000000000049,18.775004689457404083
0.212000000000000050,18.272399553731396793
0.213000000000000050,17.781824269069780087
0.214000000000000051,17.303096327973626956
0.215000000000000052,16.835986231487417797
0.216000000000000053,16.380224839145142823
0.217000000000000054,15.935510616961272135
0.218000000000000055,15.501516639631120142
0.219000000000000056,15.077897231538525347
0.220000000000000057,14.664294157500595617
0.221000000000000058,14.260342298121916116
0.222000000000000058,13.865674766016365282
0.223000000000000059,13.479927437927880618
0.224000000000000060,13.102742893959893777
0.225000000000000061,12.733773768794765857
0.226000000000000062,12.372685531080424681
0.227000000000000063,12.019158716248654173
0.228000000000000064,11.672890645096211770
0.229000000000000065,11.333596665706089368
0.230000000000000066,11.001010959918707144
0.231000000000000066,10.674886957783296992
0.232000000000000067,10.354997404428274876
0.233000000000000068,10.041134123771460196
0.234000000000000069,9.733107522624198538
0.235000000000000070,9.430745877187870718
0.236000000000000071,9.133894441844907064
0.237000000000000072,8.842414417639394841
0.238000000000000073,8.556181815041881578
0.239000000000000073,8.275086242600631081
0.240000000000000074,7.999029649982574597
0.241000000000000075,7.727925050778469362
0.242000000000000076,7.461695247347348570
0.243000000000000077,7.200271576956621011
0.244000000000000078,6.943592695576498386
0.245000000000000079,6.691603412940909656
0.246000000000000080,6.444253589916050018
0.247000000000000081,6.201497106836374229
0.248000000000000081,5.963290909288064157
0.249000000000000082,5.729594135845355041
0.250000000000000111,5.500367330496082729
0.251000000000000112,5.275571740927454734
0.252000000000000113,5.055168702473485709
0.253000000000000114,4.839119106346299048
0.254000000000000115,4.627382949771341458
0.255000000000000115,4.419918964813467355
0.256000000000000116,4.216684322002404173
0.257000000000000117,4.017634404330894249
0.258000000000000118,3.822722646794073142
0.259000000000000119,3.631900436350897543
0.260000000000000120,3.445117067005592393
0.261000000000000121,3.262319744617369732
0.262000000000000122,3.083453636037326806
0.263000000000000123,2.908461957232696182
0.264000000000000123,2.737286095178964818
0.265000000000000124,2.569865758470960770
0.266000000000000125,2.406139151815462007
0.267000000000000126,2.246043169812207196
0.268000000000000127,2.089513605699704790
0.269000000000000128,1.936485371030939318
0.270000000000000129,1.786892722545075474
0.271000000000000130,1.640669492809895491
0.272000000000000131,1.497749321521374632
0.273000000000000131,1.358065884657045252
0.274000000000000132,1.221553118985710507
0.275000000000000133,1.088145439734246045
0.276000000000000134,0.957777949500661308
0.277000000000000135,0.830386636779270382
0.278000000000000136,0.705908562726662914
0.279000000000000137,0.584282035045773140
0.280000000000000138,0.465446768098395414
0.281000000000000139,0.349344028573179977
0.282000000000000139,0.235916766236789505
0.283000000000000140,0.125109729479802784
0.284000000000000141,0.016869565536548746
0.285000000000000142,-0.088855094590615760
0.286000000000000143,-0.192113566336444136
0.287000000000000144,-0.292953056620772256
0.288000000000000145,-0.391418623347412509
0.289000000000000146,-0.487553148869966091
0.290000000000000147,-0.581397326862690411
0.291000000000000147,-0.672989661968320219
0.292000000000000148,-0.762366481541056684
0.293000000000000149,-0.849561958759396996
0.294000000000000150,-0.934608146350719204
0.295000000000000151,-1.017535020145647007
0.296000000000000152,-1.098370531665017857
0.297000000000000153,-1.177140668934747447
0.298000000000000154,-1.253869524723359330
0.299000000000000155,-1.328579371402602405
0.300000000000000155,-1.401290741642859938
0.301000000000000156,-1.472022514171051455
0.302000000000000157,-1.540792003839256186
0.303000000000000158,-1.607615055276069516
0.304000000000000159,-1.672506139420009585
0.305000000000000160,-1.735478452263776727
0.306000000000000161,-1.796544015170062680
0.307000000000000162,-1.855713776153009587
0.308000000000000163,-1.912997711553997338
0.309000000000000163,-1.968404927576084429
0.310000000000000164,-2.021943761177451560
0.311000000000000165,-2.073621879860456652
0.312000000000000166,-2.123446379929287531
0.313000000000000167,-2.171423882825046281
0.314000000000000168,-2.217560629182639964
0.315000000000000169,-2.261862570288591279
0.316000000000000170,-2.304335456652907954
0.317000000000000171,-2.344984923440917690
0.318000000000000171,-2.383816572542908574
0.319000000000000172,-2.420836051090040186
0.320000000000000173,-2.456049126254209458
0.321000000000000174,-2.489461756197555165
0.322000000000000175,-2.521080157063906313
0.323000000000000176,-2.550910865929502780
0.324000000000000177,-2.578960799654058889
0.325000000000000178,-2.605237309595352713
0.326000000000000179,-2.629748232171430722
0.327000000000000179,-2.652501935273578137
0.328000000000000180,-2.673507360551205636
0.329000000000000181,-2.692774061606269420
0.330000000000000182,-2.710312238149686692
0.331000000000000183,-2.726132766186247558
0.332000000000000184,-2.740247224306616047
0.333000000000000185,-2.752667916176423368
0.334000000000000186,-2.763407889322253119
0.335000000000000187,-2.772480950323174653
0.336000000000000187,-2.779901676524212384
0.337000000000000188,-2.785685424394598098
0.338000000000000189,-2.789848334659520646
0.339000000000000190,-2.792407334338621538
0.340000000000000191,-2.793380135828253508
0.341000000000000192,-2.792785233167655257
0.342000000000000193,-2.790641895631158054
0.343000000000000194,-2.786970158790194940
0.344000000000000195,-2.781790813189405576
0.345000000000000195,-2.775125390781588486
0.346000000000000196,-2.766996149265499305
0.347000000000000197,-2.757426054469710230
0.348000000000000198,-2.746438760924296396
0.349000000000000199,-2.734058590760072960
0.350000000000000200,-2.720310511073023907
0.351000000000000201,-2.705220109888706759
0.352000000000000202,-2.688813570858583635
0.353000000000000203,-2.671117646816939306
0.354000000000000203,-2.652159632323546568
0.355000000000000204,-2.631967335313459166
0.356000000000000205,-2.610569047971552870
0.357000000000000206,-2.587993516945303885
0.358000000000000207,-2.564269913005019053
0.359000000000000208,-2.539427800256690571
0.360000000000000209,-2.513497105008064558
0.361000000000000210,-2.486508084384222439
0.362000000000000210,-2.458491294784501680
0.363000000000000211,-2.429477560268104686
0.364000000000000212,-2.399497940951352604
0.365000000000000213,-2.368583701494989313
0.366000000000000214,-2.336766279755663867
0.367000000000000215,-2.304077255671242330
0.368000000000000216,-2.270548320445422874
0.369000000000000217,-2.236211246092752791
0.370000000000000218,-2.201097855401165759
0.371000000000000218,-2.165239992364886401
0.372000000000000219,-2.128669493136788216
0.373000000000000220,-2.091418157545267942
0.374000000000000221,-2.053517721217045899
0.375000000000000222,-2.014999828343510657
0.376000000000000223,-1.975896005124895272
0.377000000000000224,-1.936237633922968104
0.378000000000000225,-1.896055928149727787
0.379000000000000226,-1.855381907916383799
0.380000000000000226,-1.814246376463938049
0.381000000000000227,-1.772679897393583559
0.382000000000000228,-1.730712772712577507
0.383000000000000229,-1.688375021708412804
0.384000000000000230,-1.645696360661562441
0.385000000000000231,-1.602706183404837503
0.386000000000000232,-1.559433542734841804
0.387000000000000233,-1.515907132679070513
0.388000000000000234,-1.472155271619949080
0.389000000000000234,-1.428205886275355940
0.390000000000000235,-1.384086496533179611
0.391000000000000236,-1.339824201135889847
0.392000000000000237,-1.295445664209375680
0.393000000000000238,-1.250977102628962001
0.394000000000000239,-1.206444274213931633
0.395000000000000240,-1.161872466740787591
0.396000000000000241,-1.117286487764181713
0.397000000000000242,-1.072710655233296340
0.398000000000000242,-1.028168788890657881
0.399000000000000243,-0.983684202439196298
0.400000000000000244,-0.939279696462647196
0.401000000000000245,-0.894977552083745520
0.402000000000000246,-0.850799525343743035
0.403000000000000247,-0.806766842286349428
0.404000000000000248,-0.762900194728675429
0.405000000000000249,-0.719219736701184109
0.406000000000000250,-0.675745081538321246
0.407000000000000250,-0.632495299601200101
0.408000000000000251,-0.589488916613320257
0.409000000000000252,-0.546743912590216041
0.410000000000000253,-0.504277721343633245
0.411000000000000254,-0.462107230540806824
0.412000000000000255,-0.420248782299270929
0.413000000000000256,-0.378718174297658083
0.414000000000000257,-0.337530661382864416
0.415000000000000258,-0.296700957654152886
0.416000000000000258,-0.256243239004674106
0.417000000000000259,-0.216171146101155953
0.418000000000000260,-0.176497787782568111
0.419000000000000261,-0.137235744858771241
0.420000000000000262,-0.098397074290393238
0.421000000000000263,-0.059993313731357120
0.422000000000000264,-0.022035486415790118
0.423000000000000265,0.015465893628779481
0.424000000000000266,0.052500816059547484
0.425000000000000266,0.089059768405454556
0.426000000000000267,0.125133729980076908
0.427000000000000268,0.160714165537233888
0.428000000000000269,0.195793018685693626
0.429000000000000270,0.230362705078980434
0.430000000000000271,0.264416105396073742
0.431000000000000272,0.297946558128183492
0.432000000000000273,0.330947852186592006
0.433000000000000274,0.363414219346041512
0.434000000000000274,0.395340326537835851
0.435000000000000275,0.426721268006344634
0.436000000000000276,0.457552557342243538
0.437000000000000277,0.487830119405452067
0.438000000000000278,0.517550282150230245
0.439000000000000279,0.546709768364573301
0.440000000000000280,0.575305687335630589
0.441000000000000281,0.603335526452437820
0.442000000000000282,0.630797142756853946
0.443000000000000282,0.657688754453278457
0.444000000000000283,0.684008932387185298
0.445000000000000284,0.709756591502252121
0.446000000000000285,0.734930982285473489
0.447000000000000286,0.759531682209088066
0.448000000000000287,0.783558587178075250
0.449000000000000288,0.807011902991303876
0.450000000000000289,0.829892136824291193
0.451000000000000290,0.852200088741011053
0.452000000000000290,0.873936843241927774
0.453000000000000291,0.895103760855074038
0.454000000000000292,0.915702469776606298
0.455000000000000293,0.935734857567036116
0.456000000000000294,0.955203062908894784
0.457000000000000295,0.974109467431390597
0.458000000000000296,0.992456687607216614
0.459000000000000297,1.010247566726438562
0.460000000000000298,1.027485166952049722
0.461000000000000298,1.044172761461523491
0.462000000000000299,1.060313826678404459
0.463000000000000300,1.075912034597738431
0.464000000000000301,1.090971245208829155
0.465000000000000302,1.105495499018593231
0.466000000000000303,1.119489009678561908
0.467000000000000304,1.132956156718292196
0.468000000000000305,1.145901478387710171
0.469000000000000306,1.158329664610794341
0.470000000000000306,1.170245550052625649
0.471000000000000307,1.181654107301797429
0.472000000000000308,1.192560440169827762
0.473000000000000309,1.202969777109146765
0.474000000000000310,1.212887464750943556
0.475000000000000311,1.222318961564082818
0.476000000000000312,1.231269831635993794
0.477000000000000313,1.239745738576452982
0.478000000000000314,1.247752439544841607
0.479000000000000314,1.255295779401409018
0.480000000000000315,1.262381684982939456
0.481000000000000316,1.269016159502996732
0.482000000000000317,1.275205277076894461
0.483000000000000318,1.280955177371315035
0.484000000000000319,1.286272060378470083
0.485000000000000320,1.291162181314488899
0.486000000000000321,1.295631845641703972
0.487000000000000322,1.299687404214322717
0.488000000000000322,1.303335248546944936
0.489000000000000323,1.306581806205200147
0.490000000000000324,1.309433536317813562
0.491000000000000325,1.311896925209208087
0.492000000000000326,1.313978482151754612
0.493000000000000327,1.315684735236667402
0.494000000000000328,1.317022227362468767
0.495000000000000329,1.317997512339933674
0.496000000000000330,1.318617151112277508
0.497000000000000330,1.318887708089391264
0.498000000000000331,1.318815747594793253
0.499000000000000332,1.318407830423962590
0.500000000000000333,1.317670510512662929
0.501000000000000334,1.316610331713834459
0.502000000000000335,1.315233824681552699
0.503000000000000336,1.313547503860581056
0.504000000000000337,1.311557864579962374
0.505000000000000338,1.309271380249074301
0.506000000000000338,1.306694499654566854
0.507000000000000339,1.303833644356565014
0.508000000000000340,1.300695206182493013
0.509000000000000341,1.297285544816860980
0.510000000000000342,1.293610985485353249
0.511000000000000343,1.289677816731528370
0.512000000000000344,1.285492288284434625
0.513000000000000345,1.281060609015437279
0.514000000000000346,1.276388944982546070
0.515000000000000346,1.271483417560532958
0.516000000000000347,1.266350101655122184
0.517000000000000348,1.260995023999506470
0.518000000000000349,1.255424161531523142
0.519000000000000350,1.249643439849727589
0.520000000000000351,1.243658731746662971
0.521000000000000352,1.237475855817638415
0.522000000000000353,1.231100575143287523
0.523000000000000353,1.224538596044234984
0.524000000000000354,1.217795566906180627
0.525000000000000355,1.210877077073718500
0.526000000000000356,1.203788655811256048
0.527000000000000357,1.196535771329343634
0.528000000000000358,1.189123829874829674
0.529000000000000359,1.181558174883164503
0.530000000000000360,1.173844086191301539
0.531000000000000361,1.165986779309557742
0.532000000000000361,1.157991404750902342
0.533000000000000362,1.149863047416076256
0.534000000000000363,1.141606726033045138
0.535000000000000364,1.133227392649237109
0.536000000000000365,1.124729932175078329
0.537000000000000366,1.116119161977347840
0.538000000000000367,1.107399831520884614
0.539000000000000368,1.098576622057207297
0.540000000000000369,1.089654146358640663
0.541000000000000369,1.080636948496531691
0.542000000000000370,1.071529503662195015
0.543000000000000371,1.062336218029231727
0.544000000000000372,1.053061428655873932
0.545000000000000373,1.043709403426071436
0.546000000000000374,1.034284341028006926
0.547000000000000375,1.024790370968795994
0.548000000000000376,1.015231553624104555
0.549000000000000377,1.005611880321497287
0.550000000000000377,0.995935273456288073
0.551000000000000378,0.986205586638728926
0.552000000000000379,0.976426604871403314
0.553000000000000380,0.966602044755656364
0.554000000000000381,0.956735554725996140
0.555000000000000382,0.946830715311355653
0.556000000000000383,0.936891039422162009
0.557000000000000384,0.926919972662176628
0.558000000000000385,0.916920893664086023
0.559000000000000385,0.906897114447847152
0.560000000000000386,0.896851880800825008
0.561000000000000387,0.886788372678757097
0.562000000000000388,0.876709704626629227
0.563000000000000389,0.866618926218542640
0.564000000000000390,0.856519022515702888
0.565000000000000391,0.846412914541646799
0.566000000000000392,0.836303459773882985
0.567000000000000393,0.826193452651105331
0.568000000000000393,0.816085625095193778
0.569000000000000394,0.805982647047190914
0.570000000000000395,0.795887127016547957
0.571000000000000396,0.785801612642828773
0.572000000000000397,0.775728591269190582
0.573000000000000398,0.765670490526946690
0.574000000000000399,0.755629678930482718
0.575000000000000400,0.745608466481905929
0.576000000000000401,0.735609105284754095
0.577000000000000401,0.725633790166141823
0.578000000000000402,0.715684659306721649
0.579000000000000403,0.705763794877901196
0.580000000000000404,0.695873223685686826
0.581000000000000405,0.686014917820641612
0.582000000000000406,0.676190795313389104
0.583000000000000407,0.666402720795131964
0.584000000000000408,0.656652506162708649
0.585000000000000409,0.646941911247654766
0.586000000000000409,0.637272644488803497
0.587000000000000410,0.627646363607980318
0.588000000000000411,0.618064676288314185
0.589000000000000412,0.608529140854748851
0.590000000000000413,0.599041266956334306
0.591000000000000414,0.589602516249883690
0.592000000000000415,0.580214303084621630
0.593000000000000416,0.570877995187418774
0.594000000000000417,0.561594914348275576
0.595000000000000417,0.552366337105697269
0.596000000000000418,0.543193495431594120
0.597000000000000419,0.534077577415433824
0.598000000000000420,0.525019727947271031
0.599000000000000421,0.516021049399405851
0.600000000000000422,0.507082602306335617
0.601000000000000423,0.498205406042761534
0.602000000000000424,0.489390439499348517
0.603000000000000425,0.480638641755989582
0.604000000000000425,0.471950912752350127
0.605000000000000426,0.463328113955428500
0.606000000000000427,0.454771069023905405
0.607000000000000428,0.446280564469107355
0.608000000000000429,0.437857350312297389
0.609000000000000430,0.429502140738205640
0.610000000000000431,0.421215614744492761
0.611000000000000432,0.412998416787056233
0.612000000000000433,0.404851157420979380
0.613000000000000433,0.396774413936926584
0.614000000000000434,0.388768730992895939
0.615000000000000435,0.380834621241130045
0.616000000000000436,0.372972565950063839
0.617000000000000437,0.365183015621184548
0.618000000000000438,0.357466390600675532
