# SiO2-Amorphous_CS-6338-AC
# h[nm],U(h)[kJ/mol]
0.149999999999999994,112.953153364666974312
0.150999999999999995,110.673240715146519619
0.151999999999999996,108.893896082718541152
0.152999999999999997,107.229272982410776649
0.153999999999999998,105.536644633168180007
0.154999999999999999,103.789289756141300813
0.156000000000000000,102.006752028813352240
0.157000000000000001,100.219400396950277354
0.158000000000000002,98.452694875819958042
0.159000000000000002,96.722137102658749086
0.160000000000000003,95.033497633357569612
0.161000000000000004,93.385211429549400464
0.162000000000000005,91.771263366526085292
0.163000000000000006,90.183748806447283641
0.164000000000000007,88.614793667718529946
0.165000000000000008,87.057789480597293164
0.166000000000000009,85.508030779715397784
0.167000000000000010,83.962892540311671041
0.168000000000000010,82.421690810411959660
0.169000000000000011,80.885352823899310692
0.170000000000000012,79.355997148444444633
0.171000000000000013,77.836497405414149853
0.172000000000000014,76.330078695424347757
0.173000000000000015,74.839975741738584247
0.174000000000000016,73.369166302568402216
0.175000000000000017,71.920182288773389701
0.176000000000000018,70.494993619535449625
0.177000000000000018,69.094955416975835760
0.178000000000000019,67.720806963666774436
0.179000000000000020,66.372710289309722498
0.180000000000000021,65.050316786436752636
0.181000000000000022,63.752851461915909681
0.182000000000000023,62.479205994932158319
0.183000000000000024,61.228033464080532156
0.184000000000000025,59.997839269167215548
0.185000000000000026,58.787064306807948810
0.186000000000000026,57.594157805485679091
0.187000000000000027,56.417638359396242720
0.188000000000000028,55.256142617205682654
0.189000000000000029,54.108461792394237477
0.190000000000000030,52.973566685700539836
0.191000000000000031,51.850622271520435902
0.192000000000000032,50.738993124867349138
0.193000000000000033,49.638241079194209249
0.194000000000000034,48.548116531858937606
0.195000000000000034,47.468544774665986097
0.196000000000000035,46.399608640284959904
0.197000000000000036,45.341528637059958839
0.198000000000000037,44.294641607574121167
0.199000000000000038,43.259378800508216045
0.200000000000000039,42.236244098678994874
0.201000000000000040,41.225793004489169391
0.202000000000000041,40.228612851480477275
0.203000000000000042,39.245304589960809949
0.204000000000000042,38.276466387335432273
0.205000000000000043,37.322679190490461565
0.206000000000000044,36.384494318338944652
0.207000000000000045,35.462423086943360317
0.208000000000000046,34.556928416612450405
0.209000000000000047,33.668418328951226215
0.210000000000000048,32.797241210804344291
0.211000000000000049,31.943682700107423500
0.212000000000000050,31.107964034578486689
0.213000000000000050,30.290241696727509435
0.214000000000000051,29.490608186682173653
0.215000000000000052,28.709093756775757811
0.216000000000000053,27.945668947765618384
0.217000000000000054,27.200247775109552606
0.218000000000000055,26.472691424190180953
0.219000000000000056,25.762812325119615053
0.220000000000000057,25.070378490246099545
0.221000000000000058,24.395118010292730304
0.222000000000000058,23.736723617821677834
0.223000000000000059,23.094857239167172480
0.224000000000000060,22.469154467892856530
0.225000000000000061,21.859228904051889231
0.226000000000000062,21.264676313947440178
0.227000000000000063,20.685078574638492199
0.228000000000000064,20.120007376074951821
0.229000000000000065,19.569027661465543844
0.230000000000000066,19.031700793298057306
0.231000000000000066,18.507587438368755528
0.232000000000000067,17.996250170282923619
0.233000000000000068,17.497255792208633807
0.234000000000000069,17.010177386260942001
0.235000000000000070,16.534596098822959220
0.236000000000000071,16.070102673437638430
0.237000000000000072,15.616298744689595779
0.238000000000000073,15.172797907803992956
0.239000000000000073,14.739226579576532927
0.240000000000000074,14.315224666769429618
0.241000000000000075,13.900446058318715714
0.242000000000000076,13.494558957643238983
0.243000000000000077,13.097246071071063866
0.244000000000000078,12.708204667945320665
0.245000000000000079,12.327146527373681550
0.246000000000000080,11.953797785877807058
0.247000000000000081,11.587898699406620651
0.248000000000000081,11.229203332328641096
0.249000000000000082,10.877479185132397532
0.250000000000000111,10.532506771659679856
0.251000000000000112,10.194079155789854241
0.252000000000000113,9.862001456596200200
0.253000000000000114,9.536090330120471137
0.254000000000000115,9.216173435064371589
0.255000000000000115,8.902088888886837026
0.256000000000000116,8.593684720026061541
0.257000000000000117,8.290818321240255528
0.258000000000000118,7.993355908383437125
0.259000000000000119,7.701171988302640159
0.260000000000000120,7.414148838961978072
0.261000000000000121,7.132176004366916011
0.262000000000000122,6.855149806377079713
0.263000000000000123,6.582972875057748752
0.264000000000000123,6.315553698825956630
0.265000000000000124,6.052806195295938885
0.266000000000000125,5.794649303417173769
0.267000000000000126,5.541006597225091035
0.268000000000000127,5.291805921285946290
0.269000000000000128,5.046979047712410349
0.270000000000000129,4.806461354451032619
0.271000000000000130,4.570191524394980220
0.272000000000000131,4.338111264753641727
0.273000000000000131,4.110165046010766154
0.274000000000000132,3.886299859724380745
0.275000000000000133,3.666464994360927765
0.276000000000000134,3.450611828312090346
0.277000000000000135,3.238693639213408915
0.278000000000000136,3.030665428666367234
0.279000000000000137,2.826483761459838373
0.280000000000000138,2.626106618390476655
0.281000000000000139,2.429493261792742054
0.282000000000000139,2.236604112907907727
0.283000000000000140,2.047400640245116143
0.284000000000000141,1.861845258116161306
0.285000000000000142,1.679901234557662493
0.286000000000000143,1.501532607889223492
0.287000000000000144,1.326704111193250935
0.288000000000000145,1.155381104039946205
0.289000000000000146,0.987529510820801426
0.290000000000000147,0.823115765092583551
0.291000000000000147,0.662106759373793374
0.292000000000000148,0.504469799873733638
0.293000000000000149,0.350172565672998037
0.294000000000000150,0.199183071910686710
0.295000000000000151,0.051469636569650000
0.296000000000000152,-0.092999149514692639
0.297000000000000153,-0.234254449763569295
0.298000000000000154,-0.372327206392612631
0.299000000000000155,-0.507248162659186486
0.300000000000000155,-0.639047883072572431
0.301000000000000156,-0.767756771794227078
0.302000000000000157,-0.893405089431364319
0.303000000000000158,-1.016022968404252769
0.304000000000000159,-1.135640427047134526
0.305000000000000160,-1.252287382583264108
0.306000000000000161,-1.365993663097142319
0.307000000000000162,-1.476789018611052384
0.308000000000000163,-1.584703131358221384
0.309000000000000163,-1.689765625332027010
0.310000000000000164,-1.792006075178710800
0.311000000000000165,-1.891454014490464797
0.312000000000000166,-1.988138943546449156
0.313000000000000167,-2.082090336540892928
0.314000000000000168,-2.173337648330144756
0.315000000000000169,-2.261910320724231926
0.316000000000000170,-2.347837788343007048
0.317000000000000171,-2.431149484052235188
0.318000000000000171,-2.511874843990976380
0.319000000000000172,-2.590043312198566205
0.320000000000000173,-2.665684344846491083
0.321000000000000174,-2.738827414078524480
0.322000000000000175,-2.809502011460806692
0.323000000000000176,-2.877737651042266975
0.324000000000000177,-2.943563872025011907
0.325000000000000178,-3.007010241043682974
0.326000000000000179,-3.068106354052821949
0.327000000000000179,-3.126881837820990828
0.328000000000000180,-3.183366351030895380
0.329000000000000181,-3.237589584985193003
0.330000000000000182,-3.289581263918004428
0.331000000000000183,-3.339371144913258149
0.332000000000000184,-3.386989017431415672
0.333000000000000185,-3.432464702447233229
0.334000000000000186,-3.475828051202104696
0.335000000000000187,-3.517108943575410596
0.336000000000000187,-3.556337286080454962
0.337000000000000188,-3.593543009491251716
0.338000000000000189,-3.628756066107745148
0.339000000000000190,-3.662006426667793413
0.340000000000000191,-3.693324076915068588
0.341000000000000192,-3.722739013833204602
0.342000000000000193,-3.750281241557019030
0.343000000000000194,-3.775980766972737435
0.344000000000000195,-3.799867595019440270
0.345000000000000195,-3.821971723705175350
0.346000000000000196,-3.842323138851224229
0.347000000000000197,-3.860951808578888311
0.348000000000000198,-3.877887677553562895
0.349000000000000199,-3.893160661001116019
0.350000000000000200,-3.906800638512171187
0.351000000000000201,-3.918837447649967665
0.352000000000000202,-3.929300877377714052
0.353000000000000203,-3.938220661321634175
0.354000000000000203,-3.945626470885825743
0.355000000000000204,-3.951547908235116147
0.356000000000000205,-3.956014499162152198
0.357000000000000206,-3.959055685854902862
0.358000000000000207,-3.960700819580367238
0.359000000000000208,-3.960979153300472344
0.360000000000000209,-3.959919834235732683
0.361000000000000210,-3.957551896391890089
0.362000000000000210,-3.953904253064708829
0.363000000000000211,-3.949005689337516944
0.364000000000000212,-3.942884854585964494
0.365000000000000213,-3.935570255003796092
0.366000000000000214,-3.927090246163309928
0.367000000000000215,-3.917473025623483096
0.368000000000000216,-3.906746625598496614
0.369000000000000217,-3.894938905698707377
0.370000000000000218,-3.882077545755839854
0.371000000000000218,-3.868190038743421155
0.372000000000000219,-3.853303683803195323
0.373000000000000220,-3.837445579387589678
0.374000000000000221,-3.820642616527837987
0.375000000000000222,-3.802921472236713729
0.376000000000000223,-3.784308603054539422
0.377000000000000224,-3.764830238746324831
0.378000000000000225,-3.744512376157532518
0.379000000000000226,-3.723380773235312802
0.380000000000000226,-3.701460943221756672
0.381000000000000227,-3.678778149024794608
0.382000000000000228,-3.655357397772315942
0.383000000000000229,-3.631223435554237877
0.384000000000000230,-3.606400742356862477
0.385000000000000231,-3.580913527193514856
0.386000000000000232,-3.554785723434707556
0.387000000000000233,-3.528040984340897523
0.388000000000000234,-3.500702678800209355
0.389000000000000234,-3.472793887273296853
0.390000000000000235,-3.444337397946862556
0.391000000000000236,-3.415355703097142648
0.392000000000000237,-3.385870995664137073
0.393000000000000238,-3.355905166037077780
0.394000000000000239,-3.325479799051171081
0.395000000000000240,-3.294616171195416054
0.396000000000000241,-3.263335248030886593
0.397000000000000242,-3.231657681818506767
0.398000000000000242,-3.199603809355231920
0.399000000000000243,-3.167193650017018136
0.400000000000000244,-3.134446904006838341
0.401000000000000245,-3.101382950805792404
0.402000000000000246,-3.068020847824917574
0.403000000000000247,-3.034379329255262991
0.404000000000000248,-3.000476805113526435
0.405000000000000249,-2.966331360480307655
0.406000000000000250,-2.931960754927871449
0.407000000000000250,-2.897382422134184399
0.408000000000000251,-2.862613469679737843
0.409000000000000252,-2.827670679023640332
0.410000000000000253,-2.792570505655208812
0.411000000000000254,-2.757329079417255802
0.412000000000000255,-2.721962204997108614
0.413000000000000256,-2.686485362581361613
0.414000000000000257,-2.650913708670127100
0.415000000000000258,-2.615262077046717426
0.416000000000000258,-2.579544979898352963
0.417000000000000259,-2.543776609083649554
0.418000000000000260,-2.507970837542471632
0.419000000000000261,-2.472141220843729670
0.420000000000000262,-2.436300998866691270
0.421000000000000263,-2.400463097611351238
0.422000000000000264,-2.364640131133335821
0.423000000000000265,-2.328844403598864687
0.424000000000000266,-2.293087911455372385
0.425000000000000266,-2.257382345713166760
0.426000000000000267,-2.221739094333788689
0.427000000000000268,-2.186169244720569615
0.428000000000000269,-2.150683586306969985
0.429000000000000270,-2.115292613238402453
0.430000000000000271,-2.080006527143045680
0.431000000000000272,-2.044835239987508491
0.432000000000000273,-2.009788377012968752
0.433000000000000274,-1.974875279747674739
0.434000000000000274,-1.940105009091567023
0.435000000000000275,-1.905486348469019431
0.436000000000000276,-1.871027807045634317
0.437000000000000277,-1.836737623005085807
0.438000000000000278,-1.802623766882180956
0.439000000000000279,-1.768693944948301233
0.440000000000000280,-1.734955602645409156
0.441000000000000281,-1.701415928064997640
0.442000000000000282,-1.668081855468390939
0.443000000000000282,-1.634960068844777181
0.444000000000000283,-1.602057005503651155
0.445000000000000284,-1.569378859698201456
0.446000000000000285,-1.536931586276344630
0.447000000000000286,-1.504720904356351419
0.448000000000000287,-1.472752301023702026
0.449000000000000288,-1.441031035046376640
0.450000000000000289,-1.409562140605433056
0.451000000000000290,-1.378350431038106727
0.452000000000000290,-1.347400502590625049
0.453000000000000291,-1.316716738177988288
0.454000000000000292,-1.286303311148171202
0.455000000000000293,-1.256164189048116331
0.456000000000000294,-1.226303137389153308
0.457000000000000295,-1.196723723409413243
0.458000000000000296,-1.167429319830956214
0.459000000000000297,-1.138423108609435630
0.460000000000000298,-1.109708084674118078
0.461000000000000298,-1.081287059656252492
0.462000000000000299,-1.053162665603812442
0.463000000000000300,-1.025337358680668887
0.464000000000000301,-0.997813422848448761
0.465000000000000302,-0.970592973529307734
0.466000000000000303,-0.943677961247912478
0.467000000000000304,-0.917070175251094133
0.468000000000000305,-0.890771247103639086
0.469000000000000306,-0.864782654258712258
0.470000000000000306,-0.839105723601645037
0.471000000000000307,-0.813741634965618799
0.472000000000000308,-0.788691424618149894
0.473000000000000309,-0.763955988717079371
0.474000000000000310,-0.739536086735023246
0.475000000000000311,-0.715432344851150148
0.476000000000000312,-0.691645259309425553
0.477000000000000313,-0.668175199742205295
0.478000000000000314,-0.645022412458444050
0.479000000000000314,-0.622187023695665364
0.480000000000000315,-0.599669042834861998
0.481000000000000316,-0.577468365577722631
0.482000000000000317,-0.555584777085421755
0.483000000000000318,-0.534017955078446738
0.484000000000000319,-0.512767472896829557
0.485000000000000320,-0.491832802520355883
0.486000000000000321,-0.471213317548202337
0.487000000000000322,-0.450908296137655984
0.488000000000000322,-0.430916923901451976
0.489000000000000323,-0.411238296763518307
0.490000000000000324,-0.391871423772718941
0.491000000000000325,-0.372815229874420395
0.492000000000000326,-0.354068558639604292
0.493000000000000327,-0.335630174951420279
0.494000000000000328,-0.317498767648980107
0.495000000000000329,-0.299672952128311743
0.496000000000000330,-0.282151272900383443
0.497000000000000330,-0.264932206106197665
0.498000000000000331,-0.248014161988856507
0.499000000000000332,-0.231395487322733434
0.500000000000000333,-0.215074467799705266
0.501000000000000334,-0.199049330372539135
0.502000000000000335,-0.183318245555565085
0.503000000000000336,-0.167879329682739387
0.504000000000000337,-0.152730647123225205
0.505000000000000338,-0.137870212454698410
0.506000000000000338,-0.123295992594559284
0.507000000000000339,-0.109005908889243081
0.508000000000000340,-0.094997839161882508
0.509000000000000341,-0.081269619718595504
0.510000000000000342,-0.067819047313612046
0.511000000000000343,-0.054643881073583936
0.512000000000000344,-0.041741844381336934
0.513000000000000345,-0.029110626719410771
0.514000000000000346,-0.016747885473725375
0.515000000000000346,-0.004651247697682703
0.516000000000000347,0.007181688162916267
0.517000000000000348,0.018753350583722694
0.518000000000000349,0.030066193314186918
0.519000000000000350,0.041122693767889129
0.520000000000000351,0.051925351450537449
0.521000000000000352,0.062476686425167530
0.522000000000000353,0.072779237814166925
0.523000000000000353,0.082835562337668645
0.524000000000000354,0.092648232887879309
0.525000000000000355,0.102219837138921091
0.526000000000000356,0.111552976191733391
0.527000000000000357,0.120650263253541737
0.528000000000000358,0.129514322351530292
0.529000000000000359,0.138147787080135781
0.530000000000000360,0.146553299381611685
0.531000000000000361,0.154733508359298361
0.532000000000000361,0.162691069123212573
0.533000000000000362,0.170428641667397601
0.534000000000000363,0.177948889778640040
0.535000000000000364,0.185254479976008996
0.536000000000000365,0.192348080480784722
0.537000000000000366,0.199232360216256038
0.538000000000000367,0.205909987836971980
0.539000000000000368,0.212383630786861483
0.540000000000000369,0.218655954385878287
0.541000000000000369,0.224729620944547681
0.542000000000000370,0.230607288906059527
0.543000000000000371,0.236291612015357894
0.544000000000000372,0.241785238514767936
0.545000000000000373,0.247090810365696523
0.546000000000000374,0.252210962495926672
0.547000000000000375,0.257148322072049740
0.548000000000000376,0.261905507796526549
0.549000000000000377,0.266485129228969053
0.550000000000000377,0.270889786131148835
0.551000000000000378,0.275122067835266548
0.552000000000000379,0.279184552635057592
0.553000000000000380,0.283079807199240974
0.554000000000000381,0.286810386006917106
0.555000000000000382,0.290378830804399524
0.556000000000000383,0.293787670083121288
0.557000000000000384,0.297039418578095404
0.558000000000000385,0.300136576786576015
0.559000000000000385,0.303081630506422672
0.560000000000000386,0.305877050393801919
0.561000000000000387,0.308525291539759938
0.562000000000000388,0.311028793065289910
0.563000000000000389,0.313389977734447933
0.564000000000000390,0.315611251585148522
0.565000000000000391,0.317695003577206425
0.566000000000000392,0.319643605257258878
0.567000000000000393,0.321459410440143700
0.568000000000000393,0.323144754906387222
0.569000000000000394,0.324701956115382773
0.570000000000000395,0.326133312933917174
0.571000000000000396,0.327441105379654873
0.572000000000000397,0.328627594379206855
0.573000000000000398,0.329695021540466704
0.574000000000000399,0.330645608938791025
0.575000000000000400,0.331481558916750685
0.576000000000000401,0.332205053897053015
0.577000000000000401,0.332818256208304908
0.578000000000000402,0.333323307923305279
0.579000000000000403,0.333722330709538995
0.580000000000000404,0.334017425691494285
0.581000000000000405,0.334210673324569274
0.582000000000000406,0.334304133280185711
0.583000000000000407,0.334299844341837793
0.584000000000000408,0.334199824311763316
0.585000000000000409,0.334006069927944627
0.586000000000000409,0.333720556791139100
0.587000000000000410,0.333345239301654050
0.588000000000000411,0.332882050605601776
0.589000000000000412,0.332332902550320941
0.590000000000000413,0.331699685648737419
0.591000000000000414,0.330984269052364943
0.592000000000000415,0.330188500532689666
0.593000000000000416,0.329314206470700865
0.594000000000000417,0.328363191854294245
0.595000000000000417,0.327337240283297970
0.596000000000000418,0.326238113981915046
0.597000000000000419,0.325067553818294219
0.598000000000000420,0.323827279331039497
0.599000000000000421,0.322518988762404313
0.600000000000000422,0.321144359097954191
0.601000000000000423,0.319705046112491620
0.602000000000000424,0.318202684422006721
0.603000000000000425,0.316638887541452363
0.604000000000000425,0.315015247948154387
0.605000000000000426,0.313333337150642599
0.606000000000000427,0.311594705762669233
0.607000000000000428,0.309800883582338149
0.608000000000000429,0.307953379675970196
0.609000000000000430,0.306053682466742916
0.610000000000000431,0.304103259827715466
0.611000000000000432,0.302103559179206838
0.612000000000000433,0.300056007590311757
0.613000000000000433,0.297962011884338795
0.614000000000000434,0.295822958748092113
0.615000000000000435,0.293640214844776204
0.616000000000000436,0.291415126930384460
