# SiO2-Amorphous_CS-16629-AC
# h[nm],U(h)[kJ/mol]
0.149999999999999994,128.728055109513661591
0.150999999999999995,126.573791147305058757
0.151999999999999996,124.258772812131127239
0.152999999999999997,121.937871522207075259
0.153999999999999998,119.666140119565582722
0.154999999999999999,117.452939688789342654
0.156000000000000000,115.290289312823645673
0.157000000000000001,113.166503321075808230
0.158000000000000002,111.071820751649028125
0.159000000000000002,108.999972399360757436
0.160000000000000003,106.947917630780054310
0.161000000000000004,104.914944914244642860
0.162000000000000005,102.901720415928437546
0.163000000000000006,100.909526346740108238
0.164000000000000007,98.939750206753586781
0.165000000000000008,96.993600795186580399
0.166000000000000009,95.071994993142155295
0.167000000000000010,93.175555350375759645
0.168000000000000010,91.304667350452646701
0.169000000000000011,89.459558417126103791
0.170000000000000012,87.640373836282861930
0.171000000000000013,85.847235789448276932
0.172000000000000014,84.080279980795978645
0.173000000000000015,82.339669964680439307
0.174000000000000016,80.625592651642222108
0.175000000000000017,78.938240102694607003
0.176000000000000018,77.277783117713042316
0.177000000000000018,75.644341718254992202
0.178000000000000019,74.037956763390639026
0.179000000000000020,72.458565875448940119
0.180000000000000021,70.905985768627317611
0.181000000000000022,69.379902080337572556
0.182000000000000023,67.879866966366449788
0.183000000000000024,66.405304063470254050
0.184000000000000025,64.955519948941997654
0.185000000000000026,63.529720922073842360
0.186000000000000026,62.127033774317943937
0.187000000000000027,60.746529176316016674
0.188000000000000028,59.387246363224370782
0.189000000000000029,58.048217918983333163
0.190000000000000030,56.728493622402595520
0.191000000000000031,55.427162503803458549
0.192000000000000032,54.143372454893778922
0.193000000000000033,52.876346924577923403
0.194000000000000034,51.625398410852383790
0.195000000000000034,50.389938617963899503
0.196000000000000035,49.169485285158529564
0.197000000000000036,47.963665807072047187
0.198000000000000037,46.772217856025562810
0.199000000000000038,45.594987284201117461
0.200000000000000039,44.431923630643694878
0.201000000000000040,43.283073586505700803
0.202000000000000041,42.148572784416273862
0.203000000000000042,41.028636276903860391
0.204000000000000042,39.923548056958360064
0.205000000000000043,38.833649953492454188
0.206000000000000044,37.759330207842324967
0.207000000000000045,36.701012006499482254
0.208000000000000046,35.659142211689385249
0.209000000000000047,34.634180496651914893
0.210000000000000048,33.626589057726995691
0.211000000000000049,32.636823041560830916
0.212000000000000050,31.665321793660893945
0.213000000000000050,30.712501004692285278
0.214000000000000051,29.778745803694782524
0.215000000000000052,28.864404823047113524
0.216000000000000053,27.969785238621049928
0.217000000000000054,27.095148770167508445
0.218000000000000055,26.240708611491818658
0.219000000000000056,25.406627247282340676
0.220000000000000057,24.593015103377101838
0.221000000000000058,23.799929969592973578
0.222000000000000058,23.027377128766755021
0.223000000000000059,22.275310122143530123
0.224000000000000060,21.543632079451537464
0.225000000000000061,20.832197541696007903
0.226000000000000062,20.140814705660709194
0.227000000000000063,19.469248021115269864
0.228000000000000064,18.817221074590268159
0.229000000000000065,18.184419697119484027
0.230000000000000066,17.570495237397746990
0.231000000000000066,16.975067946214778658
0.232000000000000067,16.397730422673813422
0.233000000000000068,15.838051077475441275
0.234000000000000069,15.295577573346458067
0.235000000000000070,14.769840207440314117
0.236000000000000071,14.260355205163360637
0.237000000000000072,13.766627899334135776
0.238000000000000073,13.288155772821099276
0.239000000000000073,12.824431346795034159
0.240000000000000074,12.374944900449873941
0.241000000000000075,11.939187011480290934
0.242000000000000076,11.516650909742736530
0.243000000000000077,11.106834639369191464
0.244000000000000078,10.709243027151416072
0.245000000000000079,10.323389457274336323
0.246000000000000080,9.948797454460560630
0.247000000000000081,9.585002079305356304
0.248000000000000081,9.231551141047884101
0.249000000000000082,8.888006234255337645
0.250000000000000111,8.553943606907891350
0.251000000000000112,8.228954868182309923
0.252000000000000113,7.912647544855661685
0.253000000000000114,7.604645495709047687
0.254000000000000115,7.304589193615906417
0.255000000000000115,7.012135885172104288
0.256000000000000116,6.726959637777099488
0.257000000000000117,6.448751284024308639
0.258000000000000118,6.177218273117910385
0.259000000000000119,5.912084438814920517
0.260000000000000120,5.653089693108592328
0.261000000000000121,5.399989654533536410
0.262000000000000122,5.152555219592960256
0.263000000000000123,4.910572085396139208
0.264000000000000123,4.673840231154878566
0.265000000000000124,4.442173365732073442
0.266000000000000125,4.215398347967412640
0.267000000000000126,3.993354586032909825
0.268000000000000127,3.775893421597626975
0.269000000000000128,3.562877504112867744
0.270000000000000129,3.354180160068633398
0.271000000000000130,3.149684761623020357
0.272000000000000131,2.949284098571783197
0.273000000000000131,2.752879757206350586
0.274000000000000132,2.560381509208374595
0.275000000000000133,2.371706713347264905
0.276000000000000134,2.186779732386382680
0.277000000000000135,2.005531367263743370
0.278000000000000136,1.827898310293961881
0.279000000000000137,1.653822618841155556
0.280000000000000138,1.483251210636695516
0.281000000000000139,1.316135381660521686
0.282000000000000139,1.152430347270924527
0.283000000000000140,0.992094807053287120
0.284000000000000141,0.835090533663902290
0.285000000000000142,0.681381985768885756
0.286000000000000143,0.530935945020149513
0.287000000000000144,0.383721176869666780
0.288000000000000145,0.239708114897870056
0.289000000000000146,0.098868568223087566
0.290000000000000147,-0.038824548537106110
0.291000000000000147,-0.173397463363064996
0.292000000000000148,-0.304875773669347538
0.293000000000000149,-0.433284652618035726
0.294000000000000150,-0.558649035694720242
0.295000000000000151,-0.680993788370200304
0.296000000000000152,-0.800343855699342854
0.297000000000000153,-0.916724394729098391
0.298000000000000154,-1.030160890600499091
0.299000000000000155,-1.140679257235848842
0.300000000000000155,-1.248305923502625481
0.301000000000000156,-1.353067905740445331
0.302000000000000157,-1.454992867528030587
0.303000000000000158,-1.554109167552879978
0.304000000000000159,-1.650445896429224124
0.305000000000000160,-1.744032903288940561
0.306000000000000161,-1.834900812947158455
0.307000000000000162,-1.923081034418762769
0.308000000000000163,-2.008605761534673295
0.309000000000000163,-2.091507966378169492
0.310000000000000164,-2.171821386231705731
0.311000000000000165,-2.249580504693867944
0.312000000000000166,-2.324820527595013786
0.313000000000000167,-2.397577354308507935
0.314000000000000168,-2.467887545022775964
0.315000000000000169,-2.535788284507863644
0.316000000000000170,-2.601317342878922467
0.317000000000000171,-2.664513033828019850
0.318000000000000171,-2.725414170765307009
0.319000000000000172,-2.784060021281093533
0.320000000000000173,-2.840490260311103299
0.321000000000000174,-2.894744922359249628
0.322000000000000175,-2.946864353105048462
0.323000000000000176,-2.996889160696440069
0.324000000000000177,-3.044860167003600626
0.325000000000000178,-3.090818359084969380
0.326000000000000179,-3.134804841093771888
0.327000000000000179,-3.176860786830913774
0.328000000000000180,-3.217027393129276991
0.329000000000000181,-3.255345834234559366
0.330000000000000182,-3.291857217328586049
0.331000000000000183,-3.326602539323687324
0.332000000000000184,-3.359622645039497257
0.333000000000000185,-3.390958186858044510
0.334000000000000186,-3.420649585938225101
0.335000000000000187,-3.448736995056861154
0.336000000000000187,-3.475260263130930838
0.337000000000000188,-3.500258901463320971
0.338000000000000189,-3.523772051743834233
0.339000000000000190,-3.545838455826738844
0.340000000000000191,-3.566496427296757421
0.341000000000000192,-3.585783824827143640
0.342000000000000193,-3.603738027325256610
0.343000000000000194,-3.620395910854364185
0.344000000000000195,-3.635793827313451576
0.345000000000000195,-3.649967584851684599
0.346000000000000196,-3.662952429988325154
0.347000000000000197,-3.674783031404762479
0.348000000000000198,-3.685493465371069810
0.349000000000000199,-3.695117202765868747
0.350000000000000200,-3.703687097645406823
0.351000000000000201,-3.711235377314916484
0.352000000000000202,-3.717793633853128110
0.353000000000000203,-3.723392817039135050
0.354000000000000203,-3.728063228629116654
0.355000000000000204,-3.731834517929351058
0.356000000000000205,-3.734735678611154519
0.357000000000000206,-3.736795046712882318
0.358000000000000207,-3.738040299773482733
0.359000000000000208,-3.738498457042532586
0.360000000000000209,-3.738195880711479013
0.361000000000000210,-3.737158278111183840
0.362000000000000210,-3.735410704821612082
0.363000000000000211,-3.732977568639884058
0.364000000000000212,-3.729882634354036774
0.365000000000000213,-3.726149029270498403
0.366000000000000214,-3.721799249444600832
0.367000000000000215,-3.716855166564377644
0.368000000000000216,-3.711338035439410987
0.369000000000000217,-3.705268502047471824
0.370000000000000218,-3.698666612093422401
0.371000000000000218,-3.691551820035962717
0.372000000000000219,-3.683942998539513347
0.373000000000000220,-3.675858448309918369
0.374000000000000221,-3.667315908274174863
0.375000000000000222,-3.658332566065889857
0.376000000000000223,-3.648925068779931280
0.377000000000000224,-3.639109533960992682
0.378000000000000225,-3.628901560792551440
0.379000000000000226,-3.618316241454150539
0.380000000000000226,-3.607368172616588708
0.381000000000000227,-3.596071467045812931
0.382000000000000228,-3.584439765288256918
0.383000000000000229,-3.572486247411408300
0.384000000000000230,-3.560223644775003748
0.385000000000000231,-3.547664251809838909
0.386000000000000232,-3.534819937782125887
0.387000000000000233,-3.521702158523161152
0.388000000000000234,-3.508321968104944233
0.389000000000000234,-3.494690030444057349
0.390000000000000235,-3.480816630816941704
0.391000000000000236,-3.466711687271295972
0.392000000000000237,-3.452384761919121026
0.393000000000000238,-3.437845072098371535
0.394000000000000239,-3.423101501390932278
0.395000000000000240,-3.408162610485943933
0.396000000000000241,-3.393036647878337142
0.397000000000000242,-3.377731560393358201
0.398000000000000242,-3.362255003528988428
0.399000000000000243,-3.346614351608713012
0.400000000000000244,-3.330816707738180504
0.401000000000000245,-3.314868913560067742
0.402000000000000246,-3.298777558801963661
0.403000000000000247,-3.282548990613160189
0.404000000000000248,-3.266189322686636309
0.405000000000000249,-3.249704444163339367
0.406000000000000250,-3.233100028316314045
0.407000000000000250,-3.216381541012990564
0.408000000000000251,-3.199554248954290525
0.409000000000000252,-3.182623227689890477
0.410000000000000253,-3.165593369409301694
0.411000000000000254,-3.148469390509009980
0.412000000000000255,-3.131255838936206626
0.413000000000000256,-3.113957101310181219
0.414000000000000257,-3.096577409822582450
0.415000000000000258,-3.079120848918401432
0.416000000000000258,-3.061591361759498753
0.417000000000000259,-3.043992756473046235
0.418000000000000260,-3.026328712187397407
0.419000000000000261,-3.008602784858136481
0.420000000000000262,-2.990818412887312761
0.421000000000000263,-2.972978922539088575
0.422000000000000264,-2.955087533155080770
0.423000000000000265,-2.937147362172994214
0.424000000000000266,-2.919161429952244369
0.425000000000000266,-2.901132664410271733
0.426000000000000267,-2.883063905473544519
0.427000000000000268,-2.864957909347229492
0.428000000000000269,-2.846817352607585949
0.429000000000000270,-2.828644836121303019
0.430000000000000271,-2.810442888795923189
0.431000000000000272,-2.792213971165662834
0.432000000000000273,-2.773960478816867248
0.433000000000000274,-2.755684745657473567
0.434000000000000274,-2.737389047034734624
0.435000000000000275,-2.719075602705573580
0.436000000000000276,-2.700746579663902747
0.437000000000000277,-2.682404094829150321
0.438000000000000278,-2.664050217600350656
0.439000000000000279,-2.645686972280045346
0.440000000000000280,-2.627316340372175318
0.441000000000000281,-2.608940262758188133
0.442000000000000282,-2.590560641755550453
0.443000000000000282,-2.572179343062622081
0.444000000000000283,-2.553798197594095321
0.445000000000000284,-2.535419003210859223
0.446000000000000285,-2.517043526348221150
0.447000000000000286,-2.498673503546458008
0.448000000000000287,-2.480310642887265882
0.449000000000000288,-2.461956625340064431
0.450000000000000289,-2.443613106021595982
0.451000000000000290,-2.425281715372501257
0.452000000000000290,-2.406964060254339621
0.453000000000000291,-2.388661724970425837
0.454000000000000292,-2.370376272213873925
0.455000000000000293,-2.352109243946043371
0.456000000000000294,-2.333862162208592661
0.457000000000000295,-2.315636529872235005
0.458000000000000296,-2.297433831325149889
0.459000000000000297,-2.279255533104058262
0.460000000000000298,-2.261103084470709845
0.461000000000000298,-2.242977917936620713
0.462000000000000299,-2.224881449738699946
0.463000000000000300,-2.206815080268345053
0.464000000000000301,-2.188780194456575678
0.465000000000000302,-2.170778162117595667
0.466000000000000303,-2.152810338253144273
0.467000000000000304,-2.134878063319935571
0.468000000000000305,-2.116982663462368741
0.469000000000000306,-2.099125450712611141
0.470000000000000306,-2.081307723160187528
0.471000000000000307,-2.063530765092898456
0.472000000000000308,-2.045795847111137711
0.473000000000000309,-2.028104226217307460
0.474000000000000310,-2.010457145882145635
0.475000000000000311,-1.992855836089638899
0.476000000000000312,-1.975301513362181183
0.477000000000000313,-1.957795380767453963
0.478000000000000314,-1.940338627908579472
0.479000000000000314,-1.922932430898978584
0.480000000000000315,-1.905577952323232349
0.481000000000000316,-1.888276341185347151
0.482000000000000317,-1.871028732845567699
0.483000000000000318,-1.853836248947013488
0.484000000000000319,-1.836699997333199663
0.485000000000000320,-1.819621071957586711
0.486000000000000321,-1.802600552786131960
0.487000000000000322,-1.785639505693852325
0.488000000000000322,-1.768738982356265366
0.489000000000000323,-1.751900020136690994
0.490000000000000324,-1.735123641970132358
0.491000000000000325,-1.718410856244599660
0.492000000000000326,-1.701762656680540386
0.493000000000000327,-1.685180022209182171
0.494000000000000328,-1.668663916850327222
0.495000000000000329,-1.652215289590316161
0.496000000000000330,-1.635835074260655775
0.497000000000000330,-1.619524189417953064
0.498000000000000331,-1.603283538225526383
0.499000000000000332,-1.587114008337325632
0.500000000000000333,-1.571016471784483448
0.501000000000000334,-1.554991784864936832
0.502000000000000335,-1.539040788036523999
0.503000000000000336,-1.523164305813891728
0.504000000000000337,-1.507363146669516984
0.505000000000000338,-1.491638102939152999
0.506000000000000338,-1.475989950731979361
0.507000000000000339,-1.460419449845673512
0.508000000000000340,-1.444927343686622345
0.509000000000000341,-1.429514359195539042
0.510000000000000342,-1.414181206778547306
0.511000000000000343,-1.398928580243995246
0.512000000000000344,-1.383757156745059280
0.513000000000000345,-1.368667596728293967
0.514000000000000346,-1.353660543888244749
0.515000000000000346,-1.338736625128141178
0.516000000000000347,-1.323896450526784507
0.517000000000000348,-1.309140613311716939
0.518000000000000349,-1.294469689838587900
0.519000000000000350,-1.279884239576890348
0.520000000000000351,-1.265384805101950949
0.521000000000000352,-1.250971912093274074
0.522000000000000353,-1.236646069339129017
0.523000000000000353,-1.222407768747432844
0.524000000000000354,-1.208257485362875361
0.525000000000000355,-1.194195677390203603
0.526000000000000356,-1.180222786223655174
0.527000000000000357,-1.166339236482488717
0.528000000000000358,-1.152545436052470951
0.529000000000000359,-1.138841776133348027
0.530000000000000360,-1.125228631292109593
0.531000000000000361,-1.111706359522053766
0.532000000000000361,-1.098275302307474499
0.533000000000000362,-1.084935784693937588
0.534000000000000363,-1.071688115363996996
0.535000000000000364,-1.058532586718253565
0.536000000000000365,-1.045469474961649770
0.537000000000000366,-1.032499040194881035
0.538000000000000367,-1.019621526510766651
0.539000000000000368,-1.006837162095550742
0.540000000000000369,-0.994146159334865054
0.541000000000000369,-0.981548714924378229
0.542000000000000370,-0.969045009984868977
0.543000000000000371,-0.956635210181670859
0.544000000000000372,-0.944319465848337258
0.545000000000000373,-0.932097912114374871
0.546000000000000374,-0.919970669036921374
0.547000000000000375,-0.907937841736215390
0.548000000000000376,-0.895999520534770388
0.549000000000000377,-0.884155781100051108
0.550000000000000377,-0.872406684590545267
0.551000000000000378,-0.860752277805099331
0.552000000000000379,-0.849192593335379220
0.553000000000000380,-0.837727649721304091
0.554000000000000381,-0.826357451609317506
0.555000000000000382,-0.815081989913415628
0.556000000000000383,-0.803901241978683290
0.557000000000000384,-0.792815171747354164
0.558000000000000385,-0.781823729927117128
0.559000000000000385,-0.770926854161653963
0.560000000000000386,-0.760124469203206310
0.561000000000000387,-0.749416487087085637
0.562000000000000388,-0.738802807307970655
0.563000000000000389,-0.728283316997900831
0.564000000000000390,-0.717857891105809331
0.565000000000000391,-0.707526392578507357
0.566000000000000392,-0.697288672542965449
0.567000000000000393,-0.687144570489830797
0.568000000000000393,-0.677093914457993384
0.569000000000000394,-0.667136521220148548
0.570000000000000395,-0.657272196469230963
0.571000000000000396,-0.647500735005577255
0.572000000000000397,-0.637821920924782737
0.573000000000000398,-0.628235527806059957
0.574000000000000399,-0.618741318901092852
0.575000000000000400,-0.609339047323193772
0.576000000000000401,-0.600028456236734065
0.577000000000000401,-0.590809279046749625
0.578000000000000402,-0.581681239588584198
0.579000000000000403,-0.572644052317505370
0.580000000000000404,-0.563697422498251388
0.581000000000000405,-0.554841046394333959
0.582000000000000406,-0.546074611457097570
0.583000000000000407,-0.537397796514396342
0.584000000000000408,-0.528810271958856437
0.585000000000000409,-0.520311699935609662
0.586000000000000409,-0.511901734529444097
0.587000000000000410,-0.503580021951319012
0.588000000000000411,-0.495346200724119501
0.589000000000000412,-0.487199901867662544
0.590000000000000413,-0.479140749082805351
0.591000000000000414,-0.471168358934665465
0.592000000000000415,-0.463282341034862211
0.593000000000000416,-0.455482298222704973
0.594000000000000417,-0.447767826745296138
0.595000000000000417,-0.440138516436527460
0.596000000000000418,-0.432593950894808732
0.597000000000000419,-0.425133707659632265
0.598000000000000420,-0.417757358386777411
0.599000000000000421,-0.410464469022229939
0.600000000000000422,-0.403254599974687988
0.601000000000000423,-0.396127306286659819
0.602000000000000424,-0.389082137804097672
0.603000000000000425,-0.382118639344543432
0.604000000000000425,-0.375236350863716261
0.605000000000000426,-0.368434807620548477
0.606000000000000427,-0.361713540340643236
0.607000000000000428,-0.355072075378022156
0.608000000000000429,-0.348509934875334160
0.609000000000000430,-0.342026636922245442
0.610000000000000431,-0.335621695712226831
0.611000000000000432,-0.329294621697542644
0.612000000000000433,-0.323044921742482560
0.613000000000000433,-0.316872099274852048
