# SiO2-Amorphous_CS-20788-AC
# h[nm],U(h)[kJ/mol]
0.149999999999999994,136.460598356739666315
0.150999999999999995,133.823260505233520234
0.151999999999999996,131.929578043573485502
0.152999999999999997,130.237727053928352916
0.153999999999999998,128.522294589204705062
0.154999999999999999,126.720615927804757916
0.156000000000000000,124.843722093435843590
0.157000000000000001,122.927637182010286665
0.158000000000000002,121.009100917399592845
0.159000000000000002,119.115455681263938459
0.160000000000000003,117.262240415204857413
0.161000000000000004,115.454551414119208630
0.162000000000000005,113.689867605346847768
0.163000000000000006,111.961079557045806609
0.164000000000000007,110.259104839828864897
0.165000000000000008,108.574853844276645987
0.166000000000000009,106.900522889574176588
0.167000000000000010,105.230298333697305679
0.168000000000000010,103.560598257956343105
0.169000000000000011,101.889984490130700578
0.170000000000000012,100.218864702081305040
0.171000000000000013,98.549082860881213719
0.172000000000000014,96.883472804112528820
0.173000000000000015,95.225427659304699546
0.174000000000000016,93.578518929654123326
0.175000000000000017,91.946183912192097409
0.176000000000000018,90.331488651212609398
0.177000000000000018,88.736965474015576660
0.178000000000000019,87.164518776902866648
0.179000000000000020,85.615389564256432209
0.180000000000000021,84.090167762586972344
0.181000000000000022,82.588841069910969850
0.182000000000000023,81.110869671360006805
0.183000000000000024,79.655277244990344343
0.184000000000000025,78.220750059371553675
0.185000000000000026,76.805737450927807686
0.186000000000000026,75.408548440244231870
0.187000000000000027,74.027440620356586010
0.188000000000000028,72.660698676552101460
0.189000000000000029,71.306700950973123554
0.190000000000000030,69.963973338596531448
0.191000000000000031,68.631230498521546224
0.192000000000000032,67.307404898529284765
0.193000000000000033,65.991664598923520657
0.194000000000000034,64.683420943401742420
0.195000000000000034,63.382327480384084595
0.196000000000000035,62.088271507470764732
0.197000000000000036,60.801359632719517379
0.198000000000000037,59.521898695583601580
0.199000000000000038,58.250373301888359379
0.200000000000000039,56.987421113282536567
0.201000000000000040,55.733806902231506797
0.202000000000000041,54.490396246957480741
0.203000000000000042,53.258129603169969357
0.204000000000000042,52.037997355824757051
0.205000000000000043,50.831016328053436837
0.206000000000000044,49.638208108248065287
0.207000000000000045,48.460579451598029266
0.208000000000000046,47.299104919941484582
0.209000000000000047,46.154711843824387074
0.210000000000000048,45.028267622921063662
0.211000000000000049,43.920569324905599728
0.212000000000000050,42.832335497681107483
0.213000000000000050,41.764200074644904248
0.214000000000000051,40.716708226367302359
0.215000000000000052,39.690313993641389345
0.216000000000000053,38.685379525275301660
0.217000000000000054,37.702175738235908398
0.218000000000000055,36.740884216862568223
0.219000000000000056,35.801600170969756221
0.220000000000000057,34.884336278939763076
0.221000000000000058,33.989027250662779522
0.222000000000000058,33.115534955761205538
0.223000000000000059,32.263653974400241964
0.224000000000000060,31.433117440651756169
0.225000000000000061,30.623603061449916396
0.226000000000000062,29.834739207319024956
0.227000000000000063,29.066110983998413531
0.228000000000000064,28.317266206619812863
0.229000000000000065,27.587721210042040809
0.230000000000000066,26.876966440196202512
0.231000000000000066,26.184471781751149422
0.232000000000000067,25.509691587022395254
0.233000000000000068,24.852069379785920233
0.234000000000000069,24.211042215517359466
0.235000000000000070,23.586044686565220019
0.236000000000000071,22.976512566910798796
0.237000000000000072,22.381886096500576144
0.238000000000000073,21.801612909705372800
0.239000000000000073,21.235150616312616023
0.240000000000000074,20.681969046645271249
0.241000000000000075,20.141552174982415124
0.242000000000000076,19.613399737483938168
0.243000000000000077,19.097028562353301595
0.244000000000000078,18.591973631060774608
0.245000000000000079,18.097788890147320728
0.246000000000000080,17.614047833486303318
0.247000000000000081,17.140343874941144975
0.248000000000000081,16.676290531168071141
0.249000000000000082,16.221521433911838983
0.250000000000000111,15.775690190566198368
0.251000000000000112,15.338470111053933209
0.252000000000000113,14.909553818251197299
0.253000000000000114,14.488652758268298015
0.254000000000000115,14.075496625922593097
0.255000000000000115,13.669832719724391623
0.256000000000000116,13.271425239658523054
0.257000000000000117,12.880054539999187924
0.258000000000000118,12.495516348358304271
0.259000000000000119,12.117620961146394976
0.260000000000000120,11.746192424631272999
0.261000000000000121,11.381067709820936074
0.262000000000000122,11.022095888477242198
0.263000000000000123,10.669137316693285911
0.264000000000000123,10.322062831640392844
0.265000000000000124,9.980752966315522556
0.266000000000000125,9.645097186395137356
0.267000000000000126,9.314993152630254514
0.268000000000000127,8.990346011597043940
0.269000000000000128,8.671067717049670165
0.270000000000000129,8.357076383603779135
0.271000000000000130,8.048295674009455780
0.272000000000000131,7.744654220850617499
0.273000000000000131,7.446085083129490911
0.274000000000000132,7.152525237860224649
0.275000000000000133,6.863915106500075858
0.276000000000000134,6.580198115789345437
0.277000000000000135,6.301320292349131158
0.278000000000000136,6.027229890195780371
0.279000000000000137,5.757877050171408939
0.280000000000000138,5.493213490158231238
0.281000000000000139,5.233192224837177164
0.282000000000000139,4.977767313668095994
0.283000000000000140,4.726893635705579300
0.284000000000000141,4.480526689820512942
0.285000000000000142,4.238622418869733899
0.286000000000000143,4.001137056343612386
0.287000000000000144,3.768026994021877130
0.288000000000000145,3.539248669179376527
0.289000000000000146,3.314758469905923821
0.290000000000000147,3.094512657133740241
0.291000000000000147,2.878467302004128925
0.292000000000000148,2.666578237247728023
0.293000000000000149,2.458801021301622924
0.294000000000000150,2.255090913938238906
0.295000000000000151,2.055402862236548334
0.296000000000000152,1.859691495783341253
0.297000000000000153,1.667911130051497937
0.298000000000000154,1.480015776961811635
0.299000000000000155,1.295959161695254824
0.300000000000000155,1.115694744882402389
0.301000000000000156,0.939175749356317313
0.302000000000000157,0.766355190713227108
0.303000000000000158,0.597185910982823920
0.304000000000000159,0.431620614765182098
0.305000000000000160,0.269611907245347115
0.306000000000000161,0.111112333548249301
0.307000000000000162,-0.043925581053721484
0.308000000000000163,-0.195549290520453445
0.309000000000000163,-0.343806187406140551
0.310000000000000164,-0.488743562555652378
0.311000000000000165,-0.630408565446710645
0.312000000000000166,-0.768848165451353704
0.313000000000000167,-0.904109114254311175
0.314000000000000168,-1.036237909632430121
0.315000000000000169,-1.165280760768288237
0.316000000000000170,-1.291283555242178638
0.317000000000000171,-1.414291827819889047
0.318000000000000171,-1.534350731129067169
0.319000000000000172,-1.651505008294668952
0.320000000000000173,-1.765798967582986823
0.321000000000000174,-1.877276459085289062
0.322000000000000175,-1.985980853455100004
0.323000000000000176,-2.091955022697866262
0.324000000000000177,-2.195241322998134681
0.325000000000000178,-2.295881579557146335
0.326000000000000179,-2.393917073403315054
0.327000000000000179,-2.489388530128314070
0.328000000000000180,-2.582336110493686387
0.329000000000000181,-2.672799402845885020
0.330000000000000182,-2.760817417271577145
0.331000000000000183,-2.846428581420595183
0.332000000000000184,-2.929670737919553680
0.333000000000000185,-3.010581143296314099
0.334000000000000186,-3.089196468333200052
0.335000000000000187,-3.165552799765043446
0.336000000000000187,-3.239685643237588231
0.337000000000000188,-3.311629927440864041
0.338000000000000189,-3.381420009332897880
0.339000000000000190,-3.449089680369417543
0.340000000000000191,-3.514672173656197884
0.341000000000000192,-3.578200171942449437
0.342000000000000193,-3.639705816375077063
0.343000000000000194,-3.699220715935951809
0.344000000000000195,-3.756775957486179429
0.345000000000000195,-3.812402116344516312
0.346000000000000196,-3.866129267328948682
0.347000000000000197,-3.917986996193904226
0.348000000000000198,-3.968004411398052156
0.349000000000000199,-4.016210156140824772
0.350000000000000200,-4.062632420608825790
0.351000000000000201,-4.107298954376339850
0.352000000000000202,-4.150237078907254684
0.353000000000000203,-4.191473700108910627
0.354000000000000203,-4.231035320891447959
0.355000000000000204,-4.268948053689138433
0.356000000000000205,-4.305237632903487821
0.357000000000000206,-4.339929427230755365
0.358000000000000207,-4.373048451839229855
0.359000000000000208,-4.404619380364819037
0.360000000000000209,-4.434666556696062578
0.361000000000000210,-4.463214006522250976
0.362000000000000210,-4.490285448621202491
0.363000000000000211,-4.515904305865438673
0.364000000000000212,-4.540093715928199103
0.365000000000000213,-4.562876541672677533
0.366000000000000214,-4.584275381210423106
0.367000000000000215,-4.604312577616606283
0.368000000000000216,-4.623010228292128154
0.369000000000000217,-4.640390193964163856
0.370000000000000218,-4.656474107318778977
0.371000000000000218,-4.671283381260619372
0.372000000000000219,-4.684839216796578221
0.373000000000000220,-4.697162610541631977
0.374000000000000221,-4.708274361846423339
0.375000000000000222,-4.718195079547421678
0.376000000000000223,-4.726945188341947102
0.377000000000000224,-4.734544934791037996
0.378000000000000225,-4.741014392954475021
0.379000000000000226,-4.746373469663018874
0.380000000000000226,-4.750641909434001775
0.381000000000000227,-4.753839299036768828
0.382000000000000228,-4.755985071715693735
0.383000000000000229,-4.757098511078668324
0.384000000000000230,-4.757198754659697215
0.385000000000000231,-4.756304797164873754
0.386000000000000232,-4.754435493411062197
0.387000000000000233,-4.751609560967430923
0.388000000000000234,-4.747845582509841122
0.389000000000000234,-4.743162007898799715
0.390000000000000235,-4.737577155991488986
0.391000000000000236,-4.731109216198881029
0.392000000000000237,-4.723776249798791405
0.393000000000000238,-4.715596191016085292
0.394000000000000239,-4.706586847880933178
0.395000000000000240,-4.696765902876421706
0.396000000000000241,-4.686150913386471828
0.397000000000000242,-4.674759311955062557
0.398000000000000242,-4.662608406367811043
0.399000000000000243,-4.649715379566546680
0.400000000000000244,-4.636097289407664412
0.401000000000000245,-4.621771068274766137
0.402000000000000246,-4.606753522555827374
0.403000000000000247,-4.591061331995111239
0.404000000000000248,-4.574711048929702706
0.405000000000000249,-4.557719097420374510
0.406000000000000250,-4.540101772286189608
0.407000000000000250,-4.521875238052089685
0.408000000000000251,-4.503055527818355941
0.409000000000000252,-4.483658542060650731
0.410000000000000253,-4.463700047368992507
0.411000000000000254,-4.443195675133798872
0.412000000000000255,-4.422160920186786193
0.413000000000000256,-4.400611139404331240
0.414000000000000257,-4.378561550280410941
0.415000000000000258,-4.356027229476234552
0.416000000000000258,-4.333023111353062617
0.417000000000000259,-4.309563986494700849
0.418000000000000260,-4.285664500225670359
0.419000000000000261,-4.261339151130870029
0.420000000000000262,-4.236602289582206637
0.421000000000000263,-4.211468116277466756
0.422000000000000264,-4.185950680796254986
0.423000000000000265,-4.160063880177743201
0.424000000000000266,-4.133821457524637033
0.425000000000000266,-4.107237000637365298
0.426000000000000267,-4.080323940682488271
0.427000000000000268,-4.053095550898822452
0.428000000000000269,-4.025564945344687118
0.429000000000000270,-3.997745077689418558
0.430000000000000271,-3.969648740051918256
0.431000000000000272,-3.941288561889000341
0.432000000000000273,-3.912677008935865786
0.433000000000000274,-3.883826382200997962
0.434000000000000274,-3.854748817017354945
0.435000000000000275,-3.825456282151770804
0.436000000000000276,-3.795960578974091781
0.437000000000000277,-3.766273340687445792
0.438000000000000278,-3.736406031620906898
0.439000000000000279,-3.706369946585605923
0.440000000000000280,-3.676176210295107438
0.441000000000000281,-3.645835776850820942
0.442000000000000282,-3.615359429293051985
0.443000000000000282,-3.584757779217977891
0.444000000000000283,-3.554041266460978399
0.445000000000000284,-3.523220158846373629
0.446000000000000285,-3.492304552003543172
0.447000000000000286,-3.461304369249499580
0.448000000000000287,-3.430229361537439736
0.449000000000000288,-3.399089107471193305
0.450000000000000289,-3.367893013384930523
0.451000000000000290,-3.336650313487735442
0.452000000000000290,-3.305370070072375821
0.453000000000000291,-3.274061173787521373
0.454000000000000292,-3.242732343972717590
0.455000000000000293,-3.211392129055151035
0.456000000000000294,-3.180048907007337000
0.457000000000000295,-3.148710885864736131
0.458000000000000296,-3.117386104302179994
0.459000000000000297,-3.086082432268088205
0.460000000000000298,-3.054807571675204336
0.461000000000000298,-3.023569057146754169
0.462000000000000299,-2.992374256816697553
0.463000000000000300,-2.961230373182784259
0.464000000000000301,-2.930144444011144600
0.465000000000000302,-2.899123343291029276
0.466000000000000303,-2.868173782238284453
0.467000000000000304,-2.837302310346220491
0.468000000000000305,-2.806515316482408373
0.469000000000000306,-2.775819030029943679
0.470000000000000306,-2.745219522071832507
0.471000000000000307,-2.714722706616831793
0.472000000000000308,-2.684334341865496132
0.473000000000000309,-2.654060031514779538
0.474000000000000310,-2.623905226099796373
0.475000000000000311,-2.593875224371191557
0.476000000000000312,-2.563975174706763838
0.477000000000000313,-2.534210076555672764
0.478000000000000314,-2.504584781913901104
0.479000000000000314,-2.475103996829491670
0.480000000000000315,-2.445772282935999353
0.481000000000000316,-2.416594059012850515
0.482000000000000317,-2.387573602571054554
0.483000000000000318,-2.358715051462931811
0.484000000000000319,-2.330022405514387884
0.485000000000000320,-2.301499528178404752
0.486000000000000321,-2.273150148208331167
0.487000000000000322,-2.244977861349657378
0.488000000000000322,-2.216986132048851310
0.489000000000000323,-2.189178295178117573
0.490000000000000324,-2.161557557774600902
0.491000000000000325,-2.134127000792891860
0.492000000000000326,-2.106889580869505174
0.493000000000000327,-2.079848132098199187
0.494000000000000328,-2.053005367814844551
0.495000000000000329,-2.026363882390751492
0.496000000000000330,-1.999926153033224852
0.497000000000000330,-1.973694541592341256
0.498000000000000331,-1.947671296372677219
0.499000000000000332,-1.921858553949132187
0.500000000000000333,-1.896258340985640611
0.501000000000000334,-1.870872576055782277
0.502000000000000335,-1.845703071464380951
0.503000000000000336,-1.820751535069051075
0.504000000000000337,-1.796019572100771899
0.505000000000000338,-1.771508686982594671
0.506000000000000338,-1.747220285145605345
0.507000000000000339,-1.723155674841249763
0.508000000000000340,-1.699316068949209724
0.509000000000000341,-1.675702586780092318
0.510000000000000342,-1.652316255872019912
0.511000000000000343,-1.629158013780510172
0.512000000000000344,-1.606228709860819226
0.513000000000000345,-1.583529107042101369
0.514000000000000346,-1.561059883592737396
0.515000000000000346,-1.538821634876093247
0.516000000000000347,-1.516814875096165416
0.517000000000000348,-1.495040039032537793
0.518000000000000349,-1.473497483763940519
0.519000000000000350,-1.452187490380044910
0.520000000000000351,-1.431110265680805238
0.521000000000000352,-1.410265943862979210
0.522000000000000353,-1.389654588193239393
0.523000000000000353,-1.369276192667474579
0.524000000000000354,-1.349130683655874297
0.525000000000000355,-1.329217921533296876
0.526000000000000356,-1.309537702294599537
0.527000000000000357,-1.290089759154579241
0.528000000000000358,-1.270873764132053996
0.529000000000000359,-1.251889329617933866
0.530000000000000360,-1.233136009926791399
0.531000000000000361,-1.214613302831788699
0.532000000000000361,-1.196320651082574127
0.533000000000000362,-1.178257443905993185
0.534000000000000363,-1.160423018489293634
0.535000000000000364,-1.142816661445666737
0.536000000000000365,-1.125437610261885046
0.537000000000000366,-1.108285054727898622
0.538000000000000367,-1.091358138348130336
0.539000000000000368,-1.074655959734466704
0.540000000000000369,-1.058177573980626729
0.541000000000000369,-1.041921994017957154
0.542000000000000370,-1.025888191952416539
0.543000000000000371,-1.010075100382723523
0.544000000000000372,-0.994481613699578437
0.545000000000000373,-0.979106589365885682
0.546000000000000374,-0.963948849177903355
0.547000000000000375,-0.949007180507302928
0.548000000000000376,-0.934280337524135751
0.549000000000000377,-0.919767042400612356
0.550000000000000377,-0.905465986495755049
0.551000000000000378,-0.891375831520898720
0.552000000000000379,-0.877495210686068061
0.553000000000000380,-0.863822729827244395
0.554000000000000381,-0.850356968514538791
0.555000000000000382,-0.837096481141392679
0.556000000000000383,-0.824039797994723378
0.557000000000000384,-0.811185426306246127
0.558000000000000385,-0.798531851284861260
0.559000000000000385,-0.786077537130348225
0.560000000000000386,-0.773820928028336352
0.561000000000000387,-0.761760449126699268
0.562000000000000388,-0.749894507493459428
0.563000000000000389,-0.738221493056316680
0.564000000000000390,-0.726739779523894569
0.565000000000000391,-0.715447725288849923
0.566000000000000392,-0.704343674312933321
0.567000000000000393,-0.693425956994198400
0.568000000000000393,-0.682692891016396075
0.569000000000000394,-0.672142782180788600
0.570000000000000395,-0.661773925220480730
0.571000000000000396,-0.651584604597402639
0.572000000000000397,-0.641573095282178985
0.573000000000000398,-0.631737663516906189
0.574000000000000399,-0.622076567561165472
0.575000000000000400,-0.612588058421276616
0.576000000000000401,-0.603270380563067810
0.577000000000000401,-0.594121772608322885
0.578000000000000402,-0.585140468015013626
0.579000000000000403,-0.576324695741549320
0.580000000000000404,-0.567672680895249582
0.581000000000000405,-0.559182645365131181
0.582000000000000406,-0.550852808439288077
0.583000000000000407,-0.542681387406985349
0.584000000000000408,-0.534666598145692062
0.585000000000000409,-0.526806655693216830
0.586000000000000409,-0.519099774805155567
0.587000000000000410,-0.511544170497842066
0.588000000000000411,-0.504138058576961479
0.589000000000000412,-0.496879656152090898
0.590000000000000413,-0.489767182137268553
0.591000000000000414,-0.482798857737866960
0.592000000000000415,-0.475972906923930517
0.593000000000000416,-0.469287556890164936
0.594000000000000417,-0.462741038502779145
0.595000000000000417,-0.456331586733437100
0.596000000000000418,-0.450057441080373599
0.597000000000000419,-0.443916845977050722
0.598000000000000420,-0.437908051188380110
0.599000000000000421,-0.432029312194848192
0.600000000000000422,-0.426278890564635859
0.601000000000000423,-0.420655054313982979
0.602000000000000424,-0.415156078255976446
0.603000000000000425,-0.409780244337967225
0.604000000000000425,-0.404525841967768252
0.605000000000000426,-0.399391168328877610
0.606000000000000427,-0.394374528684918624
0.607000000000000428,-0.389474236673369223
0.608000000000000429,-0.384688614589008770
0.609000000000000430,-0.380015993656967754
0.610000000000000431,-0.375454714295848369
0.611000000000000432,-0.371003126370914926
0.612000000000000433,-0.366659589437585365
0.613000000000000433,-0.362422472975477472
