# SiO2-Amorphous_CS-311940-AC
# h[nm],U(h)[kJ/mol]
0.149999999999999994,99.694871289475202047
0.150999999999999995,97.378251303361167857
0.151999999999999996,95.746124454186016806
0.152999999999999997,94.282534624814616109
0.153999999999999998,92.790049866721787453
0.154999999999999999,91.225497574603295448
0.156000000000000000,89.609196181969934969
0.157000000000000001,87.978277692430410184
0.158000000000000002,86.365470643493750913
0.159000000000000002,84.791802961950196504
0.160000000000000003,83.266282951892236497
0.161000000000000004,81.788547562237781108
0.162000000000000005,80.352293822128203260
0.163000000000000006,78.948415013333487877
0.164000000000000007,77.567405822453352471
0.165000000000000008,76.200952373810807217
0.166000000000000009,74.842796861645865647
0.167000000000000010,73.489035785430999681
0.168000000000000010,72.138022092072347391
0.169000000000000011,70.790023637564118530
0.170000000000000012,69.446760483715181067
0.171000000000000013,68.110911373701156890
0.172000000000000014,66.785650338684106941
0.173000000000000015,65.474249991283187455
0.174000000000000016,64.179769226652979341
0.175000000000000017,62.904829455101697988
0.176000000000000018,61.651474388334193577
0.177000000000000018,60.421102910965529986
0.178000000000000019,59.214461822950852365
0.179000000000000020,58.031684466256805877
0.180000000000000021,56.872361808331731936
0.181000000000000022,55.735633937087087020
0.182000000000000023,54.620291742138078916
0.183000000000000024,53.524880536589442670
0.184000000000000025,52.447799321921841909
0.185000000000000026,51.387391193793554578
0.186000000000000026,50.342021959474692494
0.187000000000000027,49.310145357067938221
0.188000000000000028,48.290354328235331138
0.189000000000000029,47.281418613053190825
0.190000000000000030,46.282309531728643037
0.191000000000000031,45.292213222660770100
0.192000000000000032,44.310533851041064679
0.193000000000000033,43.336888417615881508
0.194000000000000034,42.371094811973470939
0.195000000000000034,41.413154694298100367
0.196000000000000035,40.463232675985693731
0.197000000000000036,39.521633121294833302
0.198000000000000037,38.588775724318558957
0.199000000000000038,37.665170839851121798
0.200000000000000039,36.751395372221352886
0.201000000000000040,35.848069859474925636
0.202000000000000041,34.955837235980510513
0.203000000000000042,34.075343617508778493
0.204000000000000042,33.207221330646369495
0.205000000000000043,32.352074303590043769
0.206000000000000044,31.510465847657634697
0.207000000000000045,30.682908787437458642
0.208000000000000046,29.869857841170432522
0.209000000000000047,29.071704110276954225
0.210000000000000048,28.288771506334796868
0.211000000000000049,27.521314923681593712
0.212000000000000050,26.769519954575805798
0.213000000000000050,26.033503940008142052
0.214000000000000051,25.313318151412634194
0.215000000000000052,24.608950905422457112
0.216000000000000053,23.920331424319563496
0.217000000000000054,23.247334267953480236
0.218000000000000055,22.589784177803348797
0.219000000000000056,21.947461189812848659
0.220000000000000057,21.320105889040824820
0.221000000000000058,20.707424695565382677
0.222000000000000058,20.109095087064353891
0.223000000000000059,19.524770678784566513
0.224000000000000060,18.954086095983559090
0.225000000000000061,18.396661587231957213
0.226000000000000062,17.852107339105891981
0.227000000000000063,17.320027463728109751
0.228000000000000064,16.800023640321047225
0.229000000000000065,16.291698400433343608
0.230000000000000066,15.794658053834789158
0.231000000000000066,15.308515258300738893
0.232000000000000067,14.832891241698627383
0.233000000000000068,14.367417689023358918
0.234000000000000069,13.911738310391095652
0.235000000000000070,13.465510108577504411
0.236000000000000071,13.028404366563171024
0.237000000000000072,12.600107376808566073
0.238000000000000073,12.180320934705553881
0.239000000000000073,11.768762618917529394
0.240000000000000074,11.365165881194945641
0.241000000000000075,10.969279967806510712
0.242000000000000076,10.580869694014740645
0.243000000000000077,10.199715092103717851
0.244000000000000078,9.825610952384810304
0.245000000000000079,9.458366275404447521
0.246000000000000080,9.097803652295809229
0.247000000000000081,8.743758588883272509
0.248000000000000081,8.396078787795135057
0.249000000000000082,8.054623401487511103
0.250000000000000111,7.719262267750797157
0.251000000000000112,7.389875137975904451
0.252000000000000113,7.066350907211337073
0.253000000000000114,6.748586853857537093
0.254000000000000115,6.436487895724310349
0.255000000000000115,6.129965868130353712
0.256000000000000116,5.828938828750720447
0.257000000000000117,5.533330393022092508
0.258000000000000118,5.243069103097028005
0.259000000000000119,4.958087832595156286
0.260000000000000120,4.678323228730821626
0.261000000000000121,4.403715192800609302
0.262000000000000122,4.134206399486158645
0.263000000000000123,3.869741854966000094
0.264000000000000123,3.610268493429322323
0.265000000000000124,3.355734811241924298
0.266000000000000125,3.106090537724962353
0.267000000000000126,2.861286341267240907
0.268000000000000127,2.621273569296229233
0.269000000000000128,2.386004020479519205
0.270000000000000129,2.155429747411083952
0.271000000000000130,1.929502887952833756
0.272000000000000131,1.708175523347940983
0.273000000000000131,1.491399561193966106
0.274000000000000132,1.279126641358626637
0.275000000000000133,1.071308062935300232
0.276000000000000134,0.867894730366606693
0.277000000000000135,0.668837116910471097
0.278000000000000136,0.474085243680137380
0.279000000000000137,0.283588672557287480
0.280000000000000138,0.097296511352590057
0.281000000000000139,-0.084842570331086692
0.282000000000000139,-0.262880315991755931
0.283000000000000140,-0.436868849248306546
0.284000000000000141,-0.606860634267555321
0.285000000000000142,-0.772908430787708545
0.286000000000000143,-0.935065244836902565
0.287000000000000144,-1.093384276155769497
0.288000000000000145,-1.247918863245748522
0.289000000000000146,-1.398722426878799219
0.290000000000000147,-1.545848412822431683
0.291000000000000147,-1.689350234454173982
0.292000000000000148,-1.829281215864385857
0.293000000000000149,-1.965694535974034540
0.294000000000000150,-2.098643174126448407
0.295000000000000151,-2.228179857547979648
0.296000000000000152,-2.354357011012839784
0.297000000000000153,-2.477226708991609350
0.298000000000000154,-2.596840630511457082
0.299000000000000155,-2.713250016908481221
0.300000000000000155,-2.826505632609022545
0.301000000000000156,-2.936657729036875164
0.302000000000000157,-3.043756011707494213
0.303000000000000158,-3.147849610537396980
0.304000000000000159,-3.248987053368141975
0.305000000000000160,-3.347216242678011433
0.306000000000000161,-3.442584435431870649
0.307000000000000162,-3.535138225999580719
0.308000000000000163,-3.624923532055968955
0.309000000000000163,-3.711985583360606800
0.310000000000000164,-3.796368913303254544
0.311000000000000165,-3.878117353090387187
0.312000000000000166,-3.957274028440117775
0.313000000000000167,-4.033881358646226545
0.314000000000000168,-4.107981057867319485
0.315000000000000169,-4.179614138493850106
0.316000000000000170,-4.248820916443968088
0.317000000000000171,-4.315641018238379090
0.318000000000000171,-4.380113389704971105
0.319000000000000172,-4.442276306165528155
0.320000000000000173,-4.502167383958971314
0.321000000000000174,-4.559823593158835564
0.322000000000000175,-4.615281271346384884
0.323000000000000176,-4.668576138305076562
0.324000000000000177,-4.719743311506906736
0.325000000000000178,-4.768817322266177605
0.326000000000000179,-4.815832132442064761
0.327000000000000179,-4.860821151576684152
0.328000000000000180,-4.903817254361531930
0.329000000000000181,-4.944852798331245580
0.330000000000000182,-4.983959641689470921
0.331000000000000183,-5.021169161178203666
0.332000000000000184,-5.056512269907670110
0.333000000000000185,-5.090019435070217035
0.334000000000000186,-5.121720695467550044
0.335000000000000187,-5.151645678786563209
0.336000000000000187,-5.179823618564890708
0.337000000000000188,-5.206283370792628595
0.338000000000000189,-5.231053430102508450
0.339000000000000190,-5.254161945505771314
0.340000000000000191,-5.275636735636019203
0.341000000000000192,-5.295505303468440061
0.342000000000000193,-5.313794850486045718
0.343000000000000194,-5.330532290269359486
0.344000000000000195,-5.345744261489665305
0.345000000000000195,-5.359457140290478705
0.346000000000000196,-5.371697052045022680
0.347000000000000197,-5.382489882481370280
0.348000000000000198,-5.391861288170032296
0.349000000000000199,-5.399836706371757167
0.350000000000000200,-5.406441364246246550
0.351000000000000201,-5.411700287425014189
0.352000000000000202,-5.415638307953955177
0.353000000000000203,-5.418280071613569504
0.354000000000000203,-5.419650044626607155
0.355000000000000204,-5.419772519764724628
0.356000000000000205,-5.418671621867476418
0.357000000000000206,-5.416371312788422543
0.358000000000000207,-5.412895395784167007
0.359000000000000208,-5.408267519363649356
0.360000000000000209,-5.402511180615741537
0.361000000000000210,-5.395649728034083381
0.362000000000000210,-5.387706363858858261
0.363000000000000211,-5.378704145955713223
0.364000000000000212,-5.368665989252595416
0.365000000000000213,-5.357614666755443622
0.366000000000000214,-5.345572810164145316
0.367000000000000215,-5.332562910110082655
0.368000000000000216,-5.318607316036894517
0.369000000000000217,-5.303728235745808206
0.370000000000000218,-5.287947734627016061
0.371000000000000218,-5.271287734598200991
0.372000000000000219,-5.253770012771250109
0.373000000000000220,-5.235416199867815479
0.374000000000000221,-5.216247778404048852
0.375000000000000222,-5.196286080664365592
0.376000000000000223,-5.175552286483887876
0.377000000000000224,-5.154067420858472914
0.378000000000000225,-5.131852351400883805
0.379000000000000226,-5.108927785661043330
0.380000000000000226,-5.085314268327943310
0.381000000000000227,-5.061032178329809561
0.382000000000000228,-5.036101725849022159
0.383000000000000229,-5.010542949267274615
0.384000000000000230,-4.984375712055982177
0.385000000000000231,-4.957619699626475196
0.386000000000000232,-4.930294416153519599
0.387000000000000233,-4.902419181385475611
0.388000000000000234,-4.874013127453403094
0.389000000000000234,-4.845095195691110135
0.390000000000000235,-4.815684133477219575
0.391000000000000236,-4.785798491109945374
0.392000000000000237,-4.755456618724462459
0.393000000000000238,-4.724676663262306953
0.394000000000000239,-4.693476565501443432
0.395000000000000240,-4.661874057155310780
0.396000000000000241,-4.629886658048333103
0.397000000000000242,-4.597531673374911421
0.398000000000000242,-4.564826191048483750
0.399000000000000243,-4.531787079146456954
0.400000000000000244,-4.498430983456488619
0.401000000000000245,-4.464774325129091892
0.402000000000000246,-4.430833298440875367
0.403000000000000247,-4.396623868672444146
0.404000000000000248,-4.362161770104458824
0.405000000000000249,-4.327462504134913068
0.406000000000000250,-4.292541337520217937
0.407000000000000250,-4.257413300742419970
0.408000000000000251,-4.222093186504319640
0.409000000000000252,-4.186595548354018703
0.410000000000000253,-4.150934699440002262
0.411000000000000254,-4.115124711397553092
0.412000000000000255,-4.079179413366951223
0.413000000000000256,-4.043112391143672824
0.414000000000000257,-4.006936986460380545
0.415000000000000258,-3.970666296400420237
0.416000000000000258,-3.934313172942074832
0.417000000000000259,-3.897890222632755641
0.418000000000000260,-3.861409806391990607
0.419000000000000261,-3.824884039441862171
0.420000000000000262,-3.788324791363402166
0.421000000000000263,-3.751743686277234868
0.422000000000000264,-3.715152103146549756
0.423000000000000265,-3.678561176200382477
0.424000000000000266,-3.641981795475086159
0.425000000000000266,-3.605424607471552356
0.426000000000000267,-3.568900015925856373
0.427000000000000268,-3.532418182690724162
0.428000000000000269,-3.495989028725159820
0.429000000000000270,-3.459622235189571349
0.430000000000000271,-3.423327244643464606
0.431000000000000272,-3.387113262342932529
0.432000000000000273,-3.350989257634894525
0.433000000000000274,-3.314963965445183014
0.434000000000000274,-3.279045887857330310
0.435000000000000275,-3.243243295779053348
0.436000000000000276,-3.207564230693326301
0.437000000000000277,-3.172016506490832999
0.438000000000000278,-3.136607711380758001
0.439000000000000279,-3.101345209876710474
0.440000000000000280,-3.066236144854614487
0.441000000000000281,-3.031287439679441142
0.442000000000000282,-2.996505800397673003
0.443000000000000282,-2.961897717992265200
0.444000000000000283,-2.927469470697135367
0.445000000000000284,-2.893227126367999613
0.446000000000000285,-2.859176544906479212
0.447000000000000286,-2.825323380734597656
0.448000000000000287,-2.791673085316463077
0.449000000000000288,-2.758230909724381341
0.450000000000000289,-2.725001907246343169
0.451000000000000290,-2.691990936032083503
0.452000000000000290,-2.659202661774906939
0.453000000000000291,-2.626641560426424160
0.454000000000000292,-2.594311920941582805
0.455000000000000293,-2.562217848051217217
0.456000000000000294,-2.530363265059587530
0.457000000000000295,-2.498751916664297745
0.458000000000000296,-2.467387371796093909
0.459000000000000297,-2.436273026476131864
0.460000000000000298,-2.405412106688271656
0.461000000000000298,-2.374807671264147046
0.462000000000000299,-2.344462614778686671
0.463000000000000300,-2.314379670453886373
0.464000000000000301,-2.284561413068749047
0.465000000000000302,-2.255010261873267474
0.466000000000000303,-2.225728483504426425
0.467000000000000304,-2.196718194902297583
0.468000000000000305,-2.167981366224347894
0.469000000000000306,-2.139519823756071304
0.470000000000000306,-2.111335252816286534
0.471000000000000307,-2.083429200655250835
0.472000000000000308,-2.055803079344099338
0.473000000000000309,-2.028458168653903826
0.474000000000000310,-2.001395618922921393
0.475000000000000311,-1.974616453910468250
0.476000000000000312,-1.948121573636181214
0.477000000000000313,-1.921911757203109472
0.478000000000000314,-1.895987665603520611
0.479000000000000314,-1.870349844506127734
0.480000000000000315,-1.844998727023530183
0.481000000000000316,-1.819934636458828692
0.482000000000000317,-1.795157789030258799
0.483000000000000318,-1.770668296572910805
0.484000000000000319,-1.746466169216500219
0.485000000000000320,-1.722551318038362256
0.486000000000000321,-1.698923557690729336
0.487000000000000322,-1.675582609001552203
0.488000000000000322,-1.652528101548008888
0.489000000000000323,-1.629759576202117533
0.490000000000000324,-1.607276487647653296
0.491000000000000325,-1.585078206867834627
0.492000000000000326,-1.563164023603114128
0.493000000000000327,-1.541533148778631901
0.494000000000000328,-1.520184716900741195
0.495000000000000329,-1.499117788422205333
0.496000000000000330,-1.478331352075604732
0.497000000000000330,-1.457824327174627621
0.498000000000000331,-1.437595565882802573
0.499000000000000332,-1.417643855449490342
0.500000000000000333,-1.397967920412753084
0.501000000000000334,-1.378566424768887355
0.502000000000000335,-1.359437974108441916
0.503000000000000336,-1.340581117718517401
0.504000000000000337,-1.321994350651184202
0.505000000000000338,-1.303676115757926635
0.506000000000000338,-1.285624805690016137
0.507000000000000339,-1.267838764864727130
0.508000000000000340,-1.250316291397371327
0.509000000000000341,-1.233055638999172032
0.510000000000000342,-1.216055018840915380
0.511000000000000343,-1.199312601382480636
0.512000000000000344,-1.182826518168258012
0.513000000000000345,-1.166594863588568121
0.514000000000000346,-1.150615696607168115
0.515000000000000346,-1.134887042454943540
0.516000000000000347,-1.119406894289936449
0.517000000000000348,-1.104173214823906957
0.518000000000000349,-1.089183937915493505
0.519000000000000350,-1.074436970130282720
0.520000000000000351,-1.059930192267892757
0.521000000000000352,-1.045661460856360581
0.522000000000000353,-1.031628609614012815
0.523000000000000353,-1.017829450879080166
0.524000000000000354,-1.004261777007347423
0.525000000000000355,-0.990923361738046515
0.526000000000000356,-0.977811961528313289
0.527000000000000357,-0.964925316856519721
0.528000000000000358,-0.952261153494693202
0.529000000000000359,-0.939817183750462748
0.530000000000000360,-0.927591107678719440
0.531000000000000361,-0.915580614263421411
0.532000000000000361,-0.903783382569803839
0.533000000000000362,-0.892197082867392188
0.534000000000000363,-0.880819377724120001
0.535000000000000364,-0.869647923071928175
0.536000000000000365,-0.858680369244203212
0.537000000000000366,-0.847914361985421805
0.538000000000000367,-0.837347543433328845
0.539000000000000368,-0.826977553074111027
0.540000000000000369,-0.816802028670821301
0.541000000000000369,-0.806818607165550317
0.542000000000000370,-0.797024925555640307
0.543000000000000371,-0.787418621744358838
0.544000000000000372,-0.777997335366432452
0.545000000000000373,-0.768758708588803352
0.546000000000000374,-0.759700386886997370
0.547000000000000375,-0.750820019797503901
0.548000000000000376,-0.742115261646573821
0.549000000000000377,-0.733583772255786526
0.550000000000000377,-0.725223217624800798
0.551000000000000378,-0.717031270591685588
0.552000000000000379,-0.709005611471204555
0.553000000000000380,-0.701143928671459471
0.554000000000000381,-0.693443919289249644
0.555000000000000382,-0.685903289684598461
0.556000000000000383,-0.678519756034735577
0.557000000000000384,-0.671291044868031372
0.558000000000000385,-0.664214893578158438
0.559000000000000385,-0.657289050918945517
0.560000000000000386,-0.650511277480242400
0.561000000000000387,-0.643879346145209697
0.562000000000000388,-0.637391042529378948
0.563000000000000389,-0.631044165401875579
0.564000000000000390,-0.624836527089154603
0.565000000000000391,-0.618765953861623585
0.566000000000000392,-0.612830286303498117
0.567000000000000393,-0.607027379666291278
0.568000000000000393,-0.601355104206218405
0.569000000000000394,-0.595811345505940837
0.570000000000000395,-0.590394004780954496
0.571000000000000396,-0.585100999170966252
0.572000000000000397,-0.579930262016644549
0.573000000000000398,-0.574879743121993303
0.574000000000000399,-0.569947409002788397
0.575000000000000400,-0.565131243121308025
0.576000000000000401,-0.560429246107738366
0.577000000000000401,-0.555839435968575657
0.578000000000000402,-0.551359848282305443
0.579000000000000403,-0.546988536382685964
0.580000000000000404,-0.542723571529979187
0.581000000000000405,-0.538563043070369951
0.582000000000000406,-0.534505058583925718
0.583000000000000407,-0.530547744021363399
0.584000000000000408,-0.526689243829924880
0.585000000000000409,-0.522927721068642604
0.586000000000000409,-0.519261357513281618
0.587000000000000410,-0.515688353751240447
0.588000000000000411,-0.512206929266661559
0.589000000000000412,-0.508815322516061874
0.590000000000000413,-0.505511790994697563
0.591000000000000414,-0.502294611293963245
0.592000000000000415,-0.499162079150072213
0.593000000000000416,-0.496112509484250119
0.594000000000000417,-0.493144236434709171
0.595000000000000417,-0.490255613380661870
0.596000000000000418,-0.487445012958548696
0.597000000000000419,-0.484710827070807870
0.598000000000000420,-0.482051466887324420
0.599000000000000421,-0.479465362839859410
0.600000000000000422,-0.476950964609629380
0.601000000000000423,-0.474506741108281449
0.602000000000000424,-0.472131180452470101
0.603000000000000425,-0.469822789932247908
0.604000000000000425,-0.467580095973465670
0.605000000000000426,-0.465401644094383671
0.606000000000000427,-0.463285998856737880
0.607000000000000428,-0.461231743811336359
0.608000000000000429,-0.459237481438557693
0.609000000000000430,-0.457301833083721188
0.610000000000000431,-0.455423438887714860
0.611000000000000432,-0.453600957712918251
0.612000000000000433,-0.451833067064634775
0.613000000000000433,-0.450118463008250924
