# SiO2-Amorphous_CYTOSINE
# h[nm],U(h)[kJ/mol]
0.149999999999999994,120.111540492751288411
0.150999999999999995,117.741400602089854033
0.151999999999999996,115.656908121205404427
0.152999999999999997,113.681578855813384621
0.153999999999999998,111.736877573580528633
0.154999999999999999,109.796446964235954624
0.156000000000000000,107.858688436616148465
0.157000000000000001,105.931240105705640531
0.158000000000000002,104.022928266587697976
0.159000000000000002,102.140219610278009554
0.160000000000000003,100.286223864020172414
0.161000000000000004,98.461005804873792613
0.162000000000000005,96.662448675119861718
0.163000000000000006,94.887232819698709818
0.164000000000000007,93.131701790714643607
0.165000000000000008,91.392518220831860276
0.166000000000000009,89.667088717270402753
0.167000000000000010,87.953778867337092606
0.168000000000000010,86.251958806748305619
0.169000000000000011,84.561925396699180624
0.170000000000000012,82.884744769312106882
0.171000000000000013,81.222052703005118701
0.172000000000000014,79.575842434326119701
0.173000000000000015,77.948261580716078356
0.174000000000000016,76.341432661710271645
0.175000000000000017,74.757305655322653593
0.176000000000000018,73.197546230747178697
0.177000000000000018,71.663459714715742166
0.178000000000000019,70.155948345326791582
0.179000000000000020,68.675497772716752820
0.180000000000000021,67.222187900416173534
0.181000000000000022,65.795722853632511828
0.182000000000000023,64.395474959059171738
0.183000000000000024,63.020537996407412606
0.184000000000000025,61.669785530002606322
0.185000000000000026,60.341930767497146348
0.186000000000000026,59.035585060296639881
0.187000000000000027,57.749312812271284656
0.188000000000000028,56.481681169612087956
0.189000000000000029,55.231303406604617123
0.190000000000000030,53.996875389787952315
0.191000000000000031,52.777204893216548953
0.192000000000000032,51.571233851874524134
0.193000000000000033,50.378053883461120677
0.194000000000000034,49.196915587565911210
0.195000000000000034,48.027232253569692944
0.196000000000000035,46.868578682747155995
0.197000000000000036,45.720685864220833139
0.198000000000000037,44.583432246401173416
0.199000000000000038,43.456832322469175267
0.200000000000000039,42.341023206665703071
0.201000000000000040,41.236249823155660010
0.202000000000000041,40.142849265718218987
0.203000000000000042,39.061234818356126652
0.204000000000000042,37.991880057251577796
0.205000000000000043,36.935303385792906283
0.206000000000000044,35.892053288523136700
0.207000000000000045,34.862694528184341891
0.208000000000000046,33.847795453473295879
0.209000000000000047,32.847916534251361043
0.210000000000000048,31.863600196038355250
0.211000000000000049,30.895361986706454616
0.212000000000000050,29.943683075232957691
0.213000000000000050,29.009004054902799652
0.214000000000000051,28.091720001095829673
0.215000000000000052,27.192176716324809149
0.216000000000000053,26.310668082035061133
0.217000000000000054,25.447434427353076813
0.218000000000000055,24.602661818996445220
0.219000000000000056,23.776482173463069358
0.220000000000000057,22.968974091954621031
0.221000000000000058,22.180164319849144050
0.222000000000000058,21.410029735529015227
0.223000000000000059,20.658499777656849972
0.224000000000000060,19.925459225258794760
0.225000000000000061,19.210751250953098435
0.226000000000000062,18.514180674115447545
0.227000000000000063,17.835517347498939245
0.228000000000000064,17.174499617656252326
0.229000000000000065,16.530837806300965553
0.230000000000000066,15.904217666382361784
0.231000000000000066,15.294303773038233629
0.232000000000000067,14.700742815666524521
0.233000000000000068,14.123166763063682794
0.234000000000000069,13.561195878882051247
0.235000000000000070,13.014441569535813770
0.236000000000000071,12.482509051125887822
0.237000000000000072,11.964999825954755863
0.238000000000000073,11.461513962771084252
0.239000000000000073,10.971652178033375336
0.240000000000000074,10.495017718226321790
0.241000000000000075,10.031218045628715885
0.242000000000000076,9.579866331937594737
0.243000000000000077,9.140582765826520628
0.244000000000000078,8.712995681883421994
0.245000000000000079,8.296742519461151488
0.246000000000000080,7.891470620809448278
0.247000000000000081,7.496837878465004046
0.248000000000000081,7.112513242283914572
0.249000000000000082,6.738177096730917803
0.250000000000000111,6.373521519115074696
0.251000000000000112,6.018250429404742086
0.252000000000000113,5.672079642083164508
0.253000000000000114,5.334736830242192696
0.254000000000000115,5.005961411766916669
0.255000000000000115,4.685504367058762831
0.256000000000000116,4.373127997288831281
0.257000000000000117,4.068605631680995316
0.258000000000000118,3.771721291806417575
0.259000000000000119,3.482269320336084384
0.260000000000000120,3.200053981154776572
0.261000000000000121,2.924889037196510611
0.262000000000000122,2.656597311821971008
0.263000000000000123,2.395010239030383126
0.264000000000000123,2.139967407283714262
0.265000000000000124,1.891316101225481550
0.266000000000000125,1.648910845100743261
0.267000000000000126,1.412612951231944081
0.268000000000000127,1.182290076476846696
0.269000000000000128,0.957815789193067091
0.270000000000000129,0.739069148857245950
0.271000000000000130,0.525934300137242849
0.272000000000000131,0.318300082892643055
0.273000000000000131,0.116059659281592523
0.274000000000000132,-0.080889841119541825
0.275000000000000133,-0.272647657524211162
0.276000000000000134,-0.459309715034809662
0.277000000000000135,-0.640968922396070173
0.278000000000000136,-0.817715450344585149
0.279000000000000137,-0.989636990653607995
0.280000000000000138,-1.156818996110433373
0.281000000000000139,-1.319344901783818358
0.282000000000000139,-1.477296328041648898
0.283000000000000140,-1.630753265866475843
0.284000000000000141,-1.779794245089122651
0.285000000000000142,-1.924496486219995806
0.286000000000000143,-2.064936036604950065
0.287000000000000144,-2.201187891668383578
0.288000000000000145,-2.333326102032808436
0.289000000000000146,-2.461423867320495340
0.290000000000000147,-2.585553617452481134
0.291000000000000147,-2.705787082261439380
0.292000000000000148,-2.822195350231051503
0.293000000000000149,-2.934848917163990656
0.294000000000000150,-3.043817725566256627
0.295000000000000151,-3.149171195516664135
0.296000000000000152,-3.250978247767940310
0.297000000000000153,-3.349307319800818306
0.298000000000000154,-3.444226375524910289
0.299000000000000155,-3.535802909290858054
0.300000000000000155,-3.624103944847390402
0.301000000000000156,-3.709196029844977538
0.302000000000000157,-3.791145226455499451
0.303000000000000158,-3.870017098644081610
0.304000000000000159,-3.945876696596617883
0.305000000000000160,-4.018788538773288010
0.306000000000000161,-4.088816592026182306
0.307000000000000162,-4.156024250187123847
0.308000000000000163,-4.220474311500430176
0.309000000000000163,-4.282228955245146906
0.310000000000000164,-4.341349717861815449
0.311000000000000165,-4.397897468870348270
0.312000000000000166,-4.451932386838545419
0.313000000000000167,-4.503513935634499532
0.314000000000000168,-4.552700841171377633
0.315000000000000169,-4.599551068829442535
0.316000000000000170,-4.644121801717921549
0.317000000000000171,-4.686469419918052104
0.318000000000000171,-4.726649480828967853
0.319000000000000172,-4.764716700719624498
0.320000000000000173,-4.800724937572407036
0.321000000000000174,-4.834727175288133338
0.322000000000000175,-4.866775509307234238
0.323000000000000176,-4.896921133688042715
0.324000000000000177,-4.925214329670567714
0.325000000000000178,-4.951704455742320654
0.326000000000000179,-4.976439939212598418
0.327000000000000179,-4.999468269291562628
0.328000000000000180,-5.020835991662126574
0.329000000000000181,-5.040588704524926911
0.330000000000000182,-5.058771056089415019
0.331000000000000183,-5.075426743478468339
0.332000000000000184,-5.090598513008145254
0.333000000000000185,-5.104328161799769781
0.334000000000000186,-5.116656540677510634
0.335000000000000187,-5.127623558301163342
0.336000000000000187,-5.137268186481212418
0.337000000000000188,-5.145628466620656205
0.338000000000000189,-5.152741517226713697
0.339000000000000190,-5.158643542433893003
0.340000000000000191,-5.163369841479033440
0.341000000000000192,-5.166954819068595661
0.342000000000000193,-5.169431996577996458
0.343000000000000194,-5.170834024023255537
0.344000000000000195,-5.171192692745178121
0.345000000000000195,-5.170538948747548602
0.346000000000000196,-5.168902906631116068
0.347000000000000197,-5.166313864066664152
0.348000000000000198,-5.162800316751553709
0.349000000000000199,-5.158389973795530992
0.350000000000000200,-5.153109773483265599
0.351000000000000201,-5.146985899362660710
0.352000000000000202,-5.140043796609725213
0.353000000000000203,-5.132308188622760170
0.354000000000000203,-5.123803093800422204
0.355000000000000204,-5.114551842460137721
0.356000000000000205,-5.104577093855435344
0.357000000000000206,-5.093900853252828043
0.358000000000000207,-5.082544489030563106
0.359000000000000208,-5.070528749764028120
0.360000000000000209,-5.057873781264335733
0.361000000000000210,-5.044599143538614605
0.362000000000000210,-5.030723827642650470
0.363000000000000211,-5.016266272398310022
0.364000000000000212,-5.001244380950233825
0.365000000000000213,-4.985675537138013702
0.366000000000000214,-4.969576621662005422
0.367000000000000215,-4.952964028022582177
0.368000000000000216,-4.935853678214570550
0.369000000000000217,-4.918261038159957188
0.370000000000000218,-4.900201132863918119
0.371000000000000218,-4.881688561280442151
0.372000000000000219,-4.862737510875589919
0.373000000000000220,-4.843361771877693123
0.374000000000000221,-4.823574751205248035
0.375000000000000222,-4.803389486064434166
0.376000000000000223,-4.782818657209700675
0.377000000000000224,-4.761874601861750378
0.378000000000000225,-4.740569326278562201
0.379000000000000226,-4.718914517976060097
0.380000000000000226,-4.696921557596198227
0.381000000000000227,-4.674601530420860129
0.382000000000000228,-4.651965237531263675
0.383000000000000229,-4.629023206613092967
0.384000000000000230,-4.605785702408377702
0.385000000000000231,-4.582262736816145932
0.386000000000000232,-4.558464078644126616
0.387000000000000233,-4.534399263014778469
0.388000000000000234,-4.510077600429188038
0.389000000000000234,-4.485508185493249478
0.390000000000000235,-4.460699905310589131
0.391000000000000236,-4.435661447547607494
0.392000000000000237,-4.410401308175987189
0.393000000000000238,-4.384927798898726081
0.394000000000000239,-4.359249054265757373
0.395000000000000240,-4.333373038485808237
0.396000000000000241,-4.307307551941159218
0.397000000000000242,-4.281060237412298797
0.398000000000000242,-4.254638586019667379
0.399000000000000243,-4.228049942889767543
0.400000000000000244,-4.201301512553082596
0.401000000000000245,-4.174400364081457759
0.402000000000000246,-4.147353435972419788
0.403000000000000247,-4.120167540788260752
0.404000000000000248,-4.092849369557517214
0.405000000000000249,-4.065405495946690095
0.406000000000000250,-4.037842380209803572
0.407000000000000250,-4.010166372923647415
0.408000000000000251,-3.982383718516295801
0.409000000000000252,-3.954500558596567572
0.410000000000000253,-3.926522935091970368
0.411000000000000254,-3.898456793202609738
0.412000000000000255,-3.870307984178433802
0.413000000000000256,-3.842082267927168004
0.414000000000000257,-3.813785315459966796
0.415000000000000258,-3.785422711182031552
0.416000000000000258,-3.756999955034936001
0.417000000000000259,-3.728522464497574962
0.418000000000000260,-3.699995576452336898
0.419000000000000261,-3.671424548922979092
0.420000000000000262,-3.642814562690609215
0.421000000000000263,-3.614170722793967006
0.422000000000000264,-3.585498059919964842
0.423000000000000265,-3.556801531690439333
0.424000000000000266,-3.528086023850847575
0.425000000000000266,-3.499356351366350815
0.426000000000000267,-3.470617259430764712
0.427000000000000268,-3.441873424393534719
0.428000000000000269,-3.413129454609789892
0.429000000000000270,-3.384389891218399615
0.430000000000000271,-3.355659208852635800
0.431000000000000272,-3.326941816288113696
0.432000000000000273,-3.298242057032283903
0.433000000000000274,-3.269564209859767256
0.434000000000000274,-3.240912489297516519
0.435000000000000275,-3.212291046063758593
0.436000000000000276,-3.183703967464430296
0.437000000000000277,-3.155155277750651077
0.438000000000000278,-3.126648938440711678
0.439000000000000279,-3.098188848609850776
0.440000000000000280,-3.069778845150890056
0.441000000000000281,-3.041422703008766160
0.442000000000000282,-3.013124135391826552
0.443000000000000282,-2.984886793962477025
0.444000000000000283,-2.956714269009903528
0.445000000000000284,-2.928610089607198042
0.446000000000000285,-2.900577723755187520
0.447000000000000286,-2.872620578515292067
0.448000000000000287,-2.844742000133266391
0.449000000000000288,-2.816945274155969514
0.450000000000000289,-2.789233625542841821
0.451000000000000290,-2.761610218773900449
0.452000000000000290,-2.734078157955847743
0.453000000000000291,-2.706640486927758271
0.454000000000000292,-2.679300189367828544
0.455000000000000293,-2.652060188902428006
0.456000000000000294,-2.624923349218718283
0.457000000000000295,-2.597892474181962896
0.458000000000000296,-2.570970307958541756
0.459000000000000297,-2.544159535145674944
0.460000000000000298,-2.517462780908682696
0.461000000000000298,-2.490882611126635560
0.462000000000000299,-2.464421532547101279
0.463000000000000300,-2.438081992950612342
0.464000000000000301,-2.411866381325515007
0.465000000000000302,-2.385777028053686966
0.466000000000000303,-2.359816205107564180
0.467000000000000304,-2.333986126258934313
0.468000000000000305,-2.308288947299820926
0.469000000000000306,-2.282726766275737340
0.470000000000000306,-2.257301623731626794
0.471000000000000307,-2.232015502970567500
0.472000000000000308,-2.206870330325533480
0.473000000000000309,-2.181867975444212071
0.474000000000000310,-2.157010251587014871
0.475000000000000311,-2.132298915938246608
0.476000000000000312,-2.107735669930548283
0.477000000000000313,-2.083322159582416511
0.478000000000000314,-2.059059975848829716
0.479000000000000314,-2.034950654984902574
0.480000000000000315,-2.010995678922319563
0.481000000000000316,-1.987196475658546957
0.482000000000000317,-1.963554419658504191
0.483000000000000318,-1.940070832268589784
0.484000000000000319,-1.916746982142781608
0.485000000000000320,-1.893584085680618090
0.486000000000000321,-1.870583307476751056
0.487000000000000322,-1.847745760781843272
0.488000000000000322,-1.825072507974442093
0.489000000000000323,-1.802564561043646929
0.490000000000000324,-1.780222882082139746
0.491000000000000325,-1.758048383789319491
0.492000000000000326,-1.736041929984145638
0.493000000000000327,-1.714204336127432615
0.494000000000000328,-1.692536369853141265
0.495000000000000329,-1.671038751508397313
0.496000000000000330,-1.649712154701792333
0.497000000000000330,-1.628557206859689632
0.498000000000000331,-1.607574489790035033
0.499000000000000332,-1.586764540253451816
0.500000000000000333,-1.566127850541116917
0.501000000000000334,-1.545664869059084179
0.502000000000000335,-1.525376000918689634
0.503000000000000336,-1.505261608532647122
0.504000000000000337,-1.485322012216443888
0.505000000000000338,-1.465557490794672901
0.506000000000000338,-1.445968282211936184
0.507000000000000339,-1.426554584147918137
0.508000000000000340,-1.407316554636262040
0.509000000000000341,-1.388254312686955538
0.510000000000000342,-1.369367938911729921
0.511000000000000343,-1.350657476152247849
0.512000000000000344,-1.332122930110628101
0.513000000000000345,-1.313764269982014010
0.514000000000000346,-1.295581429088845216
0.515000000000000346,-1.277574305516446795
0.516000000000000347,-1.259742762749630485
0.517000000000000348,-1.242086630310047068
0.518000000000000349,-1.224605704393815220
0.519000000000000350,-1.207299748509294224
0.520000000000000351,-1.190168494114547837
0.521000000000000352,-1.173211641254307214
0.522000000000000353,-1.156428859196061421
0.523000000000000353,-1.139819787065023293
0.524000000000000354,-1.123384034477725724
0.525000000000000355,-1.107121182173905094
0.526000000000000356,-1.091030782646458253
0.527000000000000357,-1.075112360769231667
0.528000000000000358,-1.059365414422318352
0.529000000000000359,-1.043789415114727781
0.530000000000000360,-1.028383808604086402
0.531000000000000361,-1.013148015513239075
0.532000000000000361,-0.998081431943449560
0.533000000000000362,-0.983183430084062393
0.534000000000000363,-0.968453358818363141
0.535000000000000364,-0.953890544325476375
0.536000000000000365,-0.939494290678093202
0.537000000000000366,-0.925263880435873043
0.538000000000000367,-0.911198575234286379
0.539000000000000368,-0.897297616368837980
0.540000000000000369,-0.883560225374360408
0.541000000000000369,-0.869985604599391005
0.542000000000000370,-0.856572937775344156
0.543000000000000371,-0.843321390580421437
0.544000000000000372,-0.830230111198110299
0.545000000000000373,-0.817298230870136200
0.546000000000000374,-0.804524864443743049
0.547000000000000375,-0.791909110913198155
0.548000000000000376,-0.779450053955444866
0.549000000000000377,-0.767146762459743892
0.550000000000000377,-0.754998291051246051
0.551000000000000378,-0.743003680608406158
0.552000000000000379,-0.731161958774157350
0.553000000000000380,-0.719472140460755805
0.554000000000000381,-0.707933228348223031
0.555000000000000382,-0.696544213376372512
0.556000000000000383,-0.685304075230254495
0.557000000000000384,-0.674211782819101990
0.558000000000000385,-0.663266294748593443
0.559000000000000385,-0.652466559786496147
0.560000000000000386,-0.641811517321578928
0.561000000000000387,-0.631300097815803651
0.562000000000000388,-0.620931223249733044
0.563000000000000389,-0.610703807561164047
0.564000000000000390,-0.600616757076929519
0.565000000000000391,-0.590668970937880844
0.566000000000000392,-0.580859341517015237
0.567000000000000393,-0.571186754830777188
0.568000000000000393,-0.561650090943467073
0.569000000000000394,-0.552248224364822127
0.570000000000000395,-0.542980024440738562
0.571000000000000396,-0.533844355737121523
0.572000000000000397,-0.524840078416947686
0.573000000000000398,-0.515966048610442596
0.574000000000000399,-0.507221118778513835
0.575000000000000400,-0.498604138069338287
0.576000000000000401,-0.490113952668213226
0.577000000000000401,-0.481749406140680847
0.578000000000000402,-0.473509339768910464
0.579000000000000403,-0.465392592881403278
0.580000000000000404,-0.457398003176080092
0.581000000000000405,-0.449524407036718032
0.582000000000000406,-0.441770639842840152
0.583000000000000407,-0.434135536273057121
0.584000000000000408,-0.426617930601923490
0.585000000000000409,-0.419216656990345438
0.586000000000000409,-0.411930549769586984
0.587000000000000410,-0.404758443718933492
0.588000000000000411,-0.397699174337032946
0.589000000000000412,-0.390751578107019604
0.590000000000000413,-0.383914492755405623
0.591000000000000414,-0.377186757504852199
0.592000000000000415,-0.370567213320859179
0.593000000000000416,-0.364054703152409898
0.594000000000000417,-0.357648072166650510
0.595000000000000417,-0.351346167977692692
0.596000000000000418,-0.345147840869507005
0.597000000000000419,-0.339051944013102124
0.598000000000000420,-0.333057333677922285
0.599000000000000421,-0.327162869437631010
0.600000000000000422,-0.321367414370273108
0.601000000000000423,-0.315669835252927800
0.602000000000000424,-0.310069002750890554
0.603000000000000425,-0.304563791601477729
0.604000000000000425,-0.299153080792484427
0.605000000000000426,-0.293835753735395944
0.606000000000000427,-0.288610698433438784
0.607000000000000428,-0.283476807644437168
0.608000000000000429,-0.278432979038728323
0.609000000000000430,-0.273478115351983908
0.610000000000000431,-0.268611124533220669
0.611000000000000432,-0.263830919887912685
0.612000000000000433,-0.259136420216341201
0.613000000000000433,-0.254526549947281799
