# SiO2-Amorphous_BSAIV2
# h[nm],U(h)[kJ/mol]
0.149999999999999994,120.563942502936654932
0.150999999999999995,118.838544773551163303
0.151999999999999996,116.596675640640910387
0.152999999999999997,114.261055010730359527
0.153999999999999998,111.991345827171173255
0.154999999999999999,109.822537709656032234
0.156000000000000000,107.739511411197412372
0.157000000000000001,105.714278367619613164
0.158000000000000002,103.722284181030858008
0.159000000000000002,101.747659113550767529
0.160000000000000003,99.783178951436383386
0.161000000000000004,97.828143874720353779
0.162000000000000005,95.885838736244920710
0.163000000000000006,93.961337464258349428
0.164000000000000007,92.059914739806103512
0.165000000000000008,90.186072016553808339
0.166000000000000009,88.343071442643562818
0.167000000000000010,86.532837004375579681
0.168000000000000010,84.756088537074873557
0.169000000000000011,83.012598297028247885
0.170000000000000012,81.301488749045319082
0.171000000000000013,79.621517476934442925
0.172000000000000014,77.971317744180879572
0.173000000000000015,76.349580396839968444
0.174000000000000016,74.755174795865542592
0.175000000000000017,73.187214084279901272
0.176000000000000018,71.645074286406767783
0.177000000000000018,70.128378421866997883
0.178000000000000019,68.636956794992372011
0.179000000000000020,67.170793535775800365
0.180000000000000021,65.729967812606702182
0.181000000000000022,64.314596263378817298
0.182000000000000023,62.924781339075636311
0.183000000000000024,61.560568571229033807
0.184000000000000025,60.221914342312331314
0.185000000000000026,58.908664588056147693
0.186000000000000026,57.620543991683554452
0.187000000000000027,56.357154620161807657
0.188000000000000028,55.117982568102867447
0.189000000000000029,53.902410977199622266
0.190000000000000030,52.709737748786913869
0.191000000000000031,51.539196327347369220
0.192000000000000032,50.389978070676065158
0.193000000000000033,49.261254909969906635
0.194000000000000034,48.152201217407167633
0.195000000000000034,47.062014021801317654
0.196000000000000035,45.989930931094789912
0.197000000000000036,44.935245324144531764
0.198000000000000037,43.897318557070477141
0.199000000000000038,42.875589087706828195
0.200000000000000039,41.869578553841407142
0.201000000000000040,40.878894946985845138
0.202000000000000041,39.903233104589006075
0.203000000000000042,38.942372801887707112
0.204000000000000042,37.996174762469998143
0.205000000000000043,37.064574926860601067
0.206000000000000044,36.147577323836351582
0.207000000000000045,35.245245882503901669
0.208000000000000046,34.357695507009047731
0.209000000000000047,33.485082712469882438
0.210000000000000048,32.627596092440242614
0.211000000000000049,31.785446856747633149
0.212000000000000050,30.958859645457330600
0.213000000000000050,30.148063791278509882
0.214000000000000051,29.353285169970366297
0.215000000000000052,28.574738747031098285
0.216000000000000053,27.812621899750006094
0.217000000000000054,27.067108566990803808
0.218000000000000055,26.338344255112911441
0.219000000000000056,25.626441907365848039
0.220000000000000057,24.931478625934698101
0.221000000000000058,24.253493220527868601
0.222000000000000058,23.592484544854894324
0.223000000000000059,22.948410572387636819
0.224000000000000060,22.321188155226195704
0.225000000000000061,21.710693404486317348
0.226000000000000062,21.116762627155615917
0.227000000000000063,20.539193752595764408
0.228000000000000064,19.977748181568486530
0.229000000000000065,19.432152991607477333
0.230000000000000066,18.902103434539654359
0.231000000000000066,18.387265664776645480
0.232000000000000067,17.887279640473696674
0.233000000000000068,17.401762143623130896
0.234000000000000069,16.930309869469269302
0.235000000000000070,16.472502540171618080
0.236000000000000071,16.027906002294479038
0.237000000000000072,15.596075272365998998
0.238000000000000073,15.176557499351606140
0.239000000000000073,14.768894817358731331
0.240000000000000074,14.372627066177930288
0.241000000000000075,13.987294361331574777
0.242000000000000076,13.612439499111971486
0.243000000000000077,13.247610185625513068
0.244000000000000078,12.892361082104560666
0.245000000000000079,12.546255661696607220
0.246000000000000080,12.208867875591165486
0.247000000000000081,11.879783628699954079
0.248000000000000081,11.558602067175995032
0.249000000000000082,11.244936681850703053
0.250000000000000111,10.938416233198745786
0.251000000000000112,10.638685504724779918
0.252000000000000113,10.345405892717646879
0.253000000000000114,10.058255841157786037
0.254000000000000115,9.776931131205262915
0.255000000000000115,9.501145035161083996
0.256000000000000116,9.230628345097830589
0.257000000000000117,8.965129286516200224
0.258000000000000118,8.704413327417729107
0.259000000000000119,8.448262893106360139
0.260000000000000120,8.196476996858070407
0.261000000000000121,7.948870796342899503
0.262000000000000122,7.705275085359329701
0.263000000000000123,7.465535730061121811
0.264000000000000123,7.229513058430126371
0.265000000000000124,6.997081211288145752
0.266000000000000125,6.768127462652984150
0.267000000000000126,6.542551516739164796
0.268000000000000127,6.320264788387408572
0.269000000000000128,6.101189673187368712
0.270000000000000129,5.885258813039338399
0.271000000000000130,5.672414362388130016
0.272000000000000131,5.462607259860608799
0.273000000000000131,5.255796509550189732
0.274000000000000132,5.051948475720448251
0.275000000000000133,4.851036194247684286
0.276000000000000134,4.653038703691104061
0.277000000000000135,4.457940398470748633
0.278000000000000136,4.265730406247304707
0.279000000000000137,4.076401991236682676
0.280000000000000138,3.889951984855213318
0.281000000000000139,3.706380244778011868
0.282000000000000139,3.525689143204931320
0.283000000000000140,3.347883084863354064
0.284000000000000141,3.172968055035686241
0.285000000000000142,3.000951197680512106
0.286000000000000143,2.831840423519003558
0.287000000000000144,2.665644047782237180
0.288000000000000145,2.502370457158253014
0.289000000000000146,2.342027805340842761
0.290000000000000147,2.184623736461873911
0.291000000000000147,2.030165135586665226
0.292000000000000148,1.878657905364412128
0.293000000000000149,1.730106767853527572
0.294000000000000150,1.584515090482563782
0.295000000000000151,1.441884735061091494
0.296000000000000152,1.302215928719858251
0.297000000000000153,1.165507155635136627
0.298000000000000154,1.031755068377152140
0.299000000000000155,0.900954417716119615
0.300000000000000155,0.773097999720801954
0.301000000000000156,0.648176618992898357
0.302000000000000157,0.526179066894673531
0.303000000000000158,0.407092113647351428
0.304000000000000159,0.290900513201951427
0.305000000000000160,0.177587019812964098
0.306000000000000161,0.067132415277043653
0.307000000000000162,-0.040484454166351470
0.308000000000000163,-0.145286632238075253
0.309000000000000163,-0.247298999253059704
0.310000000000000164,-0.346548211871016754
0.311000000000000165,-0.443062636808772947
0.312000000000000166,-0.536872279316794154
0.313000000000000167,-0.628008707179696479
0.314000000000000168,-0.716504970957859699
0.315000000000000169,-0.802395521144687152
0.316000000000000170,-0.885716122871911815
0.317000000000000171,-0.966503768753729453
0.318000000000000171,-1.044796590419712512
0.319000000000000172,-1.120633769246709432
0.320000000000000173,-1.194055446760963646
0.321000000000000174,-1.265102635144033982
0.322000000000000175,-1.333817128239825234
0.323000000000000176,-1.400241413424786696
0.324000000000000177,-1.464418584669747059
0.325000000000000178,-1.526392257089462801
0.326000000000000179,-1.586206483245370613
0.327000000000000179,-1.643905671437403182
0.328000000000000180,-1.699534506193074890
0.329000000000000181,-1.753137871135721726
0.330000000000000182,-1.804760774388605160
0.331000000000000183,-1.854448276648614113
0.332000000000000184,-1.902245422040857559
0.333000000000000185,-1.948197171845170939
0.334000000000000186,-1.992348341166257253
0.335000000000000187,-2.034743538601270441
0.336000000000000187,-2.075427108942306198
0.337000000000000188,-2.114443078935582143
0.338000000000000189,-2.151835106105460138
0.339000000000000190,-2.187646430638267248
0.340000000000000191,-2.221919830309003974
0.341000000000000192,-2.254697578423649595
0.342000000000000193,-2.286021404739640328
0.343000000000000194,-2.315932459318780889
0.344000000000000195,-2.344471279258518503
0.345000000000000195,-2.371677758241223621
0.346000000000000196,-2.397591118834328405
0.347000000000000197,-2.422249887469331675
0.348000000000000198,-2.445691872022803803
0.349000000000000199,-2.467954141918646371
0.350000000000000200,-2.489073010667662622
0.351000000000000201,-2.509084020757660571
0.352000000000000202,-2.528021930805226525
0.353000000000000203,-2.545920704878754215
0.354000000000000203,-2.562813503901064660
0.355000000000000204,-2.578732679039217324
0.356000000000000205,-2.593709766988925303
0.357000000000000206,-2.607775487061043673
0.358000000000000207,-2.620959739977731573
0.359000000000000208,-2.633291608286985497
0.360000000000000209,-2.644799358304983805
0.361000000000000210,-2.655510443496869044
0.362000000000000210,-2.665451509208236480
0.363000000000000211,-2.674648398661044091
0.364000000000000212,-2.683126160129698068
0.365000000000000213,-2.690909055214766532
0.366000000000000214,-2.698020568134183339
0.367000000000000215,-2.704483415953748526
0.368000000000000216,-2.710319559681329871
0.369000000000000217,-2.715550216151254581
0.370000000000000218,-2.720195870628151269
0.371000000000000218,-2.724276290061740546
0.372000000000000219,-2.727810536926813523
0.373000000000000220,-2.730816983585137248
0.374000000000000221,-2.733313327108583657
0.375000000000000222,-2.735316604505329430
0.376000000000000223,-2.736843208293767482
0.377000000000000224,-2.737908902371018804
0.378000000000000225,-2.738528838125737330
0.379000000000000226,-2.738717570747229324
0.380000000000000226,-2.738489075685605734
0.381000000000000227,-2.737856765219792265
0.382000000000000228,-2.736833505092997942
0.383000000000000229,-2.735431631177281719
0.384000000000000230,-2.733662966131224170
0.385000000000000231,-2.731538836017131100
0.386000000000000232,-2.729070086845994503
0.387000000000000233,-2.726267101020950712
0.388000000000000234,-2.723139813651645813
0.389000000000000234,-2.719697728714260077
0.390000000000000235,-2.715949935033501017
0.391000000000000236,-2.711905122065028539
0.392000000000000237,-2.707571595458304170
0.393000000000000238,-2.702957292381797494
0.394000000000000239,-2.698069796593875136
0.395000000000000240,-2.692916353244513950
0.396000000000000241,-2.687503883394318560
0.397000000000000242,-2.681838998238807559
0.398000000000000242,-2.675928013027398578
0.399000000000000243,-2.669776960667645138
0.400000000000000244,-2.663391605006701024
0.401000000000000245,-2.656777453783122134
0.402000000000000246,-2.649939771243135844
0.403000000000000247,-2.642883590416718498
0.404000000000000248,-2.635613725049734679
0.405000000000000249,-2.628134781189373825
0.406000000000000250,-2.620451168420964816
0.407000000000000250,-2.612567110755156907
0.408000000000000251,-2.604486657165172581
0.409000000000000252,-2.596213691774631904
0.410000000000000253,-2.587751943697070622
0.411000000000000254,-2.579104996528960303
0.412000000000000255,-2.570276297498609530
0.413000000000000256,-2.561269166273933973
0.414000000000000257,-2.552086803432403350
0.415000000000000258,-2.542732298597252250
0.416000000000000258,-2.533208638244149213
0.417000000000000259,-2.523518713183114048
0.418000000000000260,-2.513665325720785937
0.419000000000000261,-2.503651196508390075
0.420000000000000262,-2.493478971081141360
0.421000000000000263,-2.483151226095077657
0.422000000000000264,-2.472670475267395140
0.423000000000000265,-2.462039175026773385
0.424000000000000266,-2.451259729880265414
0.425000000000000266,-2.440334497503361622
0.426000000000000267,-2.429265793560187348
0.427000000000000268,-2.418055896260724591
0.428000000000000269,-2.406707050662085123
0.429000000000000270,-2.395221472720985734
0.430000000000000271,-2.383601353104506160
0.431000000000000272,-2.371848860766362144
0.432000000000000273,-2.359966146295829681
0.433000000000000274,-2.347955345046564446
0.434000000000000274,-2.335818580052417381
0.435000000000000275,-2.323557964737446913
0.436000000000000276,-2.311175605427201685
0.437000000000000277,-2.298673603668287768
0.438000000000000278,-2.286054058363252039
0.439000000000000279,-2.273319067727679332
0.440000000000000280,-2.260470731076287265
0.441000000000000281,-2.247511150444787109
0.442000000000000282,-2.234442432054189354
0.443000000000000282,-2.221266687623978608
0.444000000000000283,-2.207986035540711267
0.445000000000000284,-2.194602601888247406
0.446000000000000285,-2.181118521345827954
0.447000000000000286,-2.167535937960142434
0.448000000000000287,-2.153857005797164881
0.449000000000000288,-2.140083889479745594
0.450000000000000289,-2.126218764616477408
0.451000000000000290,-2.112263818127454673
0.452000000000000290,-2.098221248472331268
0.453000000000000291,-2.084093265785857962
0.454000000000000292,-2.069882091926121159
0.455000000000000293,-2.055589960440359132
0.456000000000000294,-2.041219116453263815
0.457000000000000295,-2.026771816482435096
0.458000000000000296,-2.012250328185515080
0.459000000000000297,-1.997656930043467227
0.460000000000000298,-1.982993910984205410
0.461000000000000298,-1.968263569950752911
0.462000000000000299,-1.953468215417915932
0.463000000000000300,-1.938610164861271912
0.464000000000000301,-1.923691744182272956
0.465000000000000302,-1.908715287092995094
0.466000000000000303,-1.893683134463982398
0.467000000000000304,-1.878597633638542153
0.468000000000000305,-1.863461137716645455
0.469000000000000306,-1.848276004811506557
0.470000000000000306,-1.833044597281842103
0.471000000000000307,-1.817769280942496568
0.472000000000000308,-1.802452424256291152
0.473000000000000309,-1.787096397509560841
0.474000000000000310,-1.771703571973907376
0.475000000000000311,-1.756276319056485846
0.476000000000000312,-1.740817009441144148
0.477000000000000313,-1.725328012222450358
0.478000000000000314,-1.709811694034716778
0.479000000000000314,-1.694270418177971083
0.480000000000000315,-1.678706543742614077
0.481000000000000316,-1.663122424734631011
0.482000000000000317,-1.647520409202889669
0.483000000000000318,-1.631902838370158815
0.484000000000000319,-1.616272045769263643
0.485000000000000320,-1.600630356385797537
0.486000000000000321,-1.584980085808670669
0.487000000000000322,-1.569323539389715361
0.488000000000000322,-1.553663011413465744
0.489000000000000323,-1.538000784278251709
0.490000000000000324,-1.522339127689515070
0.491000000000000325,-1.506680297866330509
0.492000000000000326,-1.491026536761936860
0.493000000000000327,-1.475380071299141171
0.494000000000000328,-1.459743112621241901
0.495000000000000329,-1.444117855359217772
0.496000000000000330,-1.428506476915712309
0.497000000000000330,-1.412911136766466624
0.498000000000000331,-1.397333975779569526
0.499000000000000332,-1.381777115553125324
0.500000000000000333,-1.366242657771637781
0.501000000000000334,-1.350732683581453930
0.502000000000000335,-1.335249252985663215
0.503000000000000336,-1.319794404258643805
0.504000000000000337,-1.304370153380493003
0.505000000000000338,-1.288978493491544697
0.506000000000000338,-1.273621394367106197
0.507000000000000339,-1.258300801912528799
0.508000000000000340,-1.243018637678666050
0.509000000000000341,-1.227776798397840041
0.510000000000000342,-1.212577155540208063
0.511000000000000343,-1.197421554890642170
0.512000000000000344,-1.182311816145971362
0.513000000000000345,-1.167249732532584350
0.514000000000000346,-1.152237070444296352
0.515000000000000346,-1.137275569100314243
0.516000000000000347,-1.122366940223198828
0.517000000000000348,-1.107512867736704321
0.518000000000000349,-1.092715007483193501
0.519000000000000350,-1.077974986960593906
0.520000000000000351,-1.063294405078525351
0.521000000000000352,-1.048674831933511742
0.522000000000000353,-1.034117808602913025
0.523000000000000353,-1.019624846957388753
0.524000000000000354,-1.005197429491636374
0.525000000000000355,-0.990837009173047401
0.526000000000000356,-0.976545009308064316
0.527000000000000357,-0.962322823425928342
0.528000000000000358,-0.948171815179435939
0.529000000000000359,-0.934093318262504191
0.530000000000000360,-0.920088636344099875
0.531000000000000361,-0.906159043018297417
0.532000000000000361,-0.892305781770056483
0.533000000000000362,-0.878530065956435680
0.534000000000000363,-0.864833078802842103
0.535000000000000364,-0.851215973414010341
0.536000000000000365,-0.837679872799328984
0.537000000000000366,-0.824225869912186049
0.538000000000000367,-0.810855027702914510
0.539000000000000368,-0.797568379185097598
0.540000000000000369,-0.784366927514712264
0.541000000000000369,-0.771251646081921649
0.542000000000000370,-0.758223478615002611
0.543000000000000371,-0.745283339296156311
0.544000000000000372,-0.732432112888795728
0.545000000000000373,-0.719670654875961935
0.546000000000000374,-0.706999791609502326
0.547000000000000375,-0.694420320469665731
0.548000000000000376,-0.681933010034782683
0.549000000000000377,-0.669538600260639383
0.550000000000000377,-0.657237802669227045
0.551000000000000378,-0.645031300546508257
0.552000000000000379,-0.632919749148890931
0.553000000000000380,-0.620903775918023704
0.554000000000000381,-0.608983980703610928
0.555000000000000382,-0.597160935993944708
0.556000000000000383,-0.585435187153737657
0.557000000000000384,-0.573807252669070955
0.558000000000000385,-0.562277624398997866
0.559000000000000385,-0.550846767833608864
0.560000000000000386,-0.539515122358182886
0.561000000000000387,-0.528283101523152165
0.562000000000000388,-0.517151093319565658
0.563000000000000389,-0.506119460459786397
0.564000000000000390,-0.495188540663106358
0.565000000000000391,-0.484358646946017601
0.566000000000000392,-0.473630067916847142
0.567000000000000393,-0.463003068074526847
0.568000000000000393,-0.452477888111156468
0.569000000000000394,-0.442054745218177669
0.570000000000000395,-0.431733833395874178
0.571000000000000396,-0.421515323765915384
0.572000000000000397,-0.411399364886784469
0.573000000000000398,-0.401386083071746558
0.574000000000000399,-0.391475582709233882
0.575000000000000400,-0.381667946585323326
0.576000000000000401,-0.371963236208141590
0.577000000000000401,-0.362361492134004259
0.578000000000000402,-0.352862734294996594
0.579000000000000403,-0.343466962327856951
0.580000000000000404,-0.334174155903968706
0.581000000000000405,-0.324984275060208994
0.582000000000000406,-0.315897260530531410
0.583000000000000407,-0.306913034078044489
0.584000000000000408,-0.298031498827454444
0.585000000000000409,-0.289252539597663672
0.586000000000000409,-0.280576023234368865
0.587000000000000410,-0.272001798942524964
0.588000000000000411,-0.263529698618448438
0.589000000000000412,-0.255159537181500529
0.590000000000000413,-0.246891112905105625
0.591000000000000414,-0.238724207747040451
0.592000000000000415,-0.230658587678821109
0.593000000000000416,-0.222694003014046155
0.594000000000000417,-0.214830188735578215
0.595000000000000417,-0.207066864821482705
0.596000000000000418,-0.199403736569491202
0.597000000000000419,-0.191840494920026167
0.598000000000000420,-0.184376816777528429
0.599000000000000421,-0.177012365330099064
0.600000000000000422,-0.169746790367281658
0.601000000000000423,-0.162579728595904749
0.602000000000000424,-0.155510803953915588
0.603000000000000425,-0.148539627922082501
0.604000000000000425,-0.141665799833487621
0.605000000000000426,-0.134888907180740480
0.606000000000000427,-0.128208525920846084
0.607000000000000428,-0.121624220777570027
0.608000000000000429,-0.115135545541390188
0.609000000000000430,-0.108742043366760854
0.610000000000000431,-0.102443247066829543
0.611000000000000432,-0.096238679405393115
0.612000000000000433,-0.090127853386098786
0.613000000000000433,-0.084110272538860387
0.614000000000000434,-0.078185431203381783
