# SiO2-Amorphous_BSAIV5
# h[nm],U(h)[kJ/mol]
0.149999999999999994,159.740925393524634046
0.150999999999999995,157.221442186181889156
0.151999999999999996,154.554775433052242306
0.152999999999999997,151.878545259531392730
0.153999999999999998,149.235445904528717165
0.154999999999999999,146.629716017175638854
0.156000000000000000,144.054853260168044926
0.157000000000000001,141.505387662776911384
0.158000000000000002,138.980398052664497754
0.159000000000000002,136.483213198772347141
0.160000000000000003,134.019734081770366174
0.161000000000000004,131.596608573458695446
0.162000000000000005,129.219793124309433097
0.163000000000000006,126.893655541330574010
0.164000000000000007,124.620583491321028191
0.165000000000000008,122.400984941953225871
0.166000000000000009,120.233549199298607846
0.167000000000000010,118.115649941849440552
0.168000000000000010,116.043796745055459496
0.169000000000000011,114.014069082459371884
0.170000000000000012,112.022491648991348256
0.171000000000000013,110.065329977857885524
0.172000000000000014,108.139300269096722218
0.173000000000000015,106.241697529524273591
0.174000000000000016,104.370452333572004022
0.175000000000000017,102.524129646400496085
0.176000000000000018,100.701884050187899788
0.177000000000000018,98.903385108263051961
0.178000000000000019,97.128725074059758526
0.179000000000000020,95.378319147092540220
0.180000000000000021,93.652806316479569659
0.181000000000000022,91.952956730819408904
0.182000000000000023,90.279589626653390155
0.183000000000000024,88.633504209764495840
0.184000000000000025,87.015424543058841778
0.185000000000000026,85.425958450075469841
0.186000000000000026,83.865569673070154977
0.187000000000000027,82.334561996692599450
0.188000000000000028,80.833073724940078364
0.189000000000000029,79.361080741779034042
0.190000000000000030,77.918406357853442046
0.191000000000000031,76.504736213803965938
0.192000000000000032,75.119636646028681071
0.193000000000000033,73.762575099004948243
0.194000000000000034,72.432941369938930620
0.195000000000000034,71.130068681142887499
0.196000000000000035,69.853253781600329830
0.197000000000000036,68.601775473379916548
0.198000000000000037,67.374911135359283776
0.199000000000000038,66.171950972809426617
0.200000000000000039,64.992209855216685810
0.201000000000000040,63.835036716074981200
0.202000000000000041,62.699821578042282511
0.203000000000000042,61.586000336288257984
0.204000000000000042,60.493057483966552468
0.205000000000000043,59.420526998682120734
0.206000000000000044,58.367991629836126322
0.207000000000000045,57.335080836052625841
0.208000000000000046,56.321467621655926905
0.209000000000000047,55.326864513353640973
0.210000000000000048,54.351018904680927335
0.211000000000000049,53.393707977962478139
0.212000000000000050,52.454733392918981849
0.213000000000000050,51.533915908754707402
0.214000000000000051,50.631090083572857452
0.215000000000000052,49.746099172060233684
0.216000000000000053,48.878790320178801210
0.217000000000000054,48.029010134563037582
0.218000000000000055,47.196600684792223035
0.219000000000000056,46.381395978910582301
0.220000000000000057,45.583218936640548691
0.221000000000000058,44.801878870740381444
0.222000000000000058,44.037169474884528597
0.223000000000000059,43.288867306252996059
0.224000000000000060,42.556730742607690843
0.225000000000000061,41.840499386901413459
0.226000000000000062,41.139893887270247319
0.227000000000000063,40.454616136463165788
0.228000000000000064,39.784349812210251685
0.229000000000000065,39.128761218574688030
0.230000000000000066,38.487500387826386827
0.231000000000000066,37.860202402674701716
0.232000000000000067,37.246488899671490458
0.233000000000000068,36.645969716119381587
0.234000000000000069,36.058244644780472754
0.235000000000000070,35.482905262975414473
0.236000000000000071,34.919536805199165030
0.237000000000000072,34.367720051077853327
0.238000000000000073,33.827033203280691964
0.239000000000000073,33.297053732821616734
0.240000000000000074,32.777360171984852855
0.241000000000000075,32.267533837847203415
0.242000000000000076,31.767160472011180872
0.243000000000000077,31.275831784680548253
0.244000000000000078,30.793146893582406420
0.245000000000000079,30.318713650453606334
0.246000000000000080,29.852149849851961960
0.247000000000000081,29.393084316919971144
0.248000000000000081,28.941157872417697661
0.249000000000000082,28.496024174853410216
0.250000000000000111,28.057350440877836917
0.251000000000000112,27.624818046277376027
0.252000000000000113,27.198123010908272335
0.253000000000000114,26.776976371769269036
0.254000000000000115,26.361104449119398652
0.255000000000000115,25.950249011124451926
0.256000000000000116,25.544167342967746492
0.257000000000000117,25.142632226699536346
0.258000000000000118,24.745431838335875341
0.259000000000000119,24.352369568860464000
0.260000000000000120,23.963263775843564929
0.261000000000000121,23.577947472379943150
0.262000000000000122,23.196267959970736428
0.263000000000000123,22.818086411842987360
0.264000000000000123,22.443277413021654354
0.265000000000000124,22.071728463250849472
0.266000000000000125,21.703339448610499574
0.267000000000000126,21.338022087398115900
0.268000000000000127,20.975699355548439229
0.269000000000000128,20.616304896552502868
0.270000000000000129,20.259782420516078361
0.271000000000000130,19.906085096669674073
0.272000000000000131,19.555174943313382130
0.273000000000000131,19.207022218851086848
0.274000000000000132,18.861604817244881360
0.275000000000000133,18.518907670902400753
0.276000000000000134,18.178922163700896419
0.277000000000000135,17.841645556553192620
0.278000000000000136,17.507080427633191277
0.279000000000000137,17.175234129104321568
0.280000000000000138,16.846118261933913374
0.281000000000000139,16.519748170129513909
0.282000000000000139,16.196142455501860269
0.283000000000000140,15.875322513842011318
0.284000000000000141,15.557312093198385483
0.285000000000000142,15.242136874752617359
0.286000000000000143,14.929824076620425544
0.287000000000000144,14.620402080746453422
0.288000000000000145,14.313900082917474066
0.289000000000000146,14.010347765789049390
0.290000000000000147,13.709774994702630835
0.291000000000000147,13.412211535966273246
0.292000000000000148,13.117686797178842895
0.293000000000000149,12.826229589096822536
0.294000000000000150,12.537867908471561407
0.295000000000000151,12.252628741224773634
0.296000000000000152,11.970537885278355716
0.297000000000000153,11.691619792312689441
0.298000000000000154,11.415897427692820898
0.299000000000000155,11.143392147775529111
0.300000000000000155,10.874123593790043785
0.301000000000000156,10.608109601472239802
0.302000000000000157,10.345366125623604248
0.303000000000000158,10.085907178764523806
0.304000000000000159,9.829744783053071089
0.305000000000000160,9.576888934647234564
0.306000000000000161,9.327347579698585633
0.307000000000000162,9.081126601178814539
0.308000000000000163,8.838229815757127739
0.309000000000000163,8.598658979965403404
0.310000000000000164,8.362413804909031967
0.311000000000000165,8.129491978804320951
0.312000000000000166,7.899889196647885470
0.313000000000000167,7.673599196348999563
0.314000000000000168,7.450613800682702959
0.315000000000000169,7.230922964448642354
0.316000000000000170,7.014514826248719359
0.317000000000000171,6.801375764324644635
0.318000000000000171,6.591490455925127279
0.319000000000000172,6.384841939700299562
0.320000000000000173,6.181411680649552487
0.321000000000000174,5.981179637176612829
0.322000000000000175,5.784124329832994071
0.323000000000000176,5.590222911358162960
0.324000000000000177,5.399451237650728430
0.325000000000000178,5.211783939331015247
0.326000000000000179,5.027194493579743018
0.327000000000000179,4.845655295962297160
0.328000000000000180,4.667137731970786518
0.329000000000000181,4.491612248038863164
0.330000000000000182,4.319048421805794291
0.331000000000000183,4.149415031426649136
0.332000000000000184,3.982680123745530043
0.333000000000000185,3.818811081167398758
0.334000000000000186,3.657774687081848164
0.335000000000000187,3.499537189709322149
0.336000000000000187,3.344064364256027488
0.337000000000000188,3.191321573279398471
0.338000000000000189,3.041273825179658719
0.339000000000000190,2.893885830746775856
0.340000000000000191,2.749122057704703970
0.341000000000000192,2.606946783206216978
0.342000000000000193,2.467324144242861284
0.343000000000000194,2.330218185944428200
0.344000000000000195,2.195592907752226264
0.345000000000000195,2.063412307458386330
0.346000000000000196,1.933640423112201079
0.347000000000000197,1.806241372801271838
0.348000000000000198,1.681179392322238897
0.349000000000000199,1.558418870761874686
0.350000000000000200,1.437924384014799273
0.351000000000000201,1.319660726269140216
0.352000000000000202,1.203592939495900849
0.353000000000000203,1.089686340981736334
0.354000000000000203,0.977906548948281440
0.355000000000000204,0.868219506304511390
0.356000000000000205,0.760591502580984957
0.357000000000000206,0.654989194097069016
0.358000000000000207,0.551379622414636783
0.359000000000000208,0.449730231132711822
0.360000000000000209,0.350008881079094336
0.361000000000000210,0.252183863956138399
0.362000000000000210,0.156223914498152538
0.363000000000000211,0.062098221198783762
0.364000000000000212,-0.030223564333379204
0.365000000000000213,-0.120771319332440979
0.366000000000000214,-0.209574443087917839
0.367000000000000215,-0.296661851354546868
0.368000000000000216,-0.382061971901976050
0.369000000000000217,-0.465802741147343213
0.370000000000000218,-0.547911601815068705
0.371000000000000218,-0.628415501568569512
0.372000000000000219,-0.707340892560016643
0.373000000000000220,-0.784713731845151585
0.374000000000000221,-0.860559482611377269
0.375000000000000222,-0.934903116168491088
0.376000000000000223,-1.007769114653134235
0.377000000000000224,-1.079181474398807072
0.378000000000000225,-1.149163709925183463
0.379000000000000226,-1.217738858501579813
0.380000000000000226,-1.284929485241202318
0.381000000000000227,-1.350757688683871249
0.382000000000000228,-1.415245106826879207
0.383000000000000229,-1.478412923564753623
0.384000000000000230,-1.540281875500387088
0.385000000000000231,-1.600872259091592920
0.386000000000000232,-1.660203938098320009
0.387000000000000233,-1.718296351297680546
0.388000000000000234,-1.775168520434947439
0.389000000000000234,-1.830839058380590245
0.390000000000000235,-1.885326177464462294
0.391000000000000236,-1.938647697959906768
0.392000000000000237,-1.990821056691818303
0.393000000000000238,-2.041863315744133267
0.394000000000000239,-2.091791171243374325
0.395000000000000240,-2.140620962196442711
0.396000000000000241,-2.188368679361837543
0.397000000000000242,-2.235049974134827977
0.398000000000000242,-2.280680167428415395
0.399000000000000243,-2.325274258532729732
0.400000000000000244,-2.368846933937062804
0.401000000000000245,-2.411412576099508875
0.402000000000000246,-2.452985272150239204
0.403000000000000247,-2.493578822515714055
0.404000000000000248,-2.533206749451760054
0.405000000000000249,-2.571882305474638919
0.406000000000000250,-2.609618481679940594
0.407000000000000250,-2.646428015940167189
0.408000000000000251,-2.682323400972574490
0.409000000000000252,-2.717316892269657558
0.410000000000000253,-2.751420515885461437
0.411000000000000254,-2.784646076071595644
0.412000000000000255,-2.817005162757429737
0.413000000000000256,-2.848509158869856339
0.414000000000000257,-2.879169247488227779
0.415000000000000258,-2.908996418831138797
0.416000000000000258,-2.938001477071807699
0.417000000000000259,-2.966195046979767991
0.418000000000000260,-2.993587580386734448
0.419000000000000261,-3.020189362475240280
0.420000000000000262,-3.046010517888884106
0.421000000000000263,-3.071061016663670706
0.422000000000000264,-3.095350679979974817
0.423000000000000265,-3.118889185735457037
0.424000000000000266,-3.141686073939285340
0.425000000000000266,-3.163750751928389615
0.426000000000000267,-3.185092499406931843
0.427000000000000268,-3.205720473310251784
0.428000000000000269,-3.225643712494926429
0.429000000000000270,-3.244871142256816832
0.430000000000000271,-3.263411578679073166
0.431000000000000272,-3.281273732812491239
0.432000000000000273,-3.298466214690518594
0.433000000000000274,-3.314997537181636034
0.434000000000000274,-3.330876119681817293
0.435000000000000275,-3.346110291649954771
0.436000000000000276,-3.360708295989318195
0.437000000000000277,-3.374678292278106007
0.438000000000000278,-3.388028359852341076
0.439000000000000279,-3.400766500744449417
0.440000000000000280,-3.412900642480795277
0.441000000000000281,-3.424438640741685358
0.442000000000000282,-3.435388281887330031
0.443000000000000282,-3.445757285353193478
0.444000000000000283,-3.455553305918398710
0.445000000000000284,-3.464783935850670016
0.446000000000000285,-3.473456706931417504
0.447000000000000286,-3.481579092364658123
0.448000000000000287,-3.489158508573157569
0.449000000000000288,-3.496202316885633543
0.450000000000000289,-3.502717825118353723
0.451000000000000290,-3.508712289054833455
0.452000000000000290,-3.514192913827147713
0.453000000000000291,-3.519166855202238597
0.454000000000000292,-3.523641220776848826
0.455000000000000293,-3.527623071084369677
0.456000000000000294,-3.531119420617037097
0.457000000000000295,-3.534137238766859923
0.458000000000000296,-3.536683450688448804
0.459000000000000297,-3.538764938087113343
0.460000000000000298,-3.540388539935302781
0.461000000000000298,-3.541561053120584113
0.462000000000000299,-3.542289233028184103
0.463000000000000300,-3.542579794061096354
0.464000000000000301,-3.542439410100722164
0.465000000000000302,-3.541874714910909550
0.466000000000000303,-3.540892302488165999
0.467000000000000304,-3.539498727360874231
0.468000000000000305,-3.537700504840086246
0.469000000000000306,-3.535504111224566426
0.470000000000000306,-3.532915983962682471
0.471000000000000307,-3.529942521773429487
0.472000000000000308,-3.526590084729234853
0.473000000000000309,-3.522864994302695063
0.474000000000000310,-3.518773533379599971
0.475000000000000311,-3.514321946240415606
0.476000000000000312,-3.509516438512370939
0.477000000000000313,-3.504363177094229176
0.478000000000000314,-3.498868290055657582
0.479000000000000314,-3.493037866513267975
0.480000000000000315,-3.486877956485031405
0.481000000000000316,-3.480394570725019232
0.482000000000000317,-3.473593680540072448
0.483000000000000318,-3.466481217590165365
0.484000000000000319,-3.459063073674025102
0.485000000000000320,-3.451345100501561181
0.486000000000000321,-3.443333109454604024
0.487000000000000322,-3.435032871337391214
0.488000000000000322,-3.426450116118064493
0.489000000000000323,-3.417590532662693192
0.490000000000000324,-3.408459768462862804
0.491000000000000325,-3.399063429358170740
0.492000000000000326,-3.389407079254693311
0.493000000000000327,-3.379496239840589222
0.494000000000000328,-3.369336390299787265
0.495000000000000329,-3.358932967024876426
0.496000000000000330,-3.348291363329962245
0.497000000000000330,-3.337416929164627621
0.498000000000000331,-3.326314970829533202
0.499000000000000332,-3.314990750694787103
0.500000000000000333,-3.303449486921619549
0.501000000000000334,-3.291696353188109381
0.502000000000000335,-3.279736478419736923
0.503000000000000336,-3.267574946525290791
0.504000000000000337,-3.255216796138785007
0.505000000000000338,-3.242667020367898001
0.506000000000000338,-3.229930566549496174
0.507000000000000339,-3.217012336012698093
0.508000000000000340,-3.203917183849905204
0.509000000000000341,-3.190649918696329301
0.510000000000000342,-3.177215302518209494
0.511000000000000343,-3.163618050410282656
0.512000000000000344,-3.149862830402653024
0.513000000000000345,-3.135954263277453968
0.514000000000000346,-3.121896922395589691
0.515000000000000346,-3.107695333533685655
0.516000000000000347,-3.093353974731561706
0.517000000000000348,-3.078877276150417508
0.518000000000000349,-3.064269619941794254
0.519000000000000350,-3.049535340127615513
0.520000000000000351,-3.034678722491240155
0.521000000000000352,-3.019704004479854653
0.522000000000000353,-3.004615375118034670
0.523000000000000353,-2.989416974932745052
0.524000000000000354,-2.974112895889729824
0.525000000000000355,-2.958707181341319714
0.526000000000000356,-2.943203825985652333
0.527000000000000357,-2.927606775837397812
0.528000000000000358,-2.911919928209815822
0.529000000000000359,-2.896147131708262545
0.530000000000000360,-2.880292186234959306
0.531000000000000361,-2.864358843005091693
0.532000000000000361,-2.848350804574063311
0.533000000000000362,-2.832271724875879748
0.534000000000000363,-2.816125209272535290
0.535000000000000364,-2.799914814614332226
0.536000000000000365,-2.783644049310958657
0.537000000000000366,-2.767316373413295061
0.538000000000000367,-2.750935198705669826
0.539000000000000368,-2.734503888808624161
0.540000000000000369,-2.718025759291824439
0.541000000000000369,-2.701504077797165504
0.542000000000000370,-2.684942064171718989
0.543000000000000371,-2.668342890610522655
0.544000000000000372,-2.651709681808923413
0.545000000000000373,-2.635045515124384785
0.546000000000000374,-2.618353420747481231
0.547000000000000375,-2.601636381881981208
0.548000000000000376,-2.584897334933800028
0.549000000000000377,-2.568139169708600456
0.550000000000000377,-2.551364729617910942
0.551000000000000378,-2.534576811893455517
0.552000000000000379,-2.517778167809662460
0.553000000000000380,-2.500971502913961864
0.554000000000000381,-2.484159477264781479
0.555000000000000382,-2.467344705677079197
0.556000000000000383,-2.450529757975007161
0.557000000000000384,-2.433717159251782558
0.558000000000000385,-2.416909390136277924
0.559000000000000385,-2.400108887066331409
0.560000000000000386,-2.383318042568469686
0.561000000000000387,-2.366539205543853441
0.562000000000000388,-2.349774681560228284
0.563000000000000389,-2.333026733149724752
0.564000000000000390,-2.316297580112226751
0.565000000000000391,-2.299589399824161440
0.566000000000000392,-2.282904327552467194
0.567000000000000393,-2.266244456773605087
0.568000000000000393,-2.249611839497298593
0.569000000000000394,-2.233008486594886932
0.570000000000000395,-2.216436368132131296
0.571000000000000396,-2.199897413706119131
0.572000000000000397,-2.183393512786268698
0.573000000000000398,-2.166926515059080405
0.574000000000000399,-2.150498230776558550
0.575000000000000400,-2.134110431108036110
0.576000000000000401,-2.117764848495237384
0.577000000000000401,-2.101463177010484351
0.578000000000000402,-2.085207072717690568
0.579000000000000403,-2.068998154036109316
0.580000000000000404,-2.052838002106645465
0.581000000000000405,-2.036728161160461514
0.582000000000000406,-2.020670138889832934
0.583000000000000407,-2.004665406820981932
0.584000000000000408,-1.988715400688803481
0.585000000000000409,-1.972821520813276219
0.586000000000000409,-1.956985132477387479
0.587000000000000410,-1.941207566306510035
0.588000000000000411,-1.925490118648908844
0.589000000000000412,-1.909834051957440382
0.590000000000000413,-1.894240595172082875
0.591000000000000414,-1.878710944103329838
0.592000000000000415,-1.863246261816211113
0.593000000000000416,-1.847847679014807953
0.594000000000000417,-1.832516294427143366
0.595000000000000417,-1.817253175190399528
0.596000000000000418,-1.802059357236100112
0.597000000000000419,-1.786935845675453605
0.598000000000000420,-1.771883615184421501
0.599000000000000421,-1.756903610388635739
0.600000000000000422,-1.741996746247906458
0.601000000000000423,-1.727163908440234596
0.602000000000000424,-1.712405953745276932
0.603000000000000425,-1.697723710427087029
0.604000000000000425,-1.683117978616036847
0.605000000000000426,-1.668589530689860156
0.606000000000000427,-1.654139111653712080
0.607000000000000428,-1.639767439519025372
0.608000000000000429,-1.625475205681337743
0.609000000000000430,-1.611263075296657021
0.610000000000000431,-1.597131687656601517
0.611000000000000432,-1.583081656561995842
0.612000000000000433,-1.569113570694948612
0.613000000000000433,-1.555227993989326540
