# SiO2-Amorphous_TYR-AC
# h[nm],U(h)[kJ/mol]
0.149999999999999994,130.264922110161649016
0.150999999999999995,128.634101746049338999
0.151999999999999996,126.294223006274449972
0.152999999999999997,123.802150629691681161
0.153999999999999998,121.375269264294246341
0.154999999999999999,119.066300087075291003
0.156000000000000000,116.859334711581567490
0.157000000000000001,114.719012012853141869
0.158000000000000002,112.612878760665438449
0.159000000000000002,110.519224626821284119
0.160000000000000003,108.427703443145361462
0.161000000000000004,106.336913194342486122
0.162000000000000005,104.251173754375400904
0.163000000000000006,102.177587048053737817
0.164000000000000007,100.123804348554898525
0.165000000000000008,98.096571933329371973
0.166000000000000009,96.100957097179019684
0.167000000000000010,94.140093419969431920
0.168000000000000010,92.215278337122271068
0.169000000000000011,90.326277781457676497
0.170000000000000012,88.471724649281213715
0.171000000000000013,86.649530606704757929
0.172000000000000014,84.857259619080778634
0.173000000000000015,83.092434731952081961
0.174000000000000016,81.352766827912645908
0.175000000000000017,79.636305917611693417
0.176000000000000018,77.941522926214290123
0.177000000000000018,76.267333913305634496
0.178000000000000019,74.613080147560509658
0.179000000000000020,72.978477243025778876
0.180000000000000021,71.363545289433332641
0.181000000000000022,69.768530060056718867
0.182000000000000023,68.193823308438936692
0.183000000000000024,66.639888109647387182
0.184000000000000025,65.107193314317470367
0.185000000000000026,63.596159549723140003
0.186000000000000026,62.107117858207992356
0.187000000000000027,60.640281012913547443
0.188000000000000028,59.195726775648438434
0.189000000000000029,57.773391831084836667
0.190000000000000030,56.373074808226917298
0.191000000000000031,54.994446645661845707
0.192000000000000032,53.637066534310477550
0.193000000000000033,52.300401746370745570
0.194000000000000034,50.983849802334212598
0.195000000000000034,49.686761614473724080
0.196000000000000035,48.408464454842828673
0.197000000000000036,47.148283812751529354
0.198000000000000037,45.905563418965250833
0.199000000000000038,44.679682912983686549
0.200000000000000039,43.470072810011842535
0.201000000000000040,42.276226582273139343
0.202000000000000041,41.097709803605873446
0.203000000000000042,39.934166416706048608
0.204000000000000042,38.785322269831922881
0.205000000000000043,37.650986135891272966
0.206000000000000044,36.531048473667894427
0.207000000000000045,35.425478220844311750
0.208000000000000046,34.334317923871637390
0.209000000000000047,33.257677513029818783
0.210000000000000048,32.195727024506552993
0.211000000000000049,31.148688557129368348
0.212000000000000050,30.116827731429197001
0.213000000000000050,29.100444894696430254
0.214000000000000051,28.099866289072725323
0.215000000000000052,27.115435371745224558
0.216000000000000053,26.147504447998937138
0.217000000000000054,25.196426750058890320
0.218000000000000055,24.262549067963607996
0.219000000000000056,23.346205013638222425
0.220000000000000057,22.447708976218159194
0.221000000000000058,21.567350805746990261
0.222000000000000058,20.705391243745214780
0.223000000000000059,19.862058102874804888
0.224000000000000060,19.037543183971980199
0.225000000000000061,18.231999907016408713
0.226000000000000062,17.445541623030500489
0.227000000000000063,16.678240566312563686
0.228000000000000064,15.930127400640571977
0.229000000000000065,15.201191308960352089
0.230000000000000066,14.491380573419061051
0.231000000000000066,13.800603591236296097
0.232000000000000067,13.128730271651519956
0.233000000000000068,12.475593759876675293
0.234000000000000069,11.840992435461282994
0.235000000000000070,11.224692134596729431
0.236000000000000071,10.626428548514510908
0.237000000000000072,10.045909753146020194
0.238000000000000073,9.482818828504431252
0.239000000000000073,8.936816529725730263
0.240000000000000074,8.407543975280605153
0.241000000000000075,7.894625321475797541
0.242000000000000076,7.397670395937526955
0.243000000000000077,6.916277266263049839
0.244000000000000078,6.450034723398587744
0.245000000000000079,5.998524662519709061
0.246000000000000080,5.561324347229822607
0.247000000000000081,5.138008545734341403
0.248000000000000081,4.728151530281914816
0.249000000000000082,4.331328933581325202
0.250000000000000111,3.947119458100485367
0.251000000000000112,3.575106436134282806
0.252000000000000113,3.214879240292428442
0.253000000000000114,2.866034545617249130
0.254000000000000115,2.528177445897253683
0.255000000000000115,2.200922427910920298
0.256000000000000116,1.883894208322806296
0.257000000000000117,1.576728438775164554
0.258000000000000118,1.279072285384652341
0.259000000000000119,0.990584889376599720
0.260000000000000120,0.710937715982378982
0.261000000000000121,0.439814799001444379
0.262000000000000122,0.176912888598517171
0.263000000000000123,-0.078058490017138563
0.264000000000000123,-0.325377059391488643
0.265000000000000124,-0.565307886544670568
0.266000000000000125,-0.798103546191860191
0.267000000000000126,-1.024004343243485993
0.268000000000000127,-1.243238587602582212
0.269000000000000128,-1.456022914552740577
0.270000000000000129,-1.662562644336079032
0.271000000000000130,-1.863052174848953468
0.272000000000000131,-2.057675401728118025
0.273000000000000131,-2.246606160456565249
0.274000000000000132,-2.430008685481346298
0.275000000000000133,-2.608038081701457678
0.276000000000000134,-2.780840804048300363
0.277000000000000135,-2.948555141240991162
0.278000000000000136,-3.111311700152314952
0.279000000000000137,-3.269233887564487073
0.280000000000000138,-3.422438386426217782
0.281000000000000139,-3.571035624042406820
0.282000000000000139,-3.715130229933083506
0.283000000000000140,-3.854821481388941429
0.284000000000000141,-3.990203735025460219
0.285000000000000142,-4.121366842896490468
0.286000000000000143,-4.248396551970468948
0.287000000000000144,-4.371374885998006832
0.288000000000000145,-4.490380509009577636
0.289000000000000146,-4.605489069874563413
0.290000000000000147,-4.716773527530987664
0.291000000000000147,-4.824304456656580697
0.292000000000000148,-4.928150333699369057
0.293000000000000149,-5.028377803318017314
0.294000000000000150,-5.125051925401310271
0.295000000000000151,-5.218236402941657914
0.296000000000000152,-5.307993791130672712
0.297000000000000153,-5.394385688126389411
0.298000000000000154,-5.477472908011847608
0.299000000000000155,-5.557315636524971403
0.300000000000000155,-5.633973570189860780
0.301000000000000156,-5.707506039520841234
0.302000000000000157,-5.777972117004049224
0.303000000000000158,-5.845430710586305700
0.304000000000000159,-5.909940643419890449
0.305000000000000160,-5.971560720623575236
0.306000000000000161,-6.030349783826780552
0.307000000000000162,-6.086366754264794565
0.308000000000000163,-6.139670665189299825
0.309000000000000163,-6.190320684350764324
0.310000000000000164,-6.238376127297966534
0.311000000000000165,-6.283896462224940471
0.312000000000000166,-6.326941307078580046
0.313000000000000167,-6.367570419619939415
0.314000000000000168,-6.405843681110447108
0.315000000000000169,-6.441821074270691838
0.316000000000000170,-6.475562656134414397
0.317000000000000171,-6.507128526394083678
0.318000000000000171,-6.536578791807619027
0.319000000000000172,-6.563973527208236014
0.320000000000000173,-6.589372733631426726
0.321000000000000174,-6.612836294044891261
0.322000000000000175,-6.634423927139248001
0.323000000000000176,-6.654195139609257126
0.324000000000000177,-6.672209177327609098
0.325000000000000178,-6.688524975786026339
0.326000000000000179,-6.703201110151785436
0.327000000000000179,-6.716295745261417593
0.328000000000000180,-6.727866585847986691
0.329000000000000181,-6.737970827273817243
0.330000000000000182,-6.746665107016227125
0.331000000000000183,-6.754005457131401435
0.332000000000000184,-6.760047257898885498
0.333000000000000185,-6.764845192828332188
0.334000000000000186,-6.768453205189828736
0.335000000000000187,-6.770924456209769460
0.336000000000000187,-6.772311285056143326
0.337000000000000188,-6.772665170719389671
0.338000000000000189,-6.772036695879146251
0.339000000000000190,-6.770475512831350962
0.340000000000000191,-6.768030311535710553
0.341000000000000192,-6.764748789830434816
0.342000000000000193,-6.760677625847795191
0.343000000000000194,-6.755862452653033756
0.344000000000000195,-6.750347835117482376
0.345000000000000195,-6.744177249027411669
0.346000000000000196,-6.737393062420229839
0.347000000000000197,-6.730036519131492589
0.348000000000000198,-6.722147724528349855
0.349000000000000199,-6.713765633397845711
0.350000000000000200,-6.704928039952372743
0.351000000000000201,-6.695671569908588694
0.352000000000000202,-6.686031674591134788
0.353000000000000203,-6.676042627007959140
0.354000000000000203,-6.665737519840067016
0.355000000000000204,-6.655148265284938525
0.356000000000000205,-6.644305596690124105
0.357000000000000206,-6.633239071910939977
0.358000000000000207,-6.621977078323939558
0.359000000000000208,-6.610546839426501897
0.360000000000000209,-6.598974422951433105
0.361000000000000210,-6.587284750424475810
0.362000000000000210,-6.575501608092260142
0.363000000000000211,-6.563647659147671121
0.364000000000000212,-6.551744457179847991
0.365000000000000213,-6.539812460776078140
0.366000000000000214,-6.527871049203440634
0.367000000000000215,-6.515938539098665494
0.368000000000000216,-6.504032202095714865
0.369000000000000217,-6.492168283321393396
0.370000000000000218,-6.480362020690835223
0.371000000000000218,-6.468627664935749699
0.372000000000000219,-6.456978500300053270
0.373000000000000220,-6.445426865839005259
0.374000000000000221,-6.433984177259619130
0.375000000000000222,-6.422660949241878470
0.376000000000000223,-6.411466818182357308
0.377000000000000224,-6.400410565303343624
0.378000000000000225,-6.389500140072919443
0.379000000000000226,-6.378742683883081632
0.380000000000000226,-6.368144553935370489
0.381000000000000227,-6.357711347285031955
0.382000000000000228,-6.347447924997310587
0.383000000000000229,-6.337358436371067327
0.384000000000000230,-6.327446343187153488
0.385000000000000231,-6.317714443941122582
0.386000000000000232,-6.308164898021546563
0.387000000000000233,-6.298799249797552235
0.388000000000000234,-6.289618452580855390
0.389000000000000234,-6.280622892429851944
0.390000000000000235,-6.271812411764782880
0.391000000000000236,-6.263186332765373621
0.392000000000000237,-6.254743480523709209
0.393000000000000238,-6.246482205927285314
0.394000000000000239,-6.238400408248574003
0.395000000000000240,-6.230495557419446939
0.396000000000000241,-6.222764715970269478
0.397000000000000242,-6.215204560615089413
0.398000000000000242,-6.207811403466015676
0.399000000000000243,-6.200581212861223435
0.400000000000000244,-6.193509633792578128
0.401000000000000245,-6.186592007920333813
0.402000000000000246,-6.179823393163431433
0.403000000000000247,-6.173198582855586203
0.404000000000000248,-6.166712124458304523
0.405000000000000249,-6.160358337823319985
0.406000000000000250,-6.154131332997982540
0.407000000000000250,-6.148025027568319700
0.408000000000000251,-6.142033163535414175
0.409000000000000252,-6.136149323721853399
0.410000000000000253,-6.130366947705821801
0.411000000000000254,-6.124679347281412944
0.412000000000000255,-6.119079721444465214
0.413000000000000256,-6.113561170904204367
0.414000000000000257,-6.108116712121438141
0.415000000000000258,-6.102739290875141442
0.416000000000000258,-6.097421795359571739
0.417000000000000259,-6.092157068814924692
0.418000000000000260,-6.086937921695026787
0.419000000000000261,-6.081757143376139041
0.420000000000000262,-6.076607513411416583
0.421000000000000263,-6.071481812336164907
0.422000000000000264,-6.066372832029213846
0.423000000000000265,-6.061273385636472888
0.424000000000000266,-6.056176317062875292
0.425000000000000266,-6.051074510039265775
0.426000000000000267,-6.045960896771213733
0.427000000000000268,-6.040828466176948019
0.428000000000000269,-6.035670271721832236
0.429000000000000270,-6.030479438857083707
0.430000000000000271,-6.025249172070639148
0.431000000000000272,-6.019972761558189944
0.432000000000000273,-6.014643589522620459
0.433000000000000274,-6.009255136110230211
0.434000000000000274,-6.003800984992127887
0.435000000000000275,-5.998274828599431174
0.436000000000000276,-5.992670473020842437
0.437000000000000277,-5.986981842571298174
0.438000000000000278,-5.981202984040397297
0.439000000000000279,-5.975328070629394972
0.440000000000000280,-5.969351405585451076
0.441000000000000281,-5.963267425541864952
0.442000000000000282,-5.957070703573137394
0.443000000000000282,-5.950755951973339286
0.444000000000000283,-5.944318024766648279
0.445000000000000284,-5.937751919958476954
0.446000000000000285,-5.931052781535744778
0.447000000000000286,-5.924215901224872738
0.448000000000000287,-5.917236720015605300
0.449000000000000288,-5.910110829459194193
0.450000000000000289,-5.902833972748926072
0.451000000000000290,-5.895402045591120022
0.452000000000000290,-5.887811096874594696
0.453000000000000291,-5.880057329146315404
0.454000000000000292,-5.872137098901053953
0.455000000000000293,-5.864046916692535305
0.456000000000000294,-5.855783447073588555
0.457000000000000295,-5.847343508372594201
0.458000000000000296,-5.838724072313331348
0.459000000000000297,-5.829922263485368461
0.460000000000000298,-5.820935358671782467
0.461000000000000298,-5.811760786040968796
0.462000000000000299,-5.802396124209165507
0.463000000000000300,-5.792839101180033978
0.464000000000000301,-5.783087593167707929
0.465000000000000302,-5.773139623309312185
0.466000000000000303,-5.762993360273021892
0.467000000000000304,-5.752647116767453994
0.468000000000000305,-5.742099347958045108
0.469000000000000306,-5.731348649795959815
0.470000000000000306,-5.720393757264930379
0.471000000000000307,-5.709233542551125140
0.472000000000000308,-5.697867013141270753
0.473000000000000309,-5.686293309853826194
0.474000000000000310,-5.674511704808004708
0.475000000000000311,-5.662521599335287092
0.476000000000000312,-5.650322521837883194
0.477000000000000313,-5.637914125598491921
0.478000000000000314,-5.625296186545467592
0.479000000000000314,-5.612468600977593702
0.480000000000000315,-5.599431383252195360
0.481000000000000316,-5.586184663440521447
0.482000000000000317,-5.572728684953914602
0.483000000000000318,-5.559063802144344812
0.484000000000000319,-5.545190477882661284
0.485000000000000320,-5.531109281117816856
0.486000000000000321,-5.516820884420183368
0.487000000000000322,-5.502326061511986666
0.488000000000000322,-5.487625684787646563
0.489000000000000323,-5.472720722826943884
0.490000000000000324,-5.457612237903543217
0.491000000000000325,-5.442301383491431110
0.492000000000000326,-5.426789401771701549
0.493000000000000327,-5.411077621142045047
0.494000000000000328,-5.395167453731064100
0.495000000000000329,-5.379060392919660316
0.496000000000000330,-5.362758010871321979
0.497000000000000330,-5.346261956073450783
0.498000000000000331,-5.329573950891289158
0.499000000000000332,-5.312695789136428814
0.500000000000000333,-5.295629333651357129
0.501000000000000334,-5.278376513911643642
0.502000000000000335,-5.260939323647274790
0.503000000000000336,-5.243319818484448724
0.504000000000000337,-5.225520113609201545
0.505000000000000338,-5.207542381454023150
0.506000000000000338,-5.189388849408659965
0.507000000000000339,-5.171061797556170347
0.508000000000000340,-5.152563556435200809
0.509000000000000341,-5.133896504829525753
0.510000000000000342,-5.115063067585563950
0.511000000000000343,-5.096065713458850510
0.512000000000000344,-5.076906952990068334
0.513000000000000345,-5.057589336411393965
0.514000000000000346,-5.038115451583843551
0.515000000000000346,-5.018487921966046095
0.516000000000000347,-4.998709404615087060
0.517000000000000348,-4.978782588219887728
0.518000000000000349,-4.958710191167433834
0.519000000000000350,-4.938494959642380167
0.520000000000000351,-4.918139665760196344
0.521000000000000352,-4.897647105734305839
0.522000000000000353,-4.877020098077305299
0.523000000000000353,-4.856261481836535943
0.524000000000000354,-4.835374114864221085
0.525000000000000355,-4.814360872122157353
0.526000000000000356,-4.793224644021179870
0.527000000000000357,-4.771968334795397837
0.528000000000000358,-4.750594860911204087
0.529000000000000359,-4.729107149511100339
0.530000000000000360,-4.707508136892255557
0.531000000000000361,-4.685800767019766333
0.532000000000000361,-4.663987990074487833
0.533000000000000362,-4.642072761035358042
0.534000000000000363,-4.620058038296026126
0.535000000000000364,-4.597946782315674774
0.536000000000000365,-4.575741954303775394
0.537000000000000366,-4.553446514938659817
0.538000000000000367,-4.531063423119563005
0.539000000000000368,-4.508595634752032844
0.540000000000000369,-4.486046101566278921
0.541000000000000369,-4.463417769968360815
0.542000000000000370,-4.440713579923739829
0.543000000000000371,-4.417936463873010311
0.544000000000000372,-4.395089345679447312
0.545000000000000373,-4.372175139608030392
0.546000000000000374,-4.349196749335575873
0.547000000000000375,-4.326157066991646261
0.548000000000000376,-4.303058972229893087
0.549000000000000377,-4.279905331329382001
0.550000000000000377,-4.256698996325575912
0.551000000000000378,-4.233442804170524099
0.552000000000000379,-4.210139575921964195
0.553000000000000380,-4.186792115960765059
0.554000000000000381,-4.163403211236426316
0.555000000000000382,-4.139975630540210005
0.556000000000000383,-4.116512123805344814
0.557000000000000384,-4.093015421434093248
0.558000000000000385,-4.069488233651020970
0.559000000000000385,-4.045933249882213367
0.560000000000000386,-4.022353138159895813
0.561000000000000387,-3.998750544552071684
0.562000000000000388,-3.975128092616686981
0.563000000000000389,-3.951488382879950301
0.564000000000000390,-3.927833992338293889
0.565000000000000391,-3.904167473983570780
0.566000000000000392,-3.880491356351031040
0.567000000000000393,-3.856808143089677454
0.568000000000000393,-3.833120312554459730
0.569000000000000394,-3.809430317419955081
0.570000000000000395,-3.785740584315110624
0.571000000000000396,-3.762053513478473832
0.572000000000000397,-3.738371478433660577
0.573000000000000398,-3.714696825684472348
0.574000000000000399,-3.691031874429334003
0.575000000000000400,-3.667378916294543156
0.576000000000000401,-3.643740215085960354
0.577000000000000401,-3.620118006558741719
0.578000000000000402,-3.596514498204580690
0.579000000000000403,-3.572931869056163556
0.580000000000000404,-3.549372269508390243
0.581000000000000405,-3.525837821155904273
0.582000000000000406,-3.502330616646610828
0.583000000000000407,-3.478852719550680206
0.584000000000000408,-3.455406164244764433
0.585000000000000409,-3.431992955810927892
0.586000000000000409,-3.408615069949944232
0.587000000000000410,-3.385274452908627829
0.588000000000000411,-3.361973021420703311
0.589000000000000412,-3.338712662660996866
0.590000000000000413,-3.315495234212415987
0.591000000000000414,-3.292322564045488953
0.592000000000000415,-3.269196450510057250
0.593000000000000416,-3.246118662338720817
0.594000000000000417,-3.223090938661752780
0.595000000000000417,-3.200114989033186141
0.596000000000000418,-3.177192493467528855
0.597000000000000419,-3.154325102487082866
0.598000000000000420,-3.131514437179232058
0.599000000000000421,-3.108762089263625850
0.600000000000000422,-3.086069621168767707
0.601000000000000423,-3.063438566117805628
0.602000000000000424,-3.040870428223167110
0.603000000000000425,-3.018366682589765482
0.604000000000000425,-2.995928775426439650
0.605000000000000426,-2.973558124165398553
0.606000000000000427,-2.951256117589378558
0.607000000000000428,-2.929024115966105679
0.608000000000000429,-2.906863451190057290
0.609000000000000430,-2.884775426930929587
0.610000000000000431,-2.862761318788843656
0.611000000000000432,-2.840822374455821198
0.612000000000000433,-2.818959813883372245
0.613000000000000433,-2.797174829455948419
