# SiO2-Amorphous_ACYLSYRINGYL-AC
# h[nm],U(h)[kJ/mol]
0.149999999999999994,127.289703460369224786
0.150999999999999995,124.831902217466264915
0.151999999999999996,122.635989027161514286
0.152999999999999997,120.538832167444496690
0.153999999999999998,118.467332519830478077
0.154999999999999999,116.395386489849215650
0.156000000000000000,114.319180932607963541
0.157000000000000001,112.243715741195657642
0.158000000000000002,110.175999913496639238
0.159000000000000002,108.122056296410661957
0.160000000000000003,106.085975428919226715
0.161000000000000004,104.069971089318599411
0.162000000000000005,102.074840552255551529
0.163000000000000006,100.100510690156767168
0.164000000000000007,98.146517461326226339
0.165000000000000008,96.212361582186872511
0.166000000000000009,94.297734156962221164
0.167000000000000010,92.402630291178255106
0.168000000000000010,90.527377521124137161
0.169000000000000011,88.672606335065623284
0.170000000000000012,86.839186469164332038
0.171000000000000013,85.028147568398210865
0.172000000000000014,83.240597610379651883
0.173000000000000015,81.477647894494779734
0.174000000000000016,79.740349677121827199
0.175000000000000017,78.029644725276938289
0.176000000000000018,76.346330082374791459
0.177000000000000018,74.691036054102369235
0.178000000000000019,73.064215680098030248
0.179000000000000020,71.466143617657081677
0.180000000000000021,69.896922305907736472
0.181000000000000022,68.356493404482577603
0.182000000000000023,66.844652733729830629
0.183000000000000024,65.361067228015173214
0.184000000000000025,63.905292710487017871
0.185000000000000026,62.476791581042803614
0.186000000000000026,61.074949763673728853
0.187000000000000027,59.699092476994806589
0.188000000000000028,58.348498570062304225
0.189000000000000029,57.022413305595136990
0.190000000000000030,55.720059577713513477
0.191000000000000031,54.440647625767724094
0.192000000000000032,53.183383354704481860
0.193000000000000033,51.947475400661190292
0.194000000000000034,50.732141092723551878
0.195000000000000034,49.536611462157573271
0.196000000000000035,48.360135442474309286
0.197000000000000036,47.201983390341332836
0.198000000000000037,46.061450040963826780
0.199000000000000038,44.937856993936492245
0.200000000000000039,43.830554808059588368
0.201000000000000040,42.738924767161542206
0.202000000000000041,41.662380364193154492
0.203000000000000042,40.600368538105890082
0.204000000000000042,39.552370687445602471
0.205000000000000043,38.517903476178197764
0.206000000000000044,37.496519440900058839
0.207000000000000045,36.487807404086886720
0.208000000000000046,35.491392695169736271
0.209000000000000047,34.506937179743133015
0.210000000000000048,33.534139096854431727
0.211000000000000049,32.572732704849201468
0.212000000000000050,31.622487737424187060
0.213000000000000050,30.683208673166330271
0.214000000000000051,29.754733823749937471
0.215000000000000052,28.836934247975033685
0.216000000000000053,27.929712500834909861
0.217000000000000054,27.033001228696786455
0.218000000000000055,26.146761623395793350
0.219000000000000056,25.270981749523613757
0.220000000000000057,24.405674760399811873
0.221000000000000058,23.550877019136770230
0.222000000000000058,22.706646141828866092
0.223000000000000059,21.873058980230648984
0.224000000000000060,21.050209561341670650
0.225000000000000061,20.238207001111536698
0.226000000000000062,19.437173409040138239
0.227000000000000063,18.647241799803531137
0.228000000000000064,17.868554027213882307
0.229000000000000065,17.101258754851258459
0.230000000000000066,16.345509476617511524
0.231000000000000066,15.601462599283127730
0.232000000000000067,14.869275597856709936
0.233000000000000068,14.149105253325467757
0.234000000000000069,13.441105981018816706
0.235000000000000070,12.745428256553671176
0.236000000000000071,12.062217145049805467
0.237000000000000072,11.391610938067803005
0.238000000000000073,10.733739901537843409
0.239000000000000073,10.088725136823034845
0.240000000000000074,9.456677556002706098
0.241000000000000075,8.837696971480184516
0.242000000000000076,8.231871299115837814
0.243000000000000077,7.639275873264354644
0.244000000000000078,7.059972871357174995
0.245000000000000079,6.494010845015383282
0.246000000000000080,5.941424354105651950
0.247000000000000081,5.402233699657782218
0.248000000000000081,4.876444751147071877
0.249000000000000082,4.364048863302530279
0.250000000000000111,3.865022877329495454
0.251000000000000112,3.379329201229230417
0.252000000000000113,2.906915963751326437
0.253000000000000114,2.447717236427413123
0.254000000000000115,2.001653318095228506
0.255000000000000115,1.568631076332535290
0.256000000000000116,1.148544340270553077
0.257000000000000117,0.741274339344960564
0.258000000000000118,0.346690182664103841
0.259000000000000119,-0.035350626177097590
0.260000000000000120,-0.405001643835240455
0.261000000000000121,-0.762426916311606528
0.262000000000000122,-1.107800386993309516
0.263000000000000123,-1.441305288010223506
0.264000000000000123,-1.763133519041876651
0.265000000000000124,-2.073485017465904079
0.266000000000000125,-2.372567123493630081
0.267000000000000126,-2.660593943689003371
0.268000000000000127,-2.937785716018486593
0.269000000000000128,-3.204368179331352540
0.270000000000000129,-3.460571949925974167
0.271000000000000130,-3.706631907618405997
0.272000000000000131,-3.942786593495642755
0.273000000000000131,-4.169277621310014226
0.274000000000000132,-4.386349104252342812
0.275000000000000133,-4.594247098632077808
0.276000000000000134,-4.793219065792016842
0.277000000000000135,-4.983513353394075196
0.278000000000000136,-5.165378697032361188
0.279000000000000137,-5.339063742958830794
0.280000000000000138,-5.504816592546540654
0.281000000000000139,-5.662884368965910298
0.282000000000000139,-5.813512806409478983
0.283000000000000140,-5.956945862071472142
0.284000000000000141,-6.093425350968871612
0.285000000000000142,-6.223190603581090663
0.286000000000000143,-6.346478146185178026
0.287000000000000144,-6.463521403672189081
0.288000000000000145,-6.574550424548644578
0.289000000000000146,-6.679791627752538652
0.290000000000000147,-6.779467570848391134
0.291000000000000147,-6.873796739107217668
0.292000000000000148,-6.962993354927151657
0.293000000000000149,-7.047267207006120415
0.294000000000000150,-7.126823498640924015
0.295000000000000151,-7.201862714495751661
0.296000000000000152,-7.272580505157316466
0.297000000000000153,-7.339167588773788609
0.298000000000000154,-7.401809669058875940
0.299000000000000155,-7.460687368931727903
0.300000000000000155,-7.515976179056442774
0.301000000000000156,-7.567846420541807007
0.302000000000000157,-7.616463221062723221
0.303000000000000158,-7.661986503667979953
0.304000000000000159,-7.704570987545838356
0.305000000000000160,-7.744366200027622327
0.306000000000000161,-7.781516499120972874
0.307000000000000162,-7.816161105877678317
0.308000000000000163,-7.848434145915912374
0.309000000000000163,-7.878464699433474827
0.310000000000000164,-7.906376859066485352
0.311000000000000165,-7.932289794966877139
0.312000000000000166,-7.956317826492312228
0.313000000000000167,-7.978570499922478909
0.314000000000000168,-7.999152671637342671
0.315000000000000169,-8.018164596214550244
0.316000000000000170,-8.035702018925386270
0.317000000000000171,-8.051856272130864411
0.318000000000000171,-8.066714375101881274
0.319000000000000172,-8.080359136809905252
0.320000000000000173,-8.092869261256673497
0.321000000000000174,-8.104319454933486711
0.322000000000000175,-8.114780536022573543
0.323000000000000176,-8.124319544974216711
0.324000000000000177,-8.132999856114642157
0.325000000000000178,-8.140881289959921219
0.326000000000000179,-8.148020225931714933
0.327000000000000179,-8.154469715189824441
0.328000000000000180,-8.160279593315786784
0.329000000000000181,-8.165496592600359094
0.330000000000000182,-8.170164453705123009
0.331000000000000183,-8.174324036486261491
0.332000000000000184,-8.178013429784735777
0.333000000000000185,-8.181268060003237252
0.334000000000000186,-8.184120798305659861
0.335000000000000187,-8.186602066289399460
0.336000000000000187,-8.188739939995041794
0.337000000000000188,-8.190560252131053431
0.338000000000000189,-8.192086692404263459
0.339000000000000190,-8.193340905858892853
0.340000000000000191,-8.194342589138178923
0.341000000000000192,-8.195109584594092667
0.342000000000000193,-8.195657972180434570
0.343000000000000194,-8.196002159074829763
0.344000000000000195,-8.196154966983780099
0.345000000000000195,-8.196127717094228160
0.346000000000000196,-8.195930312642584425
0.347000000000000197,-8.195571319080173112
0.348000000000000198,-8.195058041820944439
0.349000000000000199,-8.194396601563955329
0.350000000000000200,-8.193592007189327120
0.351000000000000201,-8.192648226232044806
0.352000000000000202,-8.191568252943165263
0.353000000000000203,-8.190354173953060979
0.354000000000000203,-8.189007231555653021
0.355000000000000204,-8.187527884636651265
0.356000000000000205,-8.185915867272687052
0.357000000000000206,-8.184170245031726409
0.358000000000000207,-8.182289469007789862
0.359000000000000208,-8.180271427626294667
0.360000000000000209,-8.178113496258635706
0.361000000000000210,-8.175812584686607210
0.362000000000000210,-8.173365182459566114
0.363000000000000211,-8.170767402188767292
0.364000000000000212,-8.168015020824736183
0.365000000000000213,-8.165103518964917484
0.366000000000000214,-8.162028118239824437
0.367000000000000215,-8.158783816826725044
0.368000000000000216,-8.155365423140793268
0.369000000000000217,-8.151767587753839805
0.370000000000000218,-8.147984833591459974
0.371000000000000218,-8.144011584459352804
0.372000000000000219,-8.139842191949799854
0.373000000000000220,-8.135470960779343841
0.374000000000000221,-8.130892172608296775
0.375000000000000222,-8.126100108392604326
0.376000000000000223,-8.121089069318371045
0.377000000000000224,-8.115853396368597927
0.378000000000000225,-8.110387488571424441
0.379000000000000226,-8.104685819978406869
0.380000000000000226,-8.098742955420867418
0.381000000000000227,-8.092553565091392898
0.382000000000000228,-8.086112437997055480
0.383000000000000229,-8.079414494329906660
0.384000000000000230,-8.072454796799444665
0.385000000000000231,-8.065228560971068106
0.386000000000000232,-8.057731164653258560
0.387000000000000233,-8.049958156375620177
0.388000000000000234,-8.041905262998565007
0.389000000000000234,-8.033568396494878527
0.390000000000000235,-8.024943659941882856
0.391000000000000236,-8.016027352762339575
0.392000000000000237,-8.006815975250848538
0.393000000000000238,-7.997306232421746763
0.394000000000000239,-7.987495037213204974
0.395000000000000240,-7.977379513081428897
0.396000000000000241,-7.966956996017617421
0.397000000000000242,-7.956225036019439756
0.398000000000000242,-7.945181398047729715
0.399000000000000243,-7.933824062497988550
0.400000000000000244,-7.922151225215431580
0.401000000000000245,-7.910161297081248044
0.402000000000000246,-7.897852903196636021
0.403000000000000247,-7.885224881690433563
0.404000000000000248,-7.872276282175057815
0.405000000000000249,-7.859006363874560641
0.406000000000000250,-7.845414593447659790
0.407000000000000250,-7.831500642527795542
0.408000000000000251,-7.817264385001261751
0.409000000000000252,-7.802705894043670654
0.410000000000000253,-7.787825438934127931
0.411000000000000254,-7.772623481665685397
0.412000000000000255,-7.757100673369810906
0.413000000000000256,-7.741257850571892973
0.414000000000000257,-7.725096031293885446
0.415000000000000258,-7.708616411019680648
0.416000000000000258,-7.691820358537819757
0.417000000000000259,-7.674709411675648241
0.418000000000000260,-7.657285272938239018
0.419000000000000261,-7.639549805064781651
0.420000000000000262,-7.621505026514435954
0.421000000000000263,-7.603153106893169699
0.422000000000000264,-7.584496362332290076
0.423000000000000265,-7.565537250828951343
0.424000000000000266,-7.546278367558412192
0.425000000000000266,-7.526722440166994765
0.426000000000000267,-7.506872324054524093
0.427000000000000268,-7.486730997654291286
0.428000000000000269,-7.466301557718148629
0.429000000000000270,-7.445587214613949456
0.430000000000000271,-7.424591287641975512
0.431000000000000272,-7.403317200376692497
0.432000000000000273,-7.381768476039634486
0.433000000000000274,-7.359948732908934588
0.434000000000000274,-7.337861679770524503
0.435000000000000275,-7.315511111415770706
0.436000000000000276,-7.292900904189868250
0.437000000000000277,-7.270035011595024521
0.438000000000000278,-7.246917459952141982
0.439000000000000279,-7.223552344124428259
0.440000000000000280,-7.199943823305943624
0.441000000000000281,-7.176096116877997311
0.442000000000000282,-7.152013500335951512
0.443000000000000282,-7.127700301288603768
0.444000000000000283,-7.103160895532409924
0.445000000000000284,-7.078399703202170379
0.446000000000000285,-7.053421184999900895
0.447000000000000286,-7.028229838503333937
0.448000000000000287,-7.002830194555059506
0.449000000000000288,-6.977226813733563127
0.450000000000000289,-6.951424282906801366
0.451000000000000290,-6.925427211869076061
0.452000000000000290,-6.899240230061749912
0.453000000000000291,-6.872867983378048606
0.454000000000000292,-6.846315131052307379
0.455000000000000293,-6.819586342633637166
0.456000000000000294,-6.792686295044044975
0.457000000000000295,-6.765619669720843277
0.458000000000000296,-6.738391149843029559
0.459000000000000297,-6.711005417641379367
0.460000000000000298,-6.683467151791665728
0.461000000000000298,-6.655781024890552899
0.462000000000000299,-6.627951701013492070
0.463000000000000300,-6.599983833353877394
0.464000000000000301,-6.571882061942735831
0.465000000000000302,-6.543651011448079480
0.466000000000000303,-6.515295289052973615
0.467000000000000304,-6.486819482411414484
0.468000000000000305,-6.458228157680943937
0.469000000000000306,-6.429525857630963515
0.470000000000000306,-6.400717099825681267
0.471000000000000307,-6.371806374880395474
0.472000000000000308,-6.342798144790142700
0.473000000000000309,-6.313696841329341503
0.474000000000000310,-6.284506864521231861
0.475000000000000311,-6.255232581175866891
0.476000000000000312,-6.225878323495392053
0.477000000000000313,-6.196448387745227215
0.478000000000000314,-6.166947032989888555
0.479000000000000314,-6.137378479892165117
0.480000000000000315,-6.107746909574173877
0.481000000000000316,-6.078056462539110250
0.482000000000000317,-6.048311237652184147
0.483000000000000318,-6.018515291179510562
0.484000000000000319,-5.988672635883501627
0.485000000000000320,-5.958787240173466060
0.486000000000000321,-5.928863027310032230
0.487000000000000322,-5.898903874662057234
0.488000000000000322,-5.868913613014600017
0.489000000000000323,-5.838896025926785249
0.490000000000000324,-5.808854849138057830
0.491000000000000325,-5.778793770021601439
0.492000000000000326,-5.748716427083539138
0.493000000000000327,-5.718626409506748942
0.494000000000000328,-5.688527256737816451
0.495000000000000329,-5.658422458116052489
0.496000000000000330,-5.628315452543139585
0.497000000000000330,-5.598209628192326370
0.498000000000000331,-5.568108322255770126
0.499000000000000332,-5.538014820729009635
0.500000000000000333,-5.507932358231217407
0.501000000000000334,-5.477864117860126392
0.502000000000000335,-5.447813231080461449
0.503000000000000336,-5.417782777644768899
0.504000000000000337,-5.387775785545466434
0.505000000000000338,-5.357795230997047575
0.506000000000000338,-5.327844038447387298
0.507000000000000339,-5.297925080617016391
0.508000000000000340,-5.268041178565374238
0.509000000000000341,-5.238195101783068353
0.510000000000000342,-5.208389568308999351
0.511000000000000343,-5.178627244871531587
0.512000000000000344,-5.148910747052623194
0.513000000000000345,-5.119242639474054002
0.514000000000000346,-5.089625436004824088
0.515000000000000346,-5.060061599988796566
0.516000000000000347,-5.030553544491690232
0.517000000000000348,-5.001103632566679558
0.518000000000000349,-4.971714177537590373
0.519000000000000350,-4.942387443299044669
0.520000000000000351,-4.913125644632607703
0.521000000000000352,-4.883930947538326350
0.522000000000000353,-4.854805469580725230
0.523000000000000353,-4.825751280248627317
0.524000000000000354,-4.796770401328122269
0.525000000000000355,-4.767864807287837792
0.526000000000000356,-4.739036425675953623
0.527000000000000357,-4.710287137528294643
0.528000000000000358,-4.681618777786764163
0.529000000000000359,-4.653033135727606684
0.530000000000000360,-4.624531955398806460
0.531000000000000361,-4.596116936066094283
0.532000000000000361,-4.567789732666937219
0.533000000000000362,-4.539551956272013022
0.534000000000000363,-4.511405174553563491
0.535000000000000364,-4.483350912260180010
0.536000000000000365,-4.455390651697447524
0.537000000000000366,-4.427525833214010831
0.538000000000000367,-4.399757855692532083
0.539000000000000368,-4.372088077045179766
0.540000000000000369,-4.344517814713054094
0.541000000000000369,-4.317048346169295669
0.542000000000000370,-4.289680909425322319
0.543000000000000371,-4.262416703539851248
0.544000000000000372,-4.235256889130335267
0.545000000000000373,-4.208202588886432061
0.546000000000000374,-4.181254888085097932
0.547000000000000375,-4.154414835107037796
0.548000000000000376,-4.127683441954128618
0.549000000000000377,-4.101061684767516091
0.550000000000000377,-4.074550504346059476
0.551000000000000378,-4.048150806664828849
0.552000000000000379,-4.021863463393409610
0.553000000000000380,-3.995689312413685634
0.554000000000000381,-3.969629158336838604
0.555000000000000382,-3.943683773019424077
0.556000000000000383,-3.917853896078060671
0.557000000000000384,-3.892140235402765658
0.558000000000000385,-3.866543467668497325
0.559000000000000385,-3.841064238844811740
0.560000000000000386,-3.815703164703408756
0.561000000000000387,-3.790460831323352320
0.562000000000000388,-3.765337795593787007
0.563000000000000389,-3.740334585714018889
0.564000000000000390,-3.715451701690713371
0.565000000000000391,-3.690689615832128734
0.566000000000000392,-3.666048773239188652
0.567000000000000393,-3.641529592293279993
0.568000000000000393,-3.617132465140616482
0.569000000000000394,-3.592857758173020777
0.570000000000000395,-3.568705812505112984
0.571000000000000396,-3.544676944447609834
0.572000000000000397,-3.520771445976818459
0.573000000000000398,-3.496989585200070305
0.574000000000000399,-3.473331606817121386
0.575000000000000400,-3.449797732577315479
0.576000000000000401,-3.426388161732515591
0.577000000000000401,-3.403103071485727327
0.578000000000000402,-3.379942617435249819
0.579000000000000403,-3.356906934014380450
0.580000000000000404,-3.333996134926612065
0.581000000000000405,-3.311210313576179232
0.582000000000000406,-3.288549543494012628
0.583000000000000407,-3.266013878758954547
0.584000000000000408,-3.243603354414279494
0.585000000000000409,-3.221317986879435491
0.586000000000000409,-3.199157774356942152
0.587000000000000410,-3.177122697234521009
0.588000000000000411,-3.155212718482292011
0.589000000000000412,-3.133427784045154763
0.590000000000000413,-3.111767823230207508
0.591000000000000414,-3.090232749089276698
0.592000000000000415,-3.068822458796542918
0.593000000000000416,-3.047536834021168595
0.594000000000000417,-3.026375741295010524
0.595000000000000417,-3.005339032375439423
0.596000000000000418,-2.984426544603083542
0.597000000000000419,-2.963638101254782775
0.598000000000000420,-2.942973511891467719
0.599000000000000421,-2.922432572701207487
0.600000000000000422,-2.902015066837267732
0.601000000000000423,-2.881720764751303232
0.602000000000000424,-2.861549424521633078
0.603000000000000425,-2.841500792176653079
0.604000000000000425,-2.821574602013370736
0.605000000000000426,-2.801770576911111199
0.606000000000000427,-2.782088428640439481
0.607000000000000428,-2.762527858167191486
0.608000000000000429,-2.743088555951884722
0.609000000000000430,-2.723770202244230276
0.610000000000000431,-2.704572467373074662
0.611000000000000432,-2.685495012031563267
0.612000000000000433,-2.666537487557683495
