# C-amorph-3_ETA
# h[nm],U(h)[kJ/mol]
0.200000000000000011,53.627625811942891687
0.201000000000000012,51.624668970506697008
0.202000000000000013,50.483182376924915502
0.203000000000000014,49.723571663065655457
0.204000000000000015,49.079492772578305448
0.205000000000000016,48.418511943878343118
0.206000000000000016,47.688472534000617031
0.207000000000000017,46.882089943991552161
0.208000000000000018,46.014296597607902584
0.209000000000000019,45.108358153256368439
0.210000000000000020,44.187899411961119256
0.211000000000000021,43.272805832438599793
0.212000000000000022,42.377574985575719779
0.213000000000000023,41.511135952516923453
0.214000000000000024,40.677475070040301830
0.215000000000000024,39.876635138782951628
0.216000000000000025,39.105816192835263223
0.217000000000000026,38.360417277960017657
0.218000000000000027,37.634933998923571608
0.219000000000000028,36.923676036858346095
0.220000000000000029,36.221299951365189429
0.221000000000000030,35.523170930885257235
0.222000000000000031,34.825576802125212339
0.223000000000000032,34.125821493055880751
0.224000000000000032,33.422225362010046013
0.225000000000000033,32.714057832349887178
0.226000000000000034,32.001424624318993040
0.227000000000000035,31.285128235240591721
0.228000000000000036,30.566516627687793317
0.229000000000000037,29.847331613156519836
0.230000000000000038,29.129565317276991721
0.231000000000000039,28.415330451442741833
0.232000000000000040,27.706747910825992420
0.233000000000000040,27.005853451988695468
0.234000000000000041,26.314523836617713215
0.235000000000000042,25.634421812994400369
0.236000000000000043,24.966958591676089441
0.237000000000000044,24.313272005164755285
0.238000000000000045,23.674218274989051736
0.239000000000000046,23.050375200309051849
0.240000000000000047,22.442054591995635349
0.241000000000000048,21.849321872865360206
0.242000000000000048,21.272020921489488643
0.243000000000000049,20.709802431862279093
0.244000000000000050,20.162154276805775766
0.245000000000000051,19.628432585807292554
0.246000000000000052,19.107892467885200460
0.247000000000000053,18.599717519706768343
0.248000000000000054,18.103047453497644881
0.249000000000000055,17.617003355105008922
0.250000000000000056,17.140710238192902182
0.251000000000000056,16.673316695385992148
0.252000000000000057,16.214011561513807180
0.253000000000000058,15.762037598840928254
0.254000000000000059,15.316702290620137106
0.255000000000000060,14.877385889073570624
0.256000000000000061,14.443546908734720802
0.257000000000000062,14.014725287773696749
0.258000000000000063,13.590543460264891351
0.259000000000000064,13.170705593058974259
0.260000000000000064,12.754995243604561495
0.261000000000000065,12.343271691218131281
0.262000000000000066,11.935465185269979571
0.263000000000000067,11.531571340742116760
0.264000000000000068,11.131644895673868945
0.265000000000000069,10.735793027055388293
0.266000000000000070,10.344168402536025653
0.267000000000000071,9.956962125533303620
0.268000000000000071,9.574396711497808354
0.269000000000000072,9.196719213640141888
0.270000000000000073,8.824194597700097731
0.271000000000000074,8.457099447593879660
0.272000000000000075,8.095716067201298216
0.273000000000000076,7.740327028280505672
0.274000000000000077,7.391210200599545033
0.275000000000000078,7.048634287888210892
0.276000000000000079,6.712854882139860813
0.277000000000000079,6.384111039103350649
0.278000000000000080,6.062622369452372872
0.279000000000000081,5.748586633034436844
0.280000000000000082,5.442177817709476173
0.281000000000000083,5.143544679499647110
0.282000000000000084,4.852809716997605882
0.283000000000000085,4.570068550125946594
0.284000000000000086,4.295389671311255597
0.285000000000000087,4.028814535841286570
0.286000000000000087,3.770357957522368686
0.287000000000000088,3.520008775662041955
0.288000000000000089,3.277730759788224368
0.289000000000000090,3.043463719305757653
0.290000000000000091,2.817124786415225124
0.291000000000000092,2.598609842012590043
0.292000000000000093,2.387795055895540308
0.293000000000000094,2.184538514370161000
0.294000000000000095,1.988681910234523897
0.295000000000000095,1.800052272072276027
0.296000000000000096,1.618463711784944525
0.297000000000000097,1.443719171294409520
0.298000000000000098,1.275612151331605215
0.299000000000000099,1.113928407171092427
0.300000000000000100,0.958447598056099359
0.301000000000000101,0.808944878869318762
0.302000000000000102,0.665192424330385501
0.303000000000000103,0.526960877631224789
0.304000000000000103,0.394020716950663485
0.305000000000000104,0.266143534713509822
0.306000000000000105,0.143103225775879972
0.307000000000000106,0.024677081926222998
0.308000000000000107,-0.089353208808997248
0.309000000000000108,-0.199200658572672162
0.310000000000000109,-0.305072171425775474
0.311000000000000110,-0.407167829275923154
0.312000000000000111,-0.505680270131180221
0.313000000000000111,-0.600794156221800768
0.314000000000000112,-0.692685729016962903
0.315000000000000113,-0.781522447728423941
0.316000000000000114,-0.867462707533739219
0.317000000000000115,-0.950655633462332950
0.318000000000000116,-1.031240945663034925
0.319000000000000117,-1.109348891606118048
0.320000000000000118,-1.185100240661079996
0.321000000000000119,-1.258606336428378381
0.322000000000000119,-1.329969202183791444
0.323000000000000120,-1.399281694813366617
0.324000000000000121,-1.466627702670832978
0.325000000000000122,-1.532082382872914428
0.326000000000000123,-1.595712433657667351
0.327000000000000124,-1.657576397562868564
0.328000000000000125,-1.717724991332142848
0.329000000000000126,-1.776201458622241436
0.330000000000000127,-1.833041941763512428
0.331000000000000127,-1.888275869013536168
0.332000000000000128,-1.941926353939164684
0.333000000000000129,-1.994010603762446765
0.334000000000000130,-2.044540333708821045
0.335000000000000131,-2.093522184600334235
0.336000000000000132,-2.140958141139874371
0.337000000000000133,-2.186845948534317685
0.338000000000000134,-2.231179525302726230
0.339000000000000135,-2.273949370309760631
0.340000000000000135,-2.315142962253537995
0.341000000000000136,-2.354745150019892375
0.342000000000000137,-2.392738532491351044
0.343000000000000138,-2.429103826568188573
0.344000000000000139,-2.463820222320591391
0.345000000000000140,-2.496865724344536464
0.346000000000000141,-2.528217478539672491
0.347000000000000142,-2.557852083664801768
0.348000000000000143,-2.585745887155766809
0.349000000000000143,-2.611875264811200914
0.350000000000000144,-2.636216884064320087
0.351000000000000145,-2.658747950663269410
0.352000000000000146,-2.679446438679093490
0.353000000000000147,-2.698291303849022160
0.354000000000000148,-2.715262680343963009
0.355000000000000149,-2.730342061122781327
0.356000000000000150,-2.743512462102791538
0.357000000000000151,-2.754758570435734022
0.358000000000000151,-2.764066877232087105
0.359000000000000152,-2.771425795123740876
0.360000000000000153,-2.776825761096631595
0.361000000000000154,-2.780259325060667308
0.362000000000000155,-2.781721224655028912
0.363000000000000156,-2.781208446812616586
0.364000000000000157,-2.778720276628453778
0.365000000000000158,-2.774258334093878453
0.366000000000000159,-2.767826599270908794
0.367000000000000159,-2.759431426490473349
0.368000000000000160,-2.749081548163851529
0.369000000000000161,-2.736788068799142604
0.370000000000000162,-2.722564449814348642
0.371000000000000163,-2.706426485735686782
0.372000000000000164,-2.688392272364376723
0.373000000000000165,-2.668482167487765899
0.374000000000000166,-2.646718744701244574
0.375000000000000167,-2.623126740896264408
0.376000000000000167,-2.597732997957304946
0.377000000000000168,-2.570566399196596130
0.378000000000000169,-2.541657801040412057
0.379000000000000170,-2.511039960464779064
0.380000000000000171,-2.478747458661456626
0.381000000000000172,-2.444816621397698064
0.382000000000000173,-2.409285436515057111
0.383000000000000174,-2.372193468994243659
0.384000000000000175,-2.333581773994042763
0.385000000000000175,-2.293492808253488668
0.386000000000000176,-2.251970340227366307
0.387000000000000177,-2.209059359305990178
0.388000000000000178,-2.164805984451346532
0.389000000000000179,-2.119257372562601383
0.390000000000000180,-2.072461626865572448
0.391000000000000181,-2.024467705602138512
0.392000000000000182,-1.975325331277737018
0.393000000000000183,-1.925084900707156876
0.394000000000000183,-1.873797396081736677
0.395000000000000184,-1.821514297264161142
0.396000000000000185,-1.768287495500590056
0.397000000000000186,-1.714169208724154458
0.398000000000000187,-1.659211898608306424
0.399000000000000188,-1.603468189513783226
0.400000000000000189,-1.546990789458699167
0.401000000000000190,-1.489832413227380359
0.402000000000000191,-1.432045707720709826
0.403000000000000191,-1.373683179637801732
0.404000000000000192,-1.314797125567125136
0.405000000000000193,-1.255439564553527676
0.406000000000000194,-1.195662173196841094
0.407000000000000195,-1.135516223327461383
0.408000000000000196,-1.075052522294361879
0.409000000000000197,-1.014321355891963705
0.410000000000000198,-0.953372433943546538
0.411000000000000199,-0.892254838550620932
0.412000000000000199,-0.831016975010167136
0.413000000000000200,-0.769706525394444285
0.414000000000000201,-0.708370404781421770
0.415000000000000202,-0.647054720117604454
0.416000000000000203,-0.585804731689510083
0.417000000000000204,-0.524664817174445908
0.418000000000000205,-0.463678438236681589
0.419000000000000206,-0.402888109630465840
0.420000000000000207,-0.342335370767241021
0.421000000000000207,-0.282060759700977215
0.422000000000000208,-0.222103789481824354
0.423000000000000209,-0.162502926825730171
0.424000000000000210,-0.103295573044688838
0.425000000000000211,-0.044518047180119300
0.426000000000000212,0.013794428720177398
0.427000000000000213,0.071607742242865327
0.428000000000000214,0.128888901230454850
0.429000000000000214,0.185606042447335223
0.430000000000000215,0.241728438355473252
0.431000000000000216,0.297226502065480069
0.432000000000000217,0.352071790529552675
0.433000000000000218,0.406237006042850290
0.434000000000000219,0.459695996120257799
0.435000000000000220,0.512423751815351269
0.436000000000000221,0.564396404548294650
0.437000000000000222,0.615591221509055431
0.438000000000000222,0.665986599701826054
0.439000000000000223,0.715562058696027514
0.440000000000000224,0.764298232148524215
0.441000000000000225,0.812176858160933990
0.442000000000000226,0.859180768534841044
0.443000000000000227,0.905293876986990265
0.444000000000000228,0.950501166385206986
0.445000000000000229,0.994788675064803174
0.446000000000000230,1.038143482283933938
0.447000000000000230,1.080553692875122707
0.448000000000000231,1.122008421148855239
0.449000000000000232,1.162497774103768755
0.450000000000000233,1.202012833996532581
0.451000000000000234,1.240545640323133636
0.452000000000000235,1.278089171261754142
0.453000000000000236,1.314637324626017900
0.454000000000000237,1.350184898375776044
0.455000000000000238,1.384727570731226987
0.456000000000000238,1.418261879934491487
0.457000000000000239,1.450785203701414394
0.458000000000000240,1.482295738404632912
0.459000000000000241,1.512792478027681353
0.460000000000000242,1.542275192928118432
0.461000000000000243,1.570744408446425933
0.462000000000000244,1.598201383395691177
0.463000000000000245,1.624648088465860951
0.464000000000000246,1.650087184574653865
0.465000000000000246,1.674522001195950294
0.466000000000000247,1.697956514695015739
0.467000000000000248,1.720395326698501481
0.468000000000000249,1.741843642525790603
0.469000000000000250,1.762307249706974277
0.470000000000000251,1.781792496611357191
0.471000000000000252,1.800306271209172637
0.472000000000000253,1.817855979987841319
0.473000000000000254,1.834449527042986805
0.474000000000000254,1.850095293363150928
0.475000000000000255,1.864802116325987358
0.476000000000000256,1.878579269422641529
0.477000000000000257,1.891436442225822079
0.478000000000000258,1.903383720616104613
0.479000000000000259,1.914431567279895718
0.480000000000000260,1.924590802491507491
0.481000000000000261,1.933872585190840265
0.482000000000000262,1.942288394367163606
0.483000000000000262,1.949850010758674257
0.484000000000000263,1.956569498876548963
0.485000000000000264,1.962459189361419165
0.486000000000000265,1.967531661679332133
0.487000000000000266,1.971799727163546123
0.488000000000000267,1.975276412407710014
0.489000000000000268,1.977974943015226028
0.490000000000000269,1.979908727709033034
0.491000000000000270,1.981091342805186173
0.492000000000000270,1.981536517053194668
0.493000000000000271,1.981258116845271644
0.494000000000000272,1.980270131796251665
0.495000000000000273,1.978586660695228705
0.496000000000000274,1.976221897829545382
0.497000000000000275,1.973190119681263344
0.498000000000000276,1.969505671995647189
0.499000000000000277,1.965182957220970916
0.500000000000000222,1.960236422318280436
0.501000000000000334,1.954680546939560060
0.502000000000000224,1.948529831972215520
0.503000000000000336,1.941798788447529400
0.504000000000000226,1.934501926810370476
0.505000000000000338,1.926653746547104973
0.506000000000000227,1.918268726168416149
0.507000000000000339,1.909361313543410876
0.508000000000000229,1.899945916581188943
0.509000000000000341,1.890036894255730626
0.510000000000000231,1.879648547969851480
0.511000000000000343,1.868795113253646445
0.512000000000000233,1.857490751792788997
0.513000000000000345,1.845749543781727509
0.514000000000000234,1.833585480596807260
0.515000000000000346,1.821012457784106475
0.516000000000000236,1.808044268356724160
0.517000000000000348,1.794694596396007480
0.518000000000000238,1.780977010951334094
0.519000000000000350,1.766904960232671185
0.520000000000000240,1.752491766090377823
0.521000000000000352,1.737750618776345179
0.522000000000000242,1.722694571980788680
0.523000000000000353,1.707336538138681803
0.524000000000000243,1.691689284000085891
0.525000000000000355,1.675765426458288632
0.526000000000000245,1.659577428629937845
0.527000000000000357,1.643137596181080129
0.528000000000000247,1.626458073893250811
0.529000000000000359,1.609550842463566500
0.530000000000000249,1.592427715532922949
0.531000000000000361,1.575100336936317902
0.532000000000000250,1.557580178169452267
0.533000000000000362,1.539878536065626857
0.534000000000000252,1.522006530677245451
0.535000000000000364,1.503975103355905674
0.536000000000000254,1.485795015025558996
0.537000000000000366,1.467476844642804590
0.538000000000000256,1.449030987838851203
0.539000000000000368,1.430467655737387878
0.540000000000000258,1.411796873942982478
0.541000000000000369,1.393028481694368326
0.542000000000000259,1.374172131177408440
0.543000000000000371,1.355237286992219792
0.544000000000000261,1.336233225769343891
0.545000000000000373,1.317169035929686816
0.546000000000000263,1.298053617583221797
0.547000000000000375,1.278895682561291380
0.548000000000000265,1.259703754577762069
0.549000000000000377,1.240486169513960624
0.550000000000000266,1.221251075822836096
0.551000000000000378,1.202006435047462629
0.552000000000000268,1.182760022449462989
0.553000000000000380,1.163519427742698564
0.554000000000000270,1.144292055927928375
0.555000000000000382,1.125085128224000197
0.556000000000000272,1.105905683091428893
0.557000000000000384,1.086760577344140444
0.558000000000000274,1.067656487345367999
0.559000000000000385,1.048599910283702696
0.560000000000000275,1.029597165525458768
0.561000000000000387,1.010654396039502023
0.562000000000000277,0.991777569890949673
0.563000000000000389,0.972972481799994959
0.564000000000000279,0.954244754762489378
0.565000000000000391,0.935599841728714132
0.566000000000000281,0.917043027337132388
0.567000000000000393,0.898579429699741139
0.568000000000000282,0.880214002235984894
0.569000000000000394,0.861951535552012649
0.570000000000000284,0.843796659362463175
0.571000000000000396,0.825753844451651231
0.572000000000000286,0.807827404671540128
0.573000000000000398,0.790021498973597636
0.574000000000000288,0.772340133471992152
0.575000000000000400,0.754787163535421857
0.576000000000000290,0.737366295905240166
0.577000000000000401,0.720081090837261795
0.578000000000000291,0.702934964265075068
0.579000000000000403,0.685931189982468270
0.580000000000000293,0.669072901842862389
0.581000000000000405,0.652363095973517271
0.582000000000000295,0.635804633002618802
0.583000000000000407,0.619400240297073079
0.584000000000000297,0.603152514209298052
0.585000000000000409,0.587063922330970267
0.586000000000000298,0.571136805752154086
0.587000000000000410,0.555373381323891468
0.588000000000000300,0.539775743922816686
0.589000000000000412,0.524345868716020069
0.590000000000000302,0.509085613424810512
0.591000000000000414,0.493996720585751781
0.592000000000000304,0.479080819807731373
0.593000000000000416,0.464339430023578525
0.594000000000000306,0.449773961735043581
0.595000000000000417,0.435385719249823555
0.596000000000000307,0.421175902909553312
0.597000000000000419,0.407145611307520749
0.598000000000000309,0.393295843495112041
0.599000000000000421,0.379627501175948345
0.600000000000000311,0.366141390886706053
0.601000000000000423,0.352838226163697755
0.602000000000000313,0.339718629694389984
0.603000000000000425,0.326783135452902440
0.604000000000000314,0.314032190818828549
0.605000000000000426,0.301466158678496243
0.606000000000000316,0.289085319508073813
0.607000000000000428,0.276889873437753953
0.608000000000000318,0.264879942296451676
0.609000000000000430,0.253055571636368493
0.610000000000000320,0.241416732736934397
0.611000000000000432,0.229963324587507401
0.612000000000000322,0.218695175848463041
0.613000000000000433,0.207612046790108279
0.614000000000000323,0.196713631209078088
0.615000000000000435,0.185999558321770342
0.616000000000000325,0.175469394634529346
0.617000000000000437,0.165122645790151207
0.618000000000000327,0.154958758390510154
0.619000000000000439,0.144977121794960861
0.620000000000000329,0.135177069894310581
0.621000000000000441,0.125557882860115821
0.622000000000000330,0.116118788869135292
0.623000000000000442,0.106858965802717185
0.624000000000000332,0.097777542921061208
0.625000000000000444,0.088873602512106437
0.626000000000000334,0.080146181515066833
0.627000000000000446,0.071594273118427379
0.628000000000000336,0.063216828332407188
0.629000000000000448,0.055012757535790033
0.630000000000000338,0.046980931997163376
0.631000000000000449,0.039120185370455994
0.632000000000000339,0.031429315164899628
0.633000000000000451,0.023907084189337569
0.634000000000000341,0.016552221970997670
0.635000000000000453,0.009363426148698983
0.636000000000000343,0.002339363840676534
0.637000000000000455,-0.004521327013031573
0.638000000000000345,-0.011220036333402184
0.639000000000000457,-0.017758180610460972
0.640000000000000346,-0.024137201636319033
0.641000000000000458,-0.030358565263156844
0.642000000000000348,-0.036423760185946313
0.643000000000000460,-0.042334296749826181
0.644000000000000350,-0.048091705781899349
0.645000000000000462,-0.053697537447353873
0.646000000000000352,-0.059153360129653929
0.647000000000000464,-0.064460759334691836
0.648000000000000353,-0.069621336618623908
0.649000000000000465,-0.074636708539266447
0.650000000000000355,-0.079508505630772580
0.651000000000000467,-0.084238371401424608
0.652000000000000357,-0.088827961354299198
0.653000000000000469,-0.093278942030569426
0.654000000000000359,-0.097592990075229508
0.655000000000000471,-0.101771791324994670
0.656000000000000361,-0.105817039918123787
0.657000000000000473,-0.109730437425943281
0.658000000000000362,-0.113513692005792463
0.659000000000000474,-0.117168517575158823
0.660000000000000364,-0.120696633006725798
0.661000000000000476,-0.124099761344102250
0.662000000000000366,-0.127379629037927211
0.663000000000000478,-0.130537965202127321
0.664000000000000368,-0.133576500890023042
0.665000000000000480,-0.136496968390052598
0.666000000000000369,-0.139301100540795753
0.667000000000000481,-0.141990630065070012
0.668000000000000371,-0.144567288922786530
0.669000000000000483,-0.147032807682324546
