# LithiumCobaltOxide-001_ALASCA-AC
# h[nm],U(h)[kJ/mol]
0.149999999999999994,93.303107558555723244
0.150999999999999995,92.872590085690930550
0.151999999999999996,91.250071046235348149
0.152999999999999997,89.346178562069354712
0.153999999999999998,87.525587336694840701
0.154999999999999999,85.880837055735199215
0.156000000000000000,84.386991074311325178
0.157000000000000001,82.983474650693381136
0.158000000000000002,81.612942670424644120
0.159000000000000002,80.236008959143049424
0.160000000000000003,78.833404168475681217
0.161000000000000004,77.402415422548770607
0.162000000000000005,75.951463692436433917
0.163000000000000006,74.494818284481794990
0.164000000000000007,73.048337736367869866
0.165000000000000008,71.626495651319714852
0.166000000000000009,70.240619549702643098
0.167000000000000010,68.898122392182102658
0.168000000000000010,67.602463220908390440
0.169000000000000011,66.353586601719342752
0.170000000000000012,65.148630170118963179
0.171000000000000013,63.982737821982460957
0.172000000000000014,62.849863103503125217
0.173000000000000015,61.743488273149601753
0.174000000000000016,60.657217471572849377
0.175000000000000017,59.585227312377398334
0.176000000000000018,58.522575775207215543
0.177000000000000018,57.465381720690380973
0.178000000000000019,56.410893930310955113
0.179000000000000020,55.357471508847631014
0.180000000000000021,54.304497825086322393
0.181000000000000022,53.252248776695566335
0.182000000000000023,52.201733732136389676
0.183000000000000024,51.154524543263782732
0.184000000000000025,50.112584909964787983
0.185000000000000026,49.078109367814775510
0.186000000000000026,48.053378423151002607
0.187000000000000027,47.040633968003405130
0.188000000000000028,46.041977108747545344
0.189000000000000029,45.059288939345663039
0.190000000000000030,44.094173560544348334
0.191000000000000031,43.147921753523753807
0.192000000000000032,42.221493115627723114
0.193000000000000033,41.315514109663638465
0.194000000000000034,40.430289320410814469
0.195000000000000034,39.565823209084065581
0.196000000000000035,38.721849769698565069
0.197000000000000036,37.897867686815942534
0.198000000000000037,37.093178843553410218
0.199000000000000038,36.306928308672794969
0.200000000000000039,35.538144223464918525
0.201000000000000040,34.785776298700604059
0.202000000000000041,34.048731908559624060
0.203000000000000042,33.325909024754231780
0.204000000000000042,32.616225465241285519
0.205000000000000043,31.918644135298809061
0.206000000000000044,31.232194113326386287
0.207000000000000045,30.555987579799015919
0.208000000000000046,29.889232706577367082
0.209000000000000047,29.231242717139100051
0.210000000000000048,28.581441398545841537
0.211000000000000049,27.939365395650202828
0.212000000000000050,27.304663649810656523
0.213000000000000050,26.677094360845721610
0.214000000000000051,26.056519854637979705
0.215000000000000052,25.442899732060702434
0.216000000000000053,24.836282659909180381
0.217000000000000054,24.236797143224585227
0.218000000000000055,23.644641592524067164
0.219000000000000056,23.060073970489160189
0.220000000000000057,22.483401271890809170
0.221000000000000058,21.914969059013028385
0.222000000000000058,21.355151243448293741
0.223000000000000059,20.804340274582393988
0.224000000000000060,20.262937865904529389
0.225000000000000061,19.731346362879321532
0.226000000000000062,19.209960830788180175
0.227000000000000063,18.699161917874281613
0.228000000000000064,18.199309528409990833
0.229000000000000065,17.710737321975706493
0.230000000000000066,17.233748039270885499
0.231000000000000066,16.768609641095988394
0.232000000000000067,16.315552235644283030
0.233000000000000068,15.874765759789534414
0.234000000000000069,15.446398372502283536
0.235000000000000070,15.030555512709785404
0.236000000000000071,14.627299569668366530
0.237000000000000072,14.236650111071359248
0.238000000000000073,13.858584612507607758
0.239000000000000073,13.493039631354061925
0.240000000000000074,13.139912368576549540
0.241000000000000075,12.799062563085369604
0.242000000000000076,12.470314665109958341
0.243000000000000077,12.153460237398652666
0.244000000000000078,11.848260535803236237
0.245000000000000079,11.554449223873190178
0.246000000000000080,11.271735179371814795
0.247000000000000081,10.999805354056134021
0.248000000000000081,10.738327651567127319
0.249000000000000082,10.486953791795940560
0.250000000000000111,10.245322133575653467
0.251000000000000112,10.013060430954457303
0.252000000000000113,9.789788501600245496
0.253000000000000114,9.575120789041445590
0.254000000000000115,9.368668803441323689
0.255000000000000115,9.170043428418590992
0.256000000000000116,8.978857084053210258
0.257000000000000117,8.794725738646134161
0.258000000000000118,8.617270764032141983
0.259000000000000119,8.446120631274890656
0.260000000000000120,8.280912445405137490
0.261000000000000121,8.121293319501898367
0.262000000000000122,7.966921589866939435
0.263000000000000123,7.817467875314539683
0.264000000000000123,7.672615984698154534
0.265000000000000124,7.532063677734261553
0.266000000000000125,7.395523284970401789
0.267000000000000126,7.262722193390345637
0.268000000000000127,7.133403204664501729
0.269000000000000128,7.007324773449560951
0.270000000000000129,6.884261133427425072
0.271000000000000130,6.764002318961123805
0.272000000000000131,6.646354090343787213
0.273000000000000131,6.531137770636152418
0.274000000000000132,6.418190002037055919
0.275000000000000133,6.307362429619280952
0.276000000000000134,6.198521320097515996
0.277000000000000135,6.091547123084531279
0.278000000000000136,5.986333982042021162
0.279000000000000137,5.882789201851752026
0.280000000000000138,5.780832679625764747
0.281000000000000139,5.680396305047373140
0.282000000000000139,5.581423336192790075
0.283000000000000140,5.483867756430456986
0.284000000000000141,5.387693617636068133
0.285000000000000142,5.292874374599398024
0.286000000000000143,5.199392215137272899
0.287000000000000144,5.107237390068890548
0.288000000000000145,5.016407546856522792
0.289000000000000146,4.926907070370127428
0.290000000000000147,4.838746433898341692
0.291000000000000147,4.751941563204339580
0.292000000000000148,4.666513216112460505
0.293000000000000149,4.582486379812732658
0.294000000000000150,4.499889687785389114
0.295000000000000151,4.418754857976920469
0.296000000000000152,4.339116153603868042
0.297000000000000153,4.261009867720066069
0.298000000000000154,4.184473832458030174
0.299000000000000155,4.109546953645203615
0.300000000000000155,4.036268771300866476
0.301000000000000156,3.964679046339544932
0.302000000000000157,3.894817373640928171
0.303000000000000158,3.826722821494940696
0.304000000000000159,3.760433597292492713
0.305000000000000160,3.695986739207822502
0.306000000000000161,3.633417833505934169
0.307000000000000162,3.572760757008532018
0.308000000000000163,3.514047444163169054
0.309000000000000163,3.457307678082345515
0.310000000000000164,3.402568904851728693
0.311000000000000165,3.349856070348749881
0.312000000000000166,3.299191478763768171
0.313000000000000167,3.250594671975715499
0.314000000000000168,3.204082328901411536
0.315000000000000169,3.159668183912526018
0.316000000000000170,3.117362963395539310
0.317000000000000171,3.077174339517781299
0.318000000000000171,3.039106900255934995
0.319000000000000172,3.003162134741846678
0.320000000000000173,2.969338432983712028
0.321000000000000174,2.937631099028259918
0.322000000000000175,2.908032376640609318
0.323000000000000176,2.880531486593254975
0.324000000000000177,2.855114674673266073
0.325000000000000178,2.831765269537064089
0.326000000000000179,2.810463749564595215
0.327000000000000179,2.791187817889478673
0.328000000000000180,2.773912484807782963
0.329000000000000181,2.758610156795565871
0.330000000000000182,2.745250731394387245
0.331000000000000183,2.733801697253200214
0.332000000000000184,2.724228238645653111
0.333000000000000185,2.716493343812378836
0.334000000000000186,2.710557916508967935
0.335000000000000187,2.706380890171471876
0.336000000000000187,2.703919344142318604
0.337000000000000188,2.703128621430596734
0.338000000000000189,2.703962447511119915
0.339000000000000190,2.706373049697034183
0.340000000000000191,2.710311276650467782
0.341000000000000192,2.715726717624693087
0.342000000000000193,2.722567821059940663
0.343000000000000194,2.730782012182522145
0.344000000000000195,2.740315809284098680
0.345000000000000195,2.751114938383778075
0.346000000000000196,2.763124446001201218
0.347000000000000197,2.776288809793002077
0.348000000000000198,2.790552046828414401
0.349000000000000199,2.805857819302437495
0.350000000000000200,2.822149537506249750
0.351000000000000201,2.839370459895422805
0.352000000000000202,2.857463790115831959
0.353000000000000203,2.876372770865984307
0.354000000000000203,2.896040774492116832
0.355000000000000204,2.916411390229227241
0.356000000000000205,2.937428508016970863
0.357000000000000206,2.959036398834328008
0.358000000000000207,2.981179791511035404
0.359000000000000208,3.003803945986819546
0.360000000000000209,3.026854723001867420
0.361000000000000210,3.050278650213471110
0.362000000000000210,3.074022984744389841
0.363000000000000211,3.098035772178496572
0.364000000000000212,3.122265902028296569
0.365000000000000213,3.146663159707508761
0.366000000000000214,3.171178275049499895
0.367000000000000215,3.195762967419555345
0.368000000000000216,3.220369987475305784
0.369000000000000217,3.244953155635569519
0.370000000000000218,3.269467397323006175
0.371000000000000218,3.293868775050802444
0.372000000000000219,3.318114517427598109
0.373000000000000220,3.342163045158720536
0.374000000000000221,3.365973994124797919
0.375000000000000222,3.389508235621752963
0.376000000000000223,3.412727893848290783
0.377000000000000224,3.435596360729092247
0.378000000000000225,3.458078308163358372
0.379000000000000226,3.480139697789595310
0.380000000000000226,3.501747788358360758
0.381000000000000227,3.522871140805276635
0.382000000000000228,3.543479621116903733
0.383000000000000229,3.563544401081968349
0.384000000000000230,3.583037957020418052
0.385000000000000231,3.601934066582020311
0.386000000000000232,3.620207803705818517
0.387000000000000233,3.637835531830713620
0.388000000000000234,3.654794895446504377
0.389000000000000234,3.671064810073423335
0.390000000000000235,3.686625450756972011
0.391000000000000236,3.701458239163252895
0.392000000000000237,3.715545829358551710
0.393000000000000238,3.728872092355076440
0.394000000000000239,3.741422099503085796
0.395000000000000240,3.753182104807714747
0.396000000000000241,3.764139526246869316
0.397000000000000242,3.774282926164578722
0.398000000000000242,3.783601990812126559
0.399000000000000243,3.792087509107197718
0.400000000000000244,3.799731350679214525
0.401000000000000245,3.806526443266684989
0.402000000000000246,3.812466749530537324
0.403000000000000247,3.817547243344938668
0.404000000000000248,3.821763885625061530
0.405000000000000249,3.825113599749092153
0.406000000000000250,3.827594246629507868
0.407000000000000250,3.829204599486559779
0.408000000000000251,3.829944318374734369
0.409000000000000252,3.829813924510804490
0.410000000000000253,3.828814774450024938
0.411000000000000254,3.826949034154894402
0.412000000000000255,3.824219652998947616
0.413000000000000256,3.820630337745856586
0.414000000000000257,3.816185526542405171
0.415000000000000258,3.810890362961639966
0.416000000000000258,3.804750670130920831
0.417000000000000259,3.797772924977438347
0.418000000000000260,3.789964232622212936
0.419000000000000261,3.781332300951600445
0.420000000000000262,3.771885415393758656
0.421000000000000263,3.761632413925732443
0.422000000000000264,3.750582662335286699
0.423000000000000265,3.738746029759951739
0.424000000000000266,3.726132864524198673
0.425000000000000266,3.712753970294284667
0.426000000000000267,3.698620582568710180
0.427000000000000268,3.683744345520943764
0.428000000000000269,3.668137289209700835
0.429000000000000270,3.651811807170735502
0.430000000000000271,3.634780634402876132
0.431000000000000272,3.617056825759830563
0.432000000000000273,3.598653734758133105
0.433000000000000274,3.579584992810474375
0.434000000000000274,3.559864488892588774
0.435000000000000275,3.539506349650900940
0.436000000000000276,3.518524919957081831
0.437000000000000277,3.496934743914773769
0.438000000000000278,3.474750546322849409
0.439000000000000279,3.451987214598710274
0.440000000000000280,3.428659781164287601
0.441000000000000281,3.404783406296745252
0.442000000000000282,3.380373361444945601
0.443000000000000282,3.355445013012335664
0.444000000000000283,3.330013806605917726
0.445000000000000284,3.304095251750637452
0.446000000000000285,3.277704907067777729
0.447000000000000286,3.250858365915371362
0.448000000000000287,3.223571242488258548
0.449000000000000288,3.195859158374781739
0.450000000000000289,3.167737729566710847
0.451000000000000290,3.139222553918604497
0.452000000000000290,3.110329199052294324
0.453000000000000291,3.081073190701940412
0.454000000000000292,3.051470001494635209
0.455000000000000293,3.021535040161292596
0.456000000000000294,2.991283641172237218
0.457000000000000295,2.960731054791608585
0.458000000000000296,2.929892437544478145
0.459000000000000297,2.898782843090339956
0.460000000000000298,2.867417213496383788
0.461000000000000298,2.835810370903872890
0.462000000000000299,2.803977009580632007
0.463000000000000300,2.771931688352646805
0.464000000000000301,2.739688823407540941
0.465000000000000302,2.707262681462634379
0.466000000000000303,2.674667373290144479
0.467000000000000304,2.641916847592056694
0.468000000000000305,2.609024885217069656
0.469000000000000306,2.576005093711993599
0.470000000000000306,2.542870902199946492
0.471000000000000307,2.509635556577602955
0.472000000000000308,2.476312115023816762
0.473000000000000309,2.442913443811849383
0.474000000000000310,2.409452213417513811
0.475000000000000311,2.375940894915436807
0.476000000000000312,2.342391756655882507
0.477000000000000313,2.308816861214290306
0.478000000000000314,2.275228062606070800
0.479000000000000314,2.241637003758953917
0.480000000000000315,2.208055114235436101
0.481000000000000316,2.174493608197812566
0.482000000000000317,2.140963482608429391
0.483000000000000318,2.107475515657800891
0.484000000000000319,2.074040265413357620
0.485000000000000320,2.040668068681652514
0.486000000000000321,2.007369040076945055
0.487000000000000322,1.974153071289180161
0.488000000000000322,1.941029830544465984
0.489000000000000323,1.908008762251271140
0.490000000000000324,1.875099086825632311
0.491000000000000325,1.842309800688811450
0.492000000000000326,1.809649676430906240
0.493000000000000327,1.777127263134081092
0.494000000000000328,1.744750886849124383
0.495000000000000329,1.712528651219237918
0.496000000000000330,1.680468438245019014
0.497000000000000330,1.648577909184714585
0.498000000000000331,1.616864505583998746
0.499000000000000332,1.585335450429605997
0.500000000000000333,1.553997749421221375
0.501000000000000334,1.522858192356278950
0.502000000000000335,1.491923354622300968
0.503000000000000336,1.461199598791661280
0.504000000000000337,1.430693076313625189
0.505000000000000338,1.400409729298817796
0.506000000000000338,1.370355292391230995
0.507000000000000339,1.340535294723097737
0.508000000000000340,1.310955061948055889
0.509000000000000341,1.281619718348129044
0.510000000000000342,1.252534189010190646
0.511000000000000343,1.223703202067664364
0.512000000000000344,1.195131291003373564
0.513000000000000345,1.166822797009544388
0.514000000000000346,1.138781871401036039
0.515000000000000346,1.111012478078096333
0.516000000000000347,1.083518396034935494
0.517000000000000348,1.056303221910580570
0.518000000000000349,1.029370372578569892
0.519000000000000350,1.002723087772174004
0.520000000000000351,0.976364432741876120
0.521000000000000352,0.950297300942017253
0.522000000000000353,0.924524416743589761
0.523000000000000353,0.899048338170210015
0.524000000000000354,0.873871459654520066
0.525000000000000355,0.848996014812210098
0.526000000000000356,0.824424079231113938
0.527000000000000357,0.800157573272775702
0.528000000000000358,0.776198264884055189
0.529000000000000359,0.752547772416457428
0.530000000000000360,0.729207567450869787
0.531000000000000361,0.706178977625549043
0.532000000000000361,0.683463189465251308
0.533000000000000362,0.661061251209509315
0.534000000000000363,0.638974075638111039
0.535000000000000364,0.617202442891914060
0.536000000000000365,0.595747003287255494
0.537000000000000366,0.574608280122215320
0.538000000000000367,0.553786672473149499
0.539000000000000368,0.533282457979888491
0.540000000000000369,0.513095795618162653
0.541000000000000369,0.493226728457805574
0.542000000000000370,0.473675186405417503
0.543000000000000371,0.454440988930164991
0.544000000000000372,0.435523847771530359
0.545000000000000373,0.416923369627838436
0.546000000000000374,0.398639058824448111
0.547000000000000375,0.380670319960597636
0.548000000000000376,0.363016460533885088
0.549000000000000377,0.345676693541488333
0.550000000000000377,0.328650140057204221
0.551000000000000378,0.311935831783541229
0.552000000000000379,0.295532713578033568
0.553000000000000380,0.279439645953090676
0.554000000000000381,0.263655407548694432
0.555000000000000382,0.248178697577291191
0.556000000000000383,0.233008138240334617
0.557000000000000384,0.218142277115886435
0.558000000000000385,0.203579589516815901
0.559000000000000385,0.189318480819097884
0.560000000000000386,0.175357288759816543
0.561000000000000387,0.161694285704466367
0.562000000000000388,0.148327680883227508
0.563000000000000389,0.135255622595852248
0.564000000000000390,0.122476200384954020
0.565000000000000391,0.109987447177377212
0.566000000000000392,0.097787341393488506
0.567000000000000393,0.085873809024161724
0.568000000000000393,0.074244725675338949
0.569000000000000394,0.062897918579998074
0.570000000000000395,0.051831168577453832
0.571000000000000396,0.041042212059920827
0.572000000000000397,0.030528742886244752
0.573000000000000398,0.020288414262833766
0.574000000000000399,0.010318840591740064
0.575000000000000400,0.000617599285932907
0.576000000000000401,-0.008817767448193967
0.577000000000000401,-0.017989750861059535
0.578000000000000402,-0.026900873942740145
0.579000000000000403,-0.035553689738365167
0.580000000000000404,-0.043950779695951861
0.581000000000000405,-0.052094752046508527
0.582000000000000406,-0.059988240216313729
0.583000000000000407,-0.067633901271151001
0.584000000000000408,-0.075034414392379734
0.585000000000000409,-0.082192479384595368
0.586000000000000409,-0.089110815214715075
0.587000000000000410,-0.095792158582270151
0.588000000000000411,-0.102239262520632423
0.589000000000000412,-0.108454895029012954
0.590000000000000413,-0.114441837734899493
0.591000000000000414,-0.120202884586734046
0.592000000000000415,-0.125740840576542945
0.593000000000000416,-0.131058520492223662
0.594000000000000417,-0.136158747699229227
0.595000000000000417,-0.141044352951351787
0.596000000000000418,-0.145718173230277692
0.597000000000000419,-0.150183050613657054
0.598000000000000420,-0.154441831171319682
0.599000000000000421,-0.158497363889361420
0.600000000000000422,-0.162352499621757240
0.601000000000000423,-0.166010090069161453
0.602000000000000424,-0.169472986784589719
0.603000000000000425,-0.172744040205637772
0.604000000000000425,-0.175826098712859730
0.605000000000000426,-0.178722007714014863
0.606000000000000427,-0.181434608753817728
0.607000000000000428,-0.183966738648794009
0.608000000000000429,-0.186321228647002152
0.609000000000000430,-0.188500903612116577
0.610000000000000431,-0.190508581231670915
0.611000000000000432,-0.192347071248981816
0.612000000000000433,-0.194019174718465082
0.613000000000000433,-0.195527683283975018
0.614000000000000434,-0.196875378479786617
0.615000000000000435,-0.198065031053872770
0.616000000000000436,-0.199099400313130254
0.617000000000000437,-0.199981233490191534
0.618000000000000438,-0.200713265131442803
0.619000000000000439,-0.201298216505910565
0.620000000000000440,-0.201738795034666796
