# LithiumCobaltOxide-001_BGLC-JS
# h[nm],U(h)[kJ/mol]
0.149999999999999994,184.203635088114339169
0.150999999999999995,181.563104847324694902
0.151999999999999996,178.147172580962092070
0.152999999999999997,174.565610179783448075
0.153999999999999998,171.066870250000278020
0.154999999999999999,167.717289884033164071
0.156000000000000000,164.503134477684454851
0.157000000000000001,161.385182558474383541
0.158000000000000002,158.325087522333859624
0.159000000000000002,155.295726378987239968
0.160000000000000003,152.283088956877435294
0.161000000000000004,149.284222420099979445
0.162000000000000005,146.303801329590584146
0.163000000000000006,143.350679650736481108
0.164000000000000007,140.435048360405858148
0.165000000000000008,137.566400540125329144
0.166000000000000009,134.752280467079287973
0.167000000000000010,131.997688061507972179
0.168000000000000010,129.304975322102421842
0.169000000000000011,126.674075206888545608
0.170000000000000012,124.102925956323204559
0.171000000000000013,121.587983229189788403
0.172000000000000014,119.124741920751787916
0.173000000000000015,116.708215722477959275
0.174000000000000016,114.333343937626494835
0.175000000000000017,111.995311534440318724
0.176000000000000018,109.689780280642892762
0.177000000000000018,107.413036737915675189
0.178000000000000019,105.162067674197288625
0.179000000000000020,102.934575822434766224
0.180000000000000021,100.728949540947084529
0.181000000000000022,98.544199368824621388
0.182000000000000023,96.379873163909422829
0.183000000000000024,94.235959800826051946
0.184000000000000025,92.112789541419488160
0.185000000000000026,90.010937343526421728
0.186000000000000026,87.931133659653184509
0.187000000000000027,85.874185761783024873
0.188000000000000028,83.840911344507688341
0.189000000000000029,81.832085113631890749
0.190000000000000030,79.848398252225734950
0.191000000000000031,77.890430051128660693
0.192000000000000032,75.958630570553424377
0.193000000000000033,74.053312935603088363
0.194000000000000034,72.174653732985788679
0.195000000000000034,70.322699942237946402
0.196000000000000035,68.497380878045731833
0.197000000000000036,66.698523719448417069
0.198000000000000037,64.925871338643474928
0.199000000000000038,63.179101301744765351
0.200000000000000039,61.457845084079750109
0.201000000000000040,59.761706714021592290
0.202000000000000041,58.090280224870753045
0.203000000000000042,56.443165448879369706
0.204000000000000042,54.819981827783180961
0.205000000000000043,53.220380038193603411
0.206000000000000044,51.644051337009408087
0.207000000000000045,50.090734621602287291
0.208000000000000046,48.560221272497017253
0.209000000000000047,47.052357903650374737
0.210000000000000048,45.567047188570725780
0.211000000000000049,44.104246960934347044
0.212000000000000050,42.663967807637725116
0.213000000000000050,41.246269381991361058
0.214000000000000051,39.851255666558564883
0.215000000000000052,38.479069410447586108
0.216000000000000053,37.129885956027642635
0.217000000000000054,35.803906656281718313
0.218000000000000055,34.501352067417130343
0.219000000000000056,33.222455082869728926
0.220000000000000057,31.967454155264430682
0.221000000000000058,30.736586732915817777
0.222000000000000058,29.530083017609541685
0.223000000000000059,28.348160131157762009
0.224000000000000060,27.191016759899952149
0.225000000000000061,26.058828329191065620
0.226000000000000062,24.951742744157265008
0.227000000000000063,23.869876718722654374
0.228000000000000064,22.813312702180816416
0.229000000000000065,21.782096401412449183
0.230000000000000066,20.776234887220446979
0.231000000000000066,19.795695265108740557
0.232000000000000067,18.840403884103345433
0.233000000000000068,17.910246051809842527
0.234000000000000069,17.005066219723428134
0.235000000000000070,16.124668599744875763
0.236000000000000071,15.268818170800477318
0.237000000000000072,14.437242033299749977
0.238000000000000073,13.629631068786082437
0.239000000000000073,12.845641862435048353
0.240000000000000074,12.084898846927254468
0.241000000000000075,11.346996627580384853
0.242000000000000076,10.631502450373357505
0.243000000000000077,9.937958776555955609
0.244000000000000078,9.265885929837365254
0.245000000000000079,8.614784784618777280
0.246000000000000080,7.984139466322051071
0.247000000000000081,7.373420037514198278
0.248000000000000081,6.782085146194719805
0.249000000000000082,6.209584615259075235
0.250000000000000111,5.655361954744440034
0.251000000000000112,5.118856780979005094
0.252000000000000113,4.599507129167039743
0.253000000000000114,4.096751648238727839
0.254000000000000115,3.610031668954415185
0.255000000000000115,3.138793138276420258
0.256000000000000116,2.682488414895443096
0.257000000000000117,2.240577922522659637
0.258000000000000118,1.812531659131711992
0.259000000000000119,1.397830561755877055
0.260000000000000120,0.995967727719282658
0.261000000000000121,0.606449494311825155
0.262000000000000122,0.228796379907933195
0.263000000000000123,-0.137456109610481103
0.264000000000000123,-0.492756804533594717
0.265000000000000124,-0.837538319895558048
0.266000000000000125,-1.172216623223417908
0.267000000000000126,-1.497190715343420075
0.268000000000000127,-1.812842417816181051
0.269000000000000128,-2.119536260348247936
0.270000000000000129,-2.417619461382705115
0.271000000000000130,-2.707421994997219805
0.272000000000000131,-2.989256737226373417
0.273000000000000131,-3.263419684970206625
0.274000000000000132,-3.530190240744938812
0.275000000000000133,-3.789831556669280843
0.276000000000000134,-4.042590931253815079
0.277000000000000135,-4.288700252766062704
0.278000000000000136,-4.528376483176063338
0.279000000000000137,-4.761822176939839224
0.280000000000000138,-4.989226029147902253
0.281000000000000139,-5.210763447849021013
0.282000000000000139,-5.426597145650975840
0.283000000000000140,-5.636877745998325473
0.284000000000000141,-5.841744399827592638
0.285000000000000142,-6.041325408601932345
0.286000000000000143,-6.235738850026317337
0.287000000000000144,-6.425093203039418555
0.288000000000000145,-6.609487968968610794
0.289000000000000146,-6.789014286015745192
0.290000000000000147,-6.963755534516392842
0.291000000000000147,-7.133787930678444411
0.292000000000000148,-7.299181106760961768
0.293000000000000149,-7.459998675896011733
0.294000000000000150,-7.616298779988187384
0.295000000000000151,-7.768134619345647529
0.296000000000000152,-7.915554962903446956
0.297000000000000153,-8.058604638095129502
0.298000000000000154,-8.197324999610767549
0.299000000000000155,-8.331754376450108523
0.300000000000000155,-8.461928496837680669
0.301000000000000156,-8.587880890712757065
0.302000000000000157,-8.709643269642272756
0.303000000000000158,-8.827245884127831843
0.304000000000000159,-8.940717858390788919
0.305000000000000160,-9.050087502821307694
0.306000000000000161,-9.155382604369389554
0.307000000000000162,-9.256630695238410311
0.308000000000000163,-9.353859300314590897
0.309000000000000163,-9.447096163830767779
0.310000000000000164,-9.536369455819063035
0.311000000000000165,-9.621707958955465045
0.312000000000000166,-9.703141236441183537
0.313000000000000167,-9.780699781599732745
0.314000000000000168,-9.854415149897238990
0.315000000000000169,-9.924320074115730250
0.316000000000000170,-9.990448563426344464
0.317000000000000171,-10.052835987120918304
0.318000000000000171,-10.111519143768088469
0.319000000000000172,-10.166536316563115960
0.320000000000000173,-10.217927315639798280
0.321000000000000174,-10.265733508108759509
0.322000000000000175,-10.309997836579110952
0.323000000000000176,-10.350764826910410221
0.324000000000000177,-10.388080585929193589
0.325000000000000178,-10.421992789829506165
0.326000000000000179,-10.452550663960460398
0.327000000000000179,-10.479804954685061347
0.328000000000000180,-10.503807893974942189
0.329000000000000181,-10.524613157384816731
0.330000000000000182,-10.542275816027864010
0.331000000000000183,-10.556852283151286542
0.332000000000000184,-10.568400255886935213
0.333000000000000185,-10.576978652728664443
0.334000000000000186,-10.582647547263492882
0.335000000000000187,-10.585468098659251979
0.336000000000000187,-10.585502479387230323
0.337000000000000188,-10.582813800633244838
0.338000000000000189,-10.577466035827177038
0.339000000000000190,-10.569523942696298136
0.340000000000000191,-10.559052984224198468
0.341000000000000192,-10.546119248874214591
0.342000000000000193,-10.530789370412733774
0.343000000000000194,-10.513130447646341636
0.344000000000000195,-10.493209964363900966
0.345000000000000195,-10.471095709754845160
0.346000000000000196,-10.446855699553262653
0.347000000000000197,-10.420558098138309688
0.348000000000000198,-10.392271141802037704
0.349000000000000199,-10.362063063377274119
0.350000000000000200,-10.330002018400696429
0.351000000000000201,-10.296156012969028382
0.352000000000000202,-10.260592833430070669
0.353000000000000203,-10.223379978035016080
0.354000000000000203,-10.184584590663387615
0.355000000000000204,-10.144273396717938596
0.356000000000000205,-10.102512641273809990
0.357000000000000206,-10.059368029553306556
0.358000000000000207,-10.014904669785666513
0.359000000000000208,-9.969187018500289099
0.360000000000000209,-9.922278828291075214
0.361000000000000210,-9.874243098079526604
0.362000000000000210,-9.825142025895191367
0.363000000000000211,-9.775036964183154709
0.364000000000000212,-9.723988377640385039
0.365000000000000213,-9.672055803575016597
0.366000000000000214,-9.619297814775917388
0.367000000000000215,-9.565771984873279621
0.368000000000000216,-9.511534856165345886
0.369000000000000217,-9.456641909880614705
0.370000000000000218,-9.401147538840332274
0.371000000000000218,-9.345105022481217105
0.372000000000000219,-9.288566504194678330
0.373000000000000220,-9.231582970934921306
0.374000000000000221,-9.174204235045198885
0.375000000000000222,-9.116478918248436258
0.376000000000000223,-9.058454437746297216
0.377000000000000224,-9.000176994368130678
0.378000000000000225,-8.941691562709731755
0.379000000000000226,-8.883041883199956246
0.380000000000000226,-8.824270456032383692
0.381000000000000227,-8.765418536897536583
0.382000000000000228,-8.706526134451092247
0.383000000000000229,-8.647632009452429713
0.384000000000000230,-8.588773675507656691
0.385000000000000231,-8.529987401351352361
0.386000000000000232,-8.471308214600865583
0.387000000000000233,-8.412769906917606733
0.388000000000000234,-8.354405040509833569
0.389000000000000234,-8.296244955912239760
0.390000000000000235,-8.238319780977938933
0.391000000000000236,-8.180658441019566851
0.392000000000000237,-8.123288670036732384
0.393000000000000238,-8.066237022968447690
0.394000000000000239,-8.009528888909674293
0.395000000000000240,-7.953188505232856365
0.396000000000000241,-7.897238972556081649
0.397000000000000242,-7.841702270500950256
0.398000000000000242,-7.786599274184678343
0.399000000000000243,-7.731949771392069515
0.400000000000000244,-7.677772480374635222
0.401000000000000245,-7.624085068225587847
0.402000000000000246,-7.570904169780737547
0.403000000000000247,-7.518245406996967972
0.404000000000000248,-7.466123408761562885
0.405000000000000249,-7.414551831086981792
0.406000000000000250,-7.363543377647351562
0.407000000000000250,-7.313109820614522860
0.408000000000000251,-7.263262021752955100
0.409000000000000252,-7.214009953734384695
0.410000000000000253,-7.165362721634588539
0.411000000000000254,-7.117328584576273265
0.412000000000000255,-7.069914977483404250
0.413000000000000256,-7.023128532914041600
0.414000000000000257,-6.976975102939876550
0.415000000000000258,-6.931459781042519808
0.416000000000000258,-6.886586923997628062
0.417000000000000259,-6.842360173719609584
0.418000000000000260,-6.798782479040960780
0.419000000000000261,-6.755856117401526362
0.420000000000000262,-6.713582716424481234
0.421000000000000263,-6.671963275356962875
0.422000000000000264,-6.630998186354578827
0.423000000000000265,-6.590687255590220062
0.424000000000000266,-6.551029724169010748
0.425000000000000266,-6.512024288831932850
0.426000000000000267,-6.473669122432267109
0.427000000000000268,-6.435961894169809128
0.428000000000000269,-6.398899789568916141
0.429000000000000270,-6.362479530187568066
0.430000000000000271,-6.326697393045449758
0.431000000000000272,-6.291549229760221351
0.432000000000000273,-6.257030485381847029
0.433000000000000274,-6.223136216915959196
0.434000000000000274,-6.189861111527912740
0.435000000000000275,-6.157199504420122871
0.436000000000000276,-6.125145396376056262
0.437000000000000277,-6.093692470964921171
0.438000000000000278,-6.062834111401960158
0.439000000000000279,-6.032563417059893851
0.440000000000000280,-6.002873219627677948
0.441000000000000281,-5.973756098913410639
0.442000000000000282,-5.945204398289021697
0.443000000000000282,-5.917210239774491676
0.444000000000000283,-5.889765538760516783
0.445000000000000284,-5.862862018368550920
0.446000000000000285,-5.836491223447819898
0.447000000000000286,-5.810644534209688850
0.448000000000000287,-5.785313179499535607
0.449000000000000288,-5.760488249707497843
0.450000000000000289,-5.736160709319203299
0.451000000000000290,-5.712321409108362502
0.452000000000000290,-5.688961097973381342
0.453000000000000291,-5.666070434420316992
0.454000000000000292,-5.643639997695105492
0.455000000000000293,-5.621660298567995540
0.456000000000000294,-5.600121789773599978
0.457000000000000295,-5.579014876110147902
0.458000000000000296,-5.558329924201763639
0.459000000000000297,-5.538057271927821823
0.460000000000000298,-5.518187237523637378
0.461000000000000298,-5.498710128356964155
0.462000000000000299,-5.479616249384887006
0.463000000000000300,-5.460895911295851946
0.464000000000000301,-5.442539438341837510
0.465000000000000302,-5.424537175865644656
0.466000000000000303,-5.406879497528447764
0.467000000000000304,-5.389556812242929595
0.468000000000000305,-5.372559570817316832
0.469000000000000306,-5.355878272315719890
0.470000000000000306,-5.339503470140376962
0.471000000000000307,-5.323425777841175766
0.472000000000000308,-5.307635874658297226
0.473000000000000309,-5.292124510803390081
0.474000000000000310,-5.276882512485091326
0.475000000000000311,-5.261900786684552855
0.476000000000000312,-5.247170325686652426
0.477000000000000313,-5.232682211372614134
0.478000000000000314,-5.218427619279711216
0.479000000000000314,-5.204397822433852738
0.480000000000000315,-5.190584194960544906
0.481000000000000316,-5.176978215480112056
0.482000000000000317,-5.163571470292590782
0.483000000000000318,-5.150355656358050815
0.484000000000000319,-5.137322584077812948
0.485000000000000320,-5.124464179882115999
0.486000000000000321,-5.111772488629696021
0.487000000000000322,-5.099239675824689400
0.488000000000000322,-5.086858029656170288
0.489000000000000323,-5.074619962865744682
0.490000000000000324,-5.062518014448313508
0.491000000000000325,-5.050544851191279605
0.492000000000000326,-5.038693269057179513
0.493000000000000327,-5.026956194414944790
0.494000000000000328,-5.015326685124594341
0.495000000000000329,-5.003797931480379546
0.496000000000000330,-4.992363257017045974
0.497000000000000330,-4.981016119184161539
0.498000000000000331,-4.969750109892880019
0.499000000000000332,-4.958558955939993851
0.500000000000000333,-4.947436519313596293
0.501000000000000334,-4.936376797384788517
0.502000000000000335,-4.925373922989797038
0.503000000000000336,-4.914422164406720306
0.504000000000000337,-4.903515925231046069
0.505000000000000338,-4.892649744154025981
0.506000000000000338,-4.881818294647875867
0.507000000000000339,-4.871016384561736245
0.508000000000000340,-4.860238955632106617
0.509000000000000341,-4.849481082911657026
0.510000000000000342,-4.838737974119850627
0.511000000000000343,-4.828004968919101358
0.512000000000000344,-4.817277538119812519
0.513000000000000345,-4.806551282817754789
0.514000000000000346,-4.795821933467117937
0.515000000000000346,-4.785085348892317292
0.516000000000000347,-4.774337515241814600
0.517000000000000348,-4.763574544887015705
0.518000000000000349,-4.752792675269062350
0.519000000000000350,-4.741988267696624959
0.520000000000000351,-4.731157806097310292
0.521000000000000352,-4.720297895725584780
0.522000000000000353,-4.709405261829724409
0.523000000000000353,-4.698476748280453918
0.524000000000000354,-4.687509316163792406
0.525000000000000355,-4.676500042340451913
0.526000000000000356,-4.665446117974216378
0.527000000000000357,-4.654344847031557819
0.528000000000000358,-4.643193644754697758
0.529000000000000359,-4.631990036110268605
0.530000000000000360,-4.620731654215609829
0.531000000000000361,-4.609416238744759475
0.532000000000000361,-4.598041634316042625
0.533000000000000362,-4.586605788863121980
0.534000000000000363,-4.575106751991351750
0.535000000000000364,-4.563542673321157039
0.536000000000000365,-4.551911800820106713
0.537000000000000366,-4.540212479125379730
0.538000000000000367,-4.528443147858039808
0.539000000000000368,-4.516602339930843257
0.540000000000000369,-4.504688679850778144
0.541000000000000369,-4.492700882017979680
0.542000000000000370,-4.480637749022134741
0.543000000000000371,-4.468498169937841880
0.544000000000000372,-4.456281118620054826
0.545000000000000373,-4.443985652000858266
0.546000000000000374,-4.431610908388656789
0.547000000000000375,-4.419156105770893461
0.548000000000000376,-4.406620540121386043
0.549000000000000377,-4.394003583713169903
0.550000000000000377,-4.381304683437912573
0.551000000000000378,-4.368523359132705508
0.552000000000000379,-4.355659201915193179
0.553000000000000380,-4.342711872527805994
0.554000000000000381,-4.329681099691857327
0.555000000000000382,-4.316566678472383067
0.556000000000000383,-4.303368468654211298
0.557000000000000384,-4.290086393130186693
0.558000000000000385,-4.276720436301948425
0.559000000000000385,-4.263270642494058293
0.560000000000000386,-4.249737114381912484
0.561000000000000387,-4.236120011434030275
0.562000000000000388,-4.222419548369215292
0.563000000000000389,-4.208635993629069816
0.564000000000000390,-4.194769667866266261
0.565000000000000391,-4.180820942449044786
0.566000000000000392,-4.166790237982271883
0.567000000000000393,-4.152678022845476491
0.568000000000000393,-4.138484811748110559
0.569000000000000394,-4.124211164302431953
0.570000000000000395,-4.109857683614261070
0.571000000000000396,-4.095425014891803883
0.572000000000000397,-4.080913844072921570
0.573000000000000398,-4.066324896470900008
0.574000000000000399,-4.051658935439048648
0.575000000000000400,-4.036916761054197167
0.576000000000000401,-4.022099208819297722
0.577000000000000401,-4.007207148385301565
0.578000000000000402,-3.992241482292319343
0.579000000000000403,-3.977203144730243167
0.580000000000000404,-3.962093100318933470
0.581000000000000405,-3.946912342907936022
0.582000000000000406,-3.931661894395892975
0.583000000000000407,-3.916342803569570208
0.584000000000000408,-3.900956144962643091
0.585000000000000409,-3.885503017734125653
0.586000000000000409,-3.869984544566501761
0.587000000000000410,-3.854401870583578749
0.588000000000000411,-3.838756162287894291
0.589000000000000412,-3.823048606517802206
0.590000000000000413,-3.807280409424036893
0.591000000000000414,-3.791452795465784398
0.592000000000000415,-3.775567006426157057
0.593000000000000416,-3.759624300446956280
0.594000000000000417,-3.743625951082653724
0.595000000000000417,-3.727573246373559357
0.596000000000000418,-3.711467487937858856
0.597000000000000419,-3.695309990082694895
0.598000000000000420,-3.679102078933865982
0.599000000000000421,-3.662845091584244983
0.600000000000000422,-3.646540375260642008
0.601000000000000423,-3.630189286508991309
0.602000000000000424,-3.613793190397754707
0.603000000000000425,-3.597353459739346171
0.604000000000000425,-3.580871474329375026
0.605000000000000426,-3.564348620203628748
0.606000000000000427,-3.547786288912592845
0.607000000000000428,-3.531185876813199620
0.608000000000000429,-3.514548784377909296
0.609000000000000430,-3.497876415520586590
0.610000000000000431,-3.481170176939321070
0.611000000000000432,-3.464431477475724996
