# LithiumCobaltOxide-001_GLNSCA-AC
# h[nm],U(h)[kJ/mol]
0.149999999999999994,120.026757656548326736
0.150999999999999995,118.442063691504969825
0.151999999999999996,116.140717211189780755
0.152999999999999997,113.729741766111416723
0.153999999999999998,111.431022002000787552
0.154999999999999999,109.283731385209307518
0.156000000000000000,107.254942480914991165
0.157000000000000001,105.295504543851365042
0.158000000000000002,103.364600720040883175
0.159000000000000002,101.437417123314176592
0.160000000000000003,99.504545800150452806
0.161000000000000004,97.568053437459468569
0.162000000000000005,95.636858841968603429
0.163000000000000006,93.722686440662783980
0.164000000000000007,91.837071672072184469
0.165000000000000008,89.989468396135379180
0.166000000000000009,88.186304672183197795
0.167000000000000010,86.430758638917239978
0.168000000000000010,84.723022091766097219
0.169000000000000011,83.060849604773167698
0.170000000000000012,81.440234342459945083
0.171000000000000013,79.856096143269837739
0.172000000000000014,78.302907009665801752
0.173000000000000015,76.775211340017690986
0.174000000000000016,75.268022648151031717
0.175000000000000017,73.777095776365797519
0.176000000000000018,72.299084839044297723
0.177000000000000018,70.831603594077364505
0.178000000000000019,69.373207828571082700
0.179000000000000020,67.923319712430810569
0.180000000000000021,66.482112780646716033
0.181000000000000022,65.050373927085715309
0.182000000000000023,63.629356033622741506
0.183000000000000024,62.220631977590826978
0.184000000000000025,60.825957998867806964
0.185000000000000026,59.447151914439004372
0.186000000000000026,58.085989522814465147
0.187000000000000027,56.744120773220913634
0.188000000000000028,55.423005880760271680
0.189000000000000029,54.123870522422762974
0.190000000000000030,52.847678510836161081
0.191000000000000031,51.595119867743832742
0.192000000000000032,50.366611960936111814
0.193000000000000033,49.162311282059292239
0.194000000000000034,47.982133487572902197
0.195000000000000034,46.825779465169702576
0.196000000000000035,45.692765392602403551
0.197000000000000036,44.582454999772743065
0.198000000000000037,43.494092507850034224
0.199000000000000038,42.426834985368003572
0.200000000000000039,41.379783118967353062
0.201000000000000040,40.352009637375452655
0.202000000000000041,39.342584845853721731
0.203000000000000042,38.350598921496171556
0.204000000000000042,37.375180786037539349
0.205000000000000043,36.415513512219426673
0.206000000000000044,35.470846333273840401
0.207000000000000045,34.540503414437203844
0.208000000000000046,33.623889612784736869
0.209000000000000047,32.720493499517772307
0.210000000000000048,31.829887949695780947
0.211000000000000049,30.951728620815735837
0.212000000000000050,30.085750646042498602
0.213000000000000050,29.231763862566900514
0.214000000000000051,28.389646882593194022
0.215000000000000052,27.559340295699861656
0.216000000000000053,26.740839268415403041
0.217000000000000054,25.934185781210921107
0.218000000000000055,25.139460715929793366
0.219000000000000056,24.356775978939612770
0.220000000000000057,23.586266817800296991
0.221000000000000058,22.828084462634702589
0.222000000000000058,22.082389198135892627
0.223000000000000059,21.349343948610879806
0.224000000000000060,20.629108436875903010
0.225000000000000061,19.921833958332708647
0.226000000000000062,19.227658794234663731
0.227000000000000063,18.546704272998614016
0.228000000000000064,17.879071475387540602
0.229000000000000065,17.224838568391064086
0.230000000000000066,16.584058743554205506
0.231000000000000066,15.956758728209141651
0.232000000000000067,15.342937832405047160
0.233000000000000068,14.742567490147516551
0.234000000000000069,14.155591250694831373
0.235000000000000070,13.581925173955548658
0.236000000000000071,13.021458583337942372
0.237000000000000072,12.474055129570393419
0.238000000000000073,11.939554119907247909
0.239000000000000073,11.417772068629629345
0.240000000000000074,10.908504426725947667
0.241000000000000075,10.411527450991428623
0.242000000000000076,9.926600175421018690
0.243000000000000077,9.453466450602885374
0.244000000000000078,8.991857019777768301
0.245000000000000079,8.541491603247070685
0.246000000000000080,8.102080965837286541
0.247000000000000081,7.673328945111984822
0.248000000000000081,7.254934420929608052
0.249000000000000082,6.846593209743367936
0.250000000000000111,6.447999869704716502
0.251000000000000112,6.058849405146256473
0.252000000000000113,5.678838861368515012
0.253000000000000114,5.307668802832275823
0.254000000000000115,4.945044669853905006
0.255000000000000115,4.590678010719075886
0.256000000000000116,4.244287587767098913
0.257000000000000117,3.905600357459475536
0.258000000000000118,3.574352325737442548
0.259000000000000119,3.250289281099389083
0.260000000000000120,2.933167408799314035
0.261000000000000121,2.622753790391211481
0.262000000000000122,2.318826793528653507
0.263000000000000123,2.021176357486589747
0.264000000000000123,1.729604180310694961
0.265000000000000124,1.443923813830837233
0.266000000000000125,1.163960673007558899
0.267000000000000126,0.889551966224979451
0.268000000000000127,0.620546553208185303
0.269000000000000128,0.356804737238773317
0.270000000000000129,0.098197998275619730
0.271000000000000130,-0.155391326531821250
0.272000000000000131,-0.404070408615509524
0.273000000000000131,-0.647936333928171959
0.274000000000000132,-0.887076543167910514
0.275000000000000133,-1.121569300668317837
0.276000000000000134,-1.351484186616860983
0.277000000000000135,-1.576882607562198002
0.278000000000000136,-1.797818320480515153
0.279000000000000137,-2.014337965986880974
0.280000000000000138,-2.226481606596755647
0.281000000000000139,-2.434283266262724510
0.282000000000000139,-2.637771467728107222
0.283000000000000140,-2.836969764551239059
0.284000000000000141,-3.031897264958892446
0.285000000000000142,-3.222569144983521205
0.286000000000000143,-3.408997148624776763
0.287000000000000144,-3.591190073049879139
0.288000000000000145,-3.769154237110129202
0.289000000000000146,-3.942893931698896459
0.290000000000000147,-4.112411850712811123
0.291000000000000147,-4.277709501598536690
0.292000000000000148,-4.438787594675747350
0.293000000000000149,-4.595646410619467659
0.294000000000000150,-4.748286145664773805
0.295000000000000151,-4.896707234261961972
0.296000000000000152,-5.040910649062148252
0.297000000000000153,-5.180898178251810648
0.298000000000000154,-5.316672680380515104
0.299000000000000155,-5.448238316939387538
0.300000000000000155,-5.575600763049325614
0.301000000000000156,-5.698767396707998145
0.302000000000000157,-5.817747467124192440
0.303000000000000158,-5.932552242736903736
0.304000000000000159,-6.043195139576271302
0.305000000000000160,-6.149691830673665649
0.306000000000000161,-6.252060337270352264
0.307000000000000162,-6.350321102608193158
0.308000000000000163,-6.444497049112507980
0.309000000000000163,-6.534613619797252859
0.310000000000000164,-6.620698804736591114
0.311000000000000165,-6.702783153454680232
0.312000000000000166,-6.780899774088778642
0.313000000000000167,-6.855084320178674417
0.314000000000000168,-6.925374965929468551
0.315000000000000169,-6.991812370784904473
0.316000000000000170,-7.054439634135252213
0.317000000000000171,-7.113302240967326995
0.318000000000000171,-7.168447999245548985
0.319000000000000172,-7.219926969791842453
0.320000000000000173,-7.267791389408958302
0.321000000000000174,-7.312095587967199606
0.322000000000000175,-7.352895900148513242
0.323000000000000176,-7.390250572514666771
0.324000000000000177,-7.424219666538299123
0.325000000000000178,-7.454864958206826486
0.326000000000000179,-7.482249834780485109
0.327000000000000179,-7.506439189255956990
0.328000000000000180,-7.527499313057989028
0.329000000000000181,-7.545497787452120519
0.330000000000000182,-7.560503374142027333
0.331000000000000183,-7.572585905486951319
0.332000000000000184,-7.581816174745523718
0.333000000000000185,-7.588265826725063334
0.334000000000000186,-7.592007249187862961
0.335000000000000187,-7.593113465339539125
0.336000000000000187,-7.591658027698796829
0.337000000000000188,-7.587714913622710000
0.338000000000000189,-7.581358422737747738
0.339000000000000190,-7.572663076503336477
0.340000000000000191,-7.561703520112136978
0.341000000000000192,-7.548554426910250470
0.342000000000000193,-7.533290405499363018
0.343000000000000194,-7.515985909663856823
0.344000000000000195,-7.496715151246599262
0.345000000000000195,-7.475552016080053264
0.346000000000000196,-7.452569983061925640
0.347000000000000197,-7.427842046449131708
0.348000000000000198,-7.401440641428666645
0.349000000000000199,-7.373437573009894663
0.350000000000000200,-7.343903948269774773
0.351000000000000201,-7.312910111969832982
0.352000000000000202,-7.280525585552541479
0.353000000000000203,-7.246819009513812304
0.354000000000000203,-7.211858089138590167
0.355000000000000204,-7.175709543577063698
0.356000000000000205,-7.138439058230943601
0.357000000000000206,-7.100111240411362878
0.358000000000000207,-7.060789578222719243
0.359000000000000208,-7.020536402620701111
0.360000000000000209,-6.979412852586747817
0.361000000000000210,-6.937478843355992630
0.362000000000000210,-6.894793037631157695
0.363000000000000211,-6.851412819710700930
0.364000000000000212,-6.807394272456042117
0.365000000000000213,-6.762792157019328343
0.366000000000000214,-6.717659895250792879
0.367000000000000215,-6.672049554702279117
0.368000000000000216,-6.626011836141907807
0.369000000000000217,-6.579596063493032609
0.370000000000000218,-6.532850176109972651
0.371000000000000218,-6.485820723301737090
0.372000000000000219,-6.438552861014791517
0.373000000000000220,-6.391090350585663771
0.374000000000000221,-6.343475559474111236
0.375000000000000222,-6.295749463887934994
0.376000000000000223,-6.247951653211174516
0.377000000000000224,-6.200120336147962874
0.378000000000000225,-6.152292348495336682
0.379000000000000226,-6.104503162459317345
0.380000000000000226,-6.056786897430038508
0.381000000000000227,-6.009176332132643239
0.382000000000000228,-5.961702918072705693
0.383000000000000229,-5.914396794196157714
0.384000000000000230,-5.867286802685542035
0.385000000000000231,-5.820400505816356151
0.386000000000000232,-5.773764203798882555
0.387000000000000233,-5.727402953533069052
0.388000000000000234,-5.681340588205839204
0.389000000000000234,-5.635599737662465358
0.390000000000000235,-5.590201849485469054
0.391000000000000236,-5.545167210716863693
0.392000000000000237,-5.500514970161489714
0.393000000000000238,-5.456263161211484025
0.394000000000000239,-5.412428725133928253
0.395000000000000240,-5.369027534766015464
0.396000000000000241,-5.326074418564109791
0.397000000000000242,-5.283583184955220169
0.398000000000000242,-5.241566646941605789
0.399000000000000243,-5.200036646911217808
0.400000000000000244,-5.159004081608761894
0.401000000000000245,-5.118478927224397346
0.402000000000000246,-5.078470264558781366
0.403000000000000247,-5.038986304225431923
0.404000000000000248,-5.000034411853168770
0.405000000000000249,-4.961621133253409255
0.406000000000000250,-4.923752219518787498
0.407000000000000250,-4.886432652021633238
0.408000000000000251,-4.849666667282365395
0.409000000000000252,-4.813457781679841396
0.410000000000000253,-4.777808815977168777
0.411000000000000254,-4.742721919638291261
0.412000000000000255,-4.708198594912165191
0.413000000000000256,-4.674239720662947128
0.414000000000000257,-4.640845575926038968
0.415000000000000258,-4.608015863171392112
0.416000000000000258,-4.575749731256760100
0.417000000000000259,-4.544045798055033281
0.418000000000000260,-4.512902172741039664
0.419000000000000261,-4.482316477724479498
0.420000000000000262,-4.452285870216863728
0.421000000000000263,-4.422807063421505980
0.422000000000000264,-4.393876347336672872
0.423000000000000265,-4.365489609163136109
0.424000000000000266,-4.337642353308439169
0.425000000000000266,-4.310329720980962342
0.426000000000000267,-4.283546509368089339
0.427000000000000268,-4.257287190393457266
0.428000000000000269,-4.231545929049220334
0.429000000000000270,-4.206316601300073010
0.430000000000000271,-4.181592811556493317
0.431000000000000272,-4.157367909715483201
0.432000000000000273,-4.133635007767666458
0.433000000000000274,-4.110386995970424451
0.434000000000000274,-4.087616558587173543
0.435000000000000275,-4.065316189193660890
0.436000000000000276,-4.043478205552593963
0.437000000000000277,-4.022094764058480543
0.438000000000000278,-4.001157873755014194
0.439000000000000279,-3.980659409927910897
0.440000000000000280,-3.960591127276336554
0.441000000000000281,-3.940944672666632620
0.442000000000000282,-3.921711597472413935
0.443000000000000282,-3.902883369505266931
0.444000000000000283,-3.884451384540926533
0.445000000000000284,-3.866406977445760340
0.446000000000000285,-3.848741432908865612
0.447000000000000286,-3.831445995785409675
0.448000000000000287,-3.814511881056724008
0.449000000000000288,-3.797930283413339936
0.450000000000000289,-3.781692386466925626
0.451000000000000290,-3.765789371597496604
0.452000000000000290,-3.750212426442397717
0.453000000000000291,-3.734952753033531359
0.454000000000000292,-3.720001575589651388
0.455000000000000293,-3.705350147970437824
0.456000000000000294,-3.690989760799297414
0.457000000000000295,-3.676911748261834312
0.458000000000000296,-3.663107494586983925
0.459000000000000297,-3.649568440217913601
0.460000000000000298,-3.636286087679754697
0.461000000000000298,-3.623252007151291032
0.462000000000000299,-3.610457841747762409
0.463000000000000300,-3.597895312521811828
0.464000000000000301,-3.585556223189839464
0.465000000000000302,-3.573432464590730717
0.466000000000000303,-3.561516018884100188
0.467000000000000304,-3.549798963495061521
0.468000000000000305,-3.538273474812523745
0.469000000000000306,-3.526931831647953430
0.470000000000000306,-3.515766418461506504
0.471000000000000307,-3.504769728362303827
0.472000000000000308,-3.493934365889674432
0.473000000000000309,-3.483253049582007321
0.474000000000000310,-3.472718614339809218
0.475000000000000311,-3.462324013589527905
0.476000000000000312,-3.452062321254564470
0.477000000000000313,-3.441926733539792060
0.478000000000000314,-3.431910570535863680
0.479000000000000314,-3.422007277649490753
0.480000000000000315,-3.412210426865664115
0.481000000000000316,-3.402513717847897912
0.482000000000000317,-3.392910978882221151
0.483000000000000318,-3.383396167670766452
0.484000000000000319,-3.373963371980536863
0.485000000000000320,-3.364606810152909411
0.486000000000000321,-3.355320831479295940
0.487000000000000322,-3.346099916448269429
0.488000000000000322,-3.336938676869325882
0.489000000000000323,-3.327831855878455425
0.490000000000000324,-3.318774327830407600
0.491000000000000325,-3.309761098082574904
0.492000000000000326,-3.300787302675200152
0.493000000000000327,-3.291848207912613677
0.494000000000000328,-3.282939209849957685
0.495000000000000329,-3.274055833689872408
0.496000000000000330,-3.265193733093389561
0.497000000000000330,-3.256348689409327424
0.498000000000000331,-3.247516610826122641
0.499000000000000332,-3.238693531450238972
0.500000000000000333,-3.229875610314928647
0.501000000000000334,-3.221059130323084219
0.502000000000000335,-3.212240497127940131
0.503000000000000336,-3.203416237955077239
0.504000000000000337,-3.194583000369235926
0.505000000000000338,-3.185737550989261813
0.506000000000000338,-3.176876774154431260
0.507000000000000339,-3.167997670545328770
0.508000000000000340,-3.159097355762261472
0.509000000000000341,-3.150173058864277120
0.510000000000000342,-3.141222120871502543
0.511000000000000343,-3.132241993233699340
0.512000000000000344,-3.123230236267610760
0.513000000000000345,-3.114184517565740329
0.514000000000000346,-3.105102610379065098
0.515000000000000346,-3.095982391976036752
0.516000000000000347,-3.086821841980234904
0.517000000000000348,-3.077619040688947649
0.518000000000000349,-3.068372167374740389
0.519000000000000350,-3.059079498572201850
0.520000000000000351,-3.049739406351790638
0.521000000000000352,-3.040350356582766533
0.522000000000000353,-3.030910907186995296
0.523000000000000353,-3.021419706385458870
0.524000000000000354,-3.011875490939163846
0.525000000000000355,-3.002277084386074879
0.526000000000000356,-2.992623395275618048
0.527000000000000357,-2.982913415402351109
0.528000000000000358,-2.973146218040106259
0.529000000000000359,-2.963320956178107757
0.530000000000000360,-2.953436860760279892
0.531000000000000361,-2.943493238929073108
0.532000000000000361,-2.933489472274955823
0.533000000000000362,-2.923425015092743884
0.534000000000000363,-2.913299392645833485
0.535000000000000364,-2.903112199439387808
0.536000000000000365,-2.892863097503435732
0.537000000000000366,-2.882551814686846292
0.538000000000000367,-2.872178142962993785
0.539000000000000368,-2.861741936748069204
0.540000000000000369,-2.851243111232657945
0.541000000000000369,-2.840681640727508839
0.542000000000000370,-2.830057557024035386
0.543000000000000371,-2.819370947770306834
0.544000000000000372,-2.808621954863123715
0.545000000000000373,-2.797810772856735628
0.546000000000000374,-2.786937647388756822
0.547000000000000375,-2.776002873623777845
0.548000000000000376,-2.765006794715171967
0.549000000000000377,-2.753949800285474758
0.550000000000000377,-2.742832324925784437
0.551000000000000378,-2.731654846714520080
0.552000000000000379,-2.720417885755923137
0.553000000000000380,-2.709122002738545198
0.554000000000000381,-2.697767797514040389
0.555000000000000382,-2.686355907696559520
0.556000000000000383,-2.674887007282835238
0.557000000000000384,-2.663361805293342321
0.558000000000000385,-2.651781044434532664
0.559000000000000385,-2.640145499782436733
0.560000000000000386,-2.628455977487671902
0.561000000000000387,-2.616713313502006866
0.562000000000000388,-2.604918372326546105
0.563000000000000389,-2.593072045781641854
0.564000000000000390,-2.581175251798519810
0.565000000000000391,-2.569228933232706957
0.566000000000000392,-2.557234056699228208
0.567000000000000393,-2.545191611429619805
0.568000000000000393,-2.533102608150666235
0.569000000000000394,-2.520968077984878875
0.570000000000000395,-2.508789071372679480
0.571000000000000396,-2.496566657016137558
0.572000000000000397,-2.484301920844305123
0.573000000000000398,-2.471995964999943229
0.574000000000000399,-2.459649906847623857
0.575000000000000400,-2.447264878003037047
0.576000000000000401,-2.434842023383400278
0.577000000000000401,-2.422382500278863926
0.578000000000000402,-2.409887477444704995
0.579000000000000403,-2.397358134214191416
0.580000000000000404,-2.384795659631995246
0.581000000000000405,-2.372201251607882533
0.582000000000000406,-2.359576116090618569
0.583000000000000407,-2.346921466261792766
0.584000000000000408,-2.334238521749479212
0.585000000000000409,-2.321528507861437163
0.586000000000000409,-2.308792654837714231
0.587000000000000410,-2.296032197122426233
0.588000000000000411,-2.283248372654461011
0.589000000000000412,-2.270442422176975672
0.590000000000000413,-2.257615588565342613
0.591000000000000414,-2.244769116173432888
0.592000000000000415,-2.231904250197951356
0.593000000000000416,-2.219022236060562481
0.594000000000000417,-2.206124318807622942
0.595000000000000417,-2.193211742527297670
0.596000000000000418,-2.180285749783689830
0.597000000000000419,-2.167347581067941675
0.598000000000000420,-2.154398474265855512
0.599000000000000421,-2.141439664141945531
0.600000000000000422,-2.128472381839581207
0.601000000000000423,-2.115497854397001554
0.602000000000000424,-2.102517304278956889
0.603000000000000425,-2.089531948923722737
0.604000000000000425,-2.076543000305208775
0.605000000000000426,-2.063551664509950534
0.606000000000000427,-2.050559141328735624
0.607000000000000428,-2.037566623862510973
0.608000000000000429,-2.024575298142530233
0.609000000000000430,-2.011586342764211111
0.610000000000000431,-1.998600928534739252
0.611000000000000432,-1.985620218133943071
0.612000000000000433,-1.972645365788297855
0.613000000000000433,-1.959677516957828658
