# LithiumCobaltOxide-001_CS-11530-AC
# h[nm],U(h)[kJ/mol]
0.149999999999999994,148.499989728504999675
0.150999999999999995,146.278325675374645698
0.151999999999999996,143.439367960630619336
0.152999999999999997,140.463316122671983521
0.153999999999999998,137.551183729735413408
0.154999999999999999,134.760981285339880742
0.156000000000000000,132.086211193099757111
0.157000000000000001,129.498495323573251881
0.158000000000000002,126.968614335974137930
0.159000000000000002,124.475122667259370246
0.160000000000000003,122.006276568512632252
0.161000000000000004,119.558751611593635289
0.162000000000000005,117.135161770834699269
0.163000000000000006,114.741466048464118899
0.164000000000000007,112.384780988969353643
0.165000000000000008,110.071784534931651933
0.166000000000000009,107.807714137099239338
0.167000000000000010,105.595873055670182339
0.168000000000000010,103.437525749640514050
0.169000000000000011,101.332061699370228780
0.170000000000000012,99.277321461957740212
0.171000000000000013,97.269999751144325728
0.172000000000000014,95.306062360203355865
0.173000000000000015,93.381133862150136338
0.174000000000000016,91.490829882980264642
0.175000000000000017,89.631020969184007186
0.176000000000000018,87.798024821557788755
0.177000000000000018,85.988730377710695052
0.178000000000000019,84.200661436475442656
0.179000000000000020,82.431989777448990253
0.180000000000000021,80.681508541028080117
0.181000000000000022,78.948576430315370089
0.182000000000000023,77.233042428970165361
0.183000000000000024,75.535159474753498898
0.184000000000000025,73.855494094746774181
0.185000000000000026,72.194837544049789813
0.186000000000000026,70.554122596362759623
0.187000000000000027,68.934348875648453259
0.188000000000000028,67.336518527701556991
0.189000000000000029,65.761583122447746064
0.190000000000000030,64.210401950822301842
0.191000000000000031,62.683711322953023171
0.192000000000000032,61.182104069915546063
0.193000000000000033,59.706018179245134547
0.194000000000000034,58.255733333399220442
0.195000000000000034,56.831374049605116738
0.196000000000000035,55.432918119560170567
0.197000000000000036,54.060209100785620251
0.198000000000000037,52.712971702839446664
0.199000000000000038,51.390829028161192582
0.200000000000000039,50.093320758417583249
0.201000000000000040,48.819921514316220623
0.202000000000000041,47.570058753341257329
0.203000000000000042,46.343129700794634118
0.204000000000000042,45.138516931384394582
0.205000000000000043,43.955602329071055578
0.206000000000000044,42.793779250618094068
0.207000000000000045,41.652462802729147029
0.208000000000000046,40.531098213825089260
0.209000000000000047,39.429167339900104139
0.210000000000000048,38.346193390300754800
0.211000000000000049,37.281743994711526113
0.212000000000000050,36.235432758242758666
0.213000000000000050,35.206919468509234150
0.214000000000000051,34.195909128157353507
0.215000000000000052,33.202149989620622250
0.216000000000000053,32.225430767061176596
0.217000000000000054,31.265577194510676406
0.218000000000000055,30.322448090086027150
0.219000000000000056,29.395931074648711245
0.220000000000000057,28.485938080120639881
0.221000000000000058,27.592400768493508423
0.222000000000000058,26.715265967886853815
0.223000000000000059,25.854491217268012804
0.224000000000000060,25.010040496990946224
0.225000000000000061,24.181880208420114542
0.226000000000000062,23.369975452793475768
0.227000000000000063,22.574286647297473252
0.228000000000000064,21.794766505182227689
0.229000000000000065,21.031357396696730433
0.230000000000000066,20.283989098701376008
0.231000000000000066,19.552576933011607707
0.232000000000000067,18.837020286820532533
0.233000000000000068,18.137201502892214222
0.234000000000000069,17.452985122555070063
0.235000000000000070,16.784217460788806164
0.236000000000000071,16.130726489814001923
0.237000000000000072,15.492322005481501179
0.238000000000000073,14.868796049342313026
0.239000000000000073,14.259923558477584749
0.240000000000000074,13.665463214902056066
0.241000000000000075,13.085158466555322221
0.242000000000000076,12.518738692486756747
0.243000000000000077,11.965920485759472314
0.244000000000000078,11.426409028785101896
0.245000000000000079,10.899899537197498489
0.246000000000000080,10.386078749931410670
0.247000000000000081,9.884626444843419790
0.248000000000000081,9.395216960960651065
0.249000000000000082,8.917520710230256498
0.250000000000000111,8.451205663439498750
0.251000000000000112,7.995938796757957157
0.252000000000000113,7.551387487094972428
0.253000000000000114,7.117220846153874625
0.254000000000000115,6.693110984678691366
0.255000000000000115,6.278734199923844628
0.256000000000000116,5.873772080819103181
0.257000000000000117,5.477912526647412683
0.258000000000000118,5.090850676297725919
0.259000000000000119,4.712289746294922921
0.260000000000000120,4.341941776845516188
0.261000000000000121,3.979528286071792653
0.262000000000000122,3.624780833438786320
0.263000000000000123,3.277441494113712217
0.264000000000000123,2.937263246636904857
0.265000000000000124,2.604010276834231696
0.266000000000000125,2.277458201365923696
0.267000000000000126,1.957394214692669054
0.268000000000000127,1.643617163550441518
0.269000000000000128,1.335937553268506051
0.270000000000000129,1.034177490443691116
0.271000000000000130,0.738170566605288903
0.272000000000000131,0.447761687574183553
0.273000000000000131,0.162806853241558830
0.274000000000000132,-0.116827107527133295
0.275000000000000133,-0.391262842214437190
0.276000000000000134,-0.660612815640114093
0.277000000000000135,-0.924979682174902562
0.278000000000000136,-1.184456684878099963
0.279000000000000137,-1.439128077418974749
0.280000000000000138,-1.689069564819380087
0.281000000000000139,-1.934348759246143246
0.282000000000000139,-2.175025647282087249
0.283000000000000140,-2.411153065313210941
0.284000000000000141,-2.642777179882448202
0.285000000000000142,-2.869937970076535283
0.286000000000000143,-3.092669709229108665
0.287000000000000144,-3.311001443438490011
0.288000000000000145,-3.524957464612328728
0.289000000000000146,-3.734557775959429726
0.290000000000000147,-3.939818548054149883
0.291000000000000147,-4.140752563795897956
0.292000000000000148,-4.337369650778187591
0.293000000000000149,-4.529677099764629844
0.294000000000000150,-4.717680068145322814
0.295000000000000151,-4.901381967413859897
0.296000000000000152,-5.080784833863663863
0.297000000000000153,-5.255889681851497741
0.298000000000000154,-5.426696839116400106
0.299000000000000155,-5.593206263773271125
0.300000000000000155,-5.755417842722513555
0.301000000000000156,-5.913331671329830286
0.302000000000000157,-6.066948314335090409
0.303000000000000158,-6.216269048044091861
0.304000000000000159,-6.361296083944836255
0.305000000000000160,-6.502032773968487334
0.306000000000000161,-6.638483797686871135
0.307000000000000162,-6.770655331801870958
0.308000000000000163,-6.898555202338660486
0.309000000000000163,-7.022193020004463548
0.310000000000000164,-7.141580299217918260
0.311000000000000165,-7.256730561350947184
0.312000000000000166,-7.367659422756814180
0.313000000000000167,-7.474384668183661873
0.314000000000000168,-7.576926310193988101
0.315000000000000169,-7.675306635226585961
0.316000000000000170,-7.769550236949527289
0.317000000000000171,-7.859684037560461078
0.318000000000000171,-7.945737297694634549
0.319000000000000172,-8.027741615602051795
0.320000000000000173,-8.105730916252593232
0.321000000000000174,-8.179741431022845788
0.322000000000000175,-8.249811668610954385
0.323000000000000176,-8.315982377815670290
0.324000000000000177,-8.378296502804008838
0.325000000000000178,-8.436799131478045055
0.326000000000000179,-8.491537437536566202
0.327000000000000179,-8.542560616810124685
0.328000000000000180,-8.589919818430725940
0.329000000000000181,-8.633668071378718167
0.330000000000000182,-8.673860206929433048
0.331000000000000183,-8.710552777502785560
0.332000000000000184,-8.743803972397660829
0.333000000000000185,-8.773673530872418524
0.334000000000000186,-8.800222653011454454
0.335000000000000187,-8.823513908796345007
0.336000000000000187,-8.843611145779050275
0.337000000000000188,-8.860579395732823826
0.338000000000000189,-8.874484780636024084
0.339000000000000190,-8.885394418322677623
0.340000000000000191,-8.893376328113046014
0.341000000000000192,-8.898499336717758723
0.342000000000000193,-8.900832984688435090
0.343000000000000194,-8.900447433669416597
0.344000000000000195,-8.897413374685203991
0.345000000000000195,-8.891801937681183432
0.346000000000000196,-8.883684602516371598
0.347000000000000197,-8.873133111590496114
0.348000000000000198,-8.860219384270957121
0.349000000000000199,-8.845015433269132643
0.350000000000000200,-8.827593283100672039
0.351000000000000201,-8.808024890749241109
0.352000000000000202,-8.786382068639587928
0.353000000000000203,-8.762736410012292865
0.354000000000000203,-8.737159216779915027
0.355000000000000204,-8.709721429931986947
0.356000000000000205,-8.680493562545201769
0.357000000000000206,-8.649545635444095382
0.358000000000000207,-8.616947115547208824
0.359000000000000208,-8.582766856924425980
0.360000000000000209,-8.547073044581960488
0.361000000000000210,-8.509933140982923305
0.362000000000000210,-8.471413835303764017
0.363000000000000211,-8.431580995419245994
0.364000000000000212,-8.390499622602090923
0.365000000000000213,-8.348233808916742049
0.366000000000000214,-8.304846697281178081
0.367000000000000215,-8.260400444165130196
0.368000000000000216,-8.214956184888324131
0.369000000000000217,-8.168574001477624691
0.370000000000000218,-8.121312893038247438
0.371000000000000218,-8.073230748590152217
0.372000000000000219,-8.024384322317738238
0.373000000000000220,-7.974829211177936195
0.374000000000000221,-7.924619834809154106
0.375000000000000222,-7.873809417681248313
0.376000000000000223,-7.822449973424980385
0.377000000000000224,-7.770592291277419683
0.378000000000000225,-7.718285924578637491
0.379000000000000226,-7.665579181253685093
0.380000000000000226,-7.612519116213308124
0.381000000000000227,-7.559151525605675381
0.382000000000000228,-7.505520942851551247
0.383000000000000229,-7.451670636394633007
0.384000000000000230,-7.397642609098897815
0.385000000000000231,-7.343477599225077590
0.386000000000000232,-7.289215082918277133
0.387000000000000233,-7.234893278139625572
0.388000000000000234,-7.180549149974979173
0.389000000000000234,-7.126218417254799320
0.390000000000000235,-7.071935560419744249
0.391000000000000236,-7.017733830567739695
0.392000000000000237,-6.963645259619032579
0.393000000000000238,-6.909700671537088112
0.394000000000000239,-6.855929694544032671
0.395000000000000240,-6.802360774270880484
0.396000000000000241,-6.749021187783919906
0.397000000000000242,-6.695937058429889177
0.398000000000000242,-6.643133371444257307
0.399000000000000243,-6.590633990268014664
0.400000000000000244,-6.538461673520004069
0.401000000000000245,-6.486638092573445924
0.402000000000000246,-6.435183849686469948
0.403000000000000247,-6.384118496638328644
0.404000000000000248,-6.333460553824349581
0.405000000000000249,-6.283227529764234376
0.406000000000000250,-6.233435940979877188
0.407000000000000250,-6.184101332200450329
0.408000000000000251,-6.135238296853955831
0.409000000000000252,-6.086860497806159565
0.410000000000000253,-6.038980688309079525
0.411000000000000254,-5.991610733122994858
0.412000000000000255,-5.944761629777188361
0.413000000000000256,-5.898443529936342244
0.414000000000000257,-5.852665760840708664
0.415000000000000258,-5.807436846789880924
0.416000000000000258,-5.762764530641142358
0.417000000000000259,-5.718655795294974808
0.418000000000000260,-5.675116885141482825
0.419000000000000261,-5.632153327442965818
0.420000000000000262,-5.589769953629016186
0.421000000000000263,-5.547970920482023338
0.422000000000000264,-5.506759731191865903
0.423000000000000265,-5.466139256260062140
0.424000000000000266,-5.426111754234829831
0.425000000000000266,-5.386678892259306295
0.426000000000000267,-5.347841766416770781
0.427000000000000268,-5.309600921857379419
0.428000000000000269,-5.271956372692214288
0.429000000000000270,-5.234907621641385234
0.430000000000000271,-5.198453679423804985
0.431000000000000272,-5.162593083877395905
0.432000000000000273,-5.127323918799237212
0.433000000000000274,-5.092643832496088763
0.434000000000000274,-5.058550056036608567
0.435000000000000275,-5.025039421197361023
0.436000000000000276,-4.992108378095522880
0.437000000000000277,-4.959753012501875169
0.438000000000000278,-4.927969062828511326
0.439000000000000279,-4.896751936786339243
0.440000000000000280,-4.866096727707990510
0.441000000000000281,-4.835998230532601916
0.442000000000000282,-4.806450957449452943
0.443000000000000282,-4.777449153197849796
0.444000000000000283,-4.748986810021564864
0.445000000000000284,-4.721057682276305734
0.446000000000000285,-4.693655300689327348
0.447000000000000286,-4.666772986270968815
0.448000000000000287,-4.640403863877891055
0.449000000000000288,-4.614540875428758682
0.450000000000000289,-4.589176792773042024
0.451000000000000290,-4.564304230214299984
0.452000000000000290,-4.539915656689581525
0.453000000000000291,-4.516003407606817177
0.454000000000000292,-4.492559696342572906
0.455000000000000293,-4.469576625402661207
0.456000000000000294,-4.447046197248537780
0.457000000000000295,-4.424960324792542643
0.458000000000000296,-4.403310841565370559
0.459000000000000297,-4.382089511559359885
0.460000000000000298,-4.361288038751377272
0.461000000000000298,-4.340898076309294140
0.462000000000000299,-4.320911235486258661
0.463000000000000300,-4.301319094206977667
0.464000000000000301,-4.282113205350659868
0.465000000000000302,-4.263285104735094144
0.466000000000000303,-4.244826318806646626
0.467000000000000304,-4.226728372041050008
0.468000000000000305,-4.208982794059909160
0.469000000000000306,-4.191581126467929685
0.470000000000000306,-4.174514929416080378
0.471000000000000307,-4.157775787895694464
0.472000000000000308,-4.141355317768947053
0.473000000000000309,-4.125245171540820266
0.474000000000000310,-4.109437043877950835
0.475000000000000311,-4.093922676879697242
0.476000000000000312,-4.078693865106812311
0.477000000000000313,-4.063742460373044985
0.478000000000000314,-4.049060376305090969
0.479000000000000314,-4.034639592676333208
0.480000000000000315,-4.020472159519615118
0.481000000000000316,-4.006550201024588809
0.482000000000000317,-3.992865919224794169
0.483000000000000318,-3.979411597479979967
0.484000000000000319,-3.966179603758787753
0.485000000000000320,-3.953162393727186696
0.486000000000000321,-3.940352513647819244
0.487000000000000322,-3.927742603095437435
0.488000000000000322,-3.915325397493535142
0.489000000000000323,-3.903093730477343648
0.490000000000000324,-3.891040536088108404
0.491000000000000325,-3.879158850803694492
0.492000000000000326,-3.867441815410356476
0.493000000000000327,-3.855882676720604252
0.494000000000000328,-3.844474789141874460
0.495000000000000329,-3.833211616100757446
0.496000000000000330,-3.822086731327401843
0.497000000000000330,-3.811093820004719301
0.498000000000000331,-3.800226679786793849
0.499000000000000332,-3.789479221691050892
0.500000000000000333,-3.778845470868448242
0.501000000000000334,-3.768319567255964841
0.502000000000000335,-3.757895766115660674
0.503000000000000336,-3.747568438464341511
0.504000000000000337,-3.737332071397945210
0.505000000000000338,-3.727181268314544660
0.506000000000000338,-3.717110749039926443
0.507000000000000339,-3.707115349859476883
0.508000000000000340,-3.697190023460129371
0.509000000000000341,-3.687329838786077119
0.510000000000000342,-3.677529980811685473
0.511000000000000343,-3.667785750235217357
0.512000000000000344,-3.658092563096690952
0.513000000000000345,-3.648445950323222942
0.514000000000000346,-3.638841557205155564
0.515000000000000346,-3.629275142806012155
0.516000000000000347,-3.619742579309487063
0.517000000000000348,-3.610239851306452863
0.518000000000000349,-3.600763055024857273
0.519000000000000350,-3.591308397505458938
0.520000000000000351,-3.581872195726116814
0.521000000000000352,-3.572450875677402049
0.522000000000000353,-3.563040971392086309
0.523000000000000353,-3.553639123931152888
0.524000000000000354,-3.544242080328770417
0.525000000000000355,-3.534846692498666787
0.526000000000000356,-3.525449916104216985
0.527000000000000357,-3.516048809394607844
0.528000000000000358,-3.506640532009168254
0.529000000000000359,-3.497222343752150575
0.530000000000000360,-3.487791603339888358
0.531000000000000361,-3.478345767122483778
0.532000000000000361,-3.468882387781885512
0.533000000000000362,-3.459399113008281290
0.534000000000000363,-3.449893684156597029
0.535000000000000364,-3.440363934884932640
0.536000000000000365,-3.430807789776542993
0.537000000000000366,-3.421223262947124422
0.538000000000000367,-3.411608456638867803
0.539000000000000368,-3.401961559802959556
0.540000000000000369,-3.392280846671859251
0.541000000000000369,-3.382564675322917935
0.542000000000000370,-3.372811486234587708
0.543000000000000371,-3.363019800836647644
0.544000000000000372,-3.353188220055641544
0.545000000000000373,-3.343315422856813601
0.546000000000000374,-3.333400164783648201
0.547000000000000375,-3.323441276496203134
0.548000000000000376,-3.313437662309302034
0.549000000000000377,-3.303388298731597672
0.550000000000000377,-3.293292233006535952
0.551000000000000378,-3.283148581656141207
0.552000000000000379,-3.272956529028578476
0.553000000000000380,-3.262715325850313430
0.554000000000000381,-3.252424287783711065
0.555000000000000382,-3.242082793990942235
0.556000000000000383,-3.231690285704799326
0.557000000000000384,-3.221246264807329673
0.558000000000000385,-3.210750292416791218
0.559000000000000385,-3.200201987483737298
0.560000000000000386,-3.189601025396731515
0.561000000000000387,-3.178947136598350376
0.562000000000000388,-3.168240105211979518
0.563000000000000389,-3.157479767679982174
0.564000000000000390,-3.146666011413672415
0.565000000000000391,-3.135798773455608313
0.566000000000000392,-3.124878039154611820
0.567000000000000393,-3.113903840853962546
0.568000000000000393,-3.102876256593101179
0.569000000000000394,-3.091795408823231561
0.570000000000000395,-3.080661463137191358
0.571000000000000396,-3.069474627013805801
0.572000000000000397,-3.058235148577143292
0.573000000000000398,-3.046943315370818084
0.574000000000000399,-3.035599453147675320
0.575000000000000400,-3.024203924675030741
0.576000000000000401,-3.012757128555678232
0.577000000000000401,-3.001259498064913434
0.578000000000000402,-2.989711500003630285
0.579000000000000403,-2.978113633567716967
0.580000000000000404,-2.966466429233910240
0.581000000000000405,-2.954770447662112609
0.582000000000000406,-2.943026278614407243
0.583000000000000407,-2.931234539890737789
0.584000000000000408,-2.919395876281417390
0.585000000000000409,-2.907510958536454471
0.586000000000000409,-2.895580482351770790
0.587000000000000410,-2.883605167372362388
0.588000000000000411,-2.871585756212337692
0.589000000000000412,-2.859523013491966914
0.590000000000000413,-2.847417724891590396
0.591000000000000414,-2.835270696222489395
0.592000000000000415,-2.823082752514639804
0.593000000000000416,-2.810854737121280866
0.594000000000000417,-2.798587510840304216
0.595000000000000417,-2.786281951052425043
0.596000000000000418,-2.773938950875932008
0.597000000000000419,-2.761559418338162430
0.598000000000000420,-2.749144275563388362
0.599000000000000421,-2.736694457977211226
0.600000000000000422,-2.724210913527255862
0.601000000000000423,-2.711694601920089376
0.602000000000000424,-2.699146493874294617
0.603000000000000425,-2.686567570389517545
0.604000000000000425,-2.673958822031404559
0.605000000000000426,-2.661321248232296988
0.606000000000000427,-2.648655856607584624
0.607000000000000428,-2.635963662287441611
0.608000000000000429,-2.623245687264057491
0.609000000000000430,-2.610502959753910890
0.610000000000000431,-2.597736513575218620
0.611000000000000432,-2.584947387540198704
0.612000000000000433,-2.572136624862088716
