# LithiumCobaltOxide-001_CS-72545-AC
# h[nm],U(h)[kJ/mol]
0.149999999999999994,140.931935040808923532
0.150999999999999995,139.129261402333696651
0.151999999999999996,136.421627832548836068
0.152999999999999997,133.551070718084304190
0.153999999999999998,130.800478202391445848
0.154999999999999999,128.230439499805044079
0.156000000000000000,125.810083007123395760
0.157000000000000001,123.484324990638199893
0.158000000000000002,121.204411640809581741
0.159000000000000002,118.938407005088762958
0.160000000000000003,116.671640718069895115
0.161000000000000004,114.402897603287641459
0.162000000000000005,112.139493756080582898
0.163000000000000006,109.892787956979560704
0.164000000000000007,107.674750587004069757
0.165000000000000008,105.495706072088154315
0.166000000000000009,103.363115621661606269
0.167000000000000010,101.281168600855920658
0.168000000000000010,99.250935946123092890
0.169000000000000011,97.270865956175470046
0.170000000000000012,95.337446732684242079
0.171000000000000013,93.445906476181122002
0.172000000000000014,91.590865503171301043
0.173000000000000015,89.766889093783944986
0.174000000000000016,87.968917340902066826
0.175000000000000017,86.192567568485955576
0.176000000000000018,84.434317735509083036
0.177000000000000018,82.691586853988511052
0.178000000000000019,80.962732104136279077
0.179000000000000020,79.246983159003875130
0.180000000000000021,77.544333174867858816
0.181000000000000022,75.855403703179177910
0.182000000000000023,74.181297993404029967
0.183000000000000024,72.523454184322275751
0.184000000000000025,70.883506996277503731
0.185000000000000026,69.263163909274254593
0.186000000000000026,67.664099536026554915
0.187000000000000027,66.087870013950137604
0.188000000000000028,64.535847746110107437
0.189000000000000029,63.009175693743053159
0.190000000000000030,61.508739622806515968
0.191000000000000031,60.035156187392502147
0.192000000000000032,58.588774445075941344
0.193000000000000033,57.169688296187246124
0.194000000000000034,55.777757377228091684
0.195000000000000034,54.412634079832436385
0.196000000000000035,53.073794578036299185
0.197000000000000036,51.760572000994713449
0.198000000000000037,50.472190163843322352
0.199000000000000038,49.207796549181892942
0.200000000000000039,47.966493502971715657
0.201000000000000040,46.747366862459664105
0.202000000000000041,45.549511464098308977
0.203000000000000042,44.372053182819350070
0.204000000000000042,43.214167328891704756
0.205000000000000043,42.075093374903374865
0.206000000000000044,40.954146104197093337
0.207000000000000045,39.850723365187249669
0.208000000000000046,38.764310685713354587
0.209000000000000047,37.694483050553088788
0.210000000000000048,36.640904176154933225
0.211000000000000049,35.603323632272456223
0.212000000000000050,34.581572163098556416
0.213000000000000050,33.575555553157748534
0.214000000000000051,32.585247367839755839
0.215000000000000052,31.610680877050906901
0.216000000000000053,30.651940444767053151
0.217000000000000054,29.709152638801963775
0.218000000000000055,28.782477285129868250
0.219000000000000056,27.872098660673451320
0.220000000000000057,26.978216988436486190
0.221000000000000058,26.101040369898992566
0.222000000000000058,25.240777262198967890
0.223000000000000059,24.397629582177660978
0.224000000000000060,23.571786496102518527
0.225000000000000061,22.763418932953644713
0.226000000000000062,21.972674840627647086
0.227000000000000063,21.199675188268447101
0.228000000000000064,20.444510704121878319
0.229000000000000065,19.707239326723538397
0.230000000000000066,18.987884337740723595
0.231000000000000066,18.286433137240663882
0.232000000000000067,17.602836616386632329
0.233000000000000068,16.937009078392058825
0.234000000000000069,16.288828655818473834
0.235000000000000070,15.658138170809312584
0.236000000000000071,15.044746384442428067
0.237000000000000072,14.448429581896979457
0.238000000000000073,13.868933441417359731
0.239000000000000073,13.305975136978910101
0.240000000000000074,12.759245626985814326
0.241000000000000075,12.228412084152513017
0.242000000000000076,11.713120424826659161
0.243000000000000077,11.212997899316500039
0.244000000000000078,10.727655708207871399
0.245000000000000079,10.256691613126488249
0.246000000000000080,9.799692513862463983
0.247000000000000081,9.356236967174591967
0.248000000000000081,8.925897625894020138
0.249000000000000082,8.508243580116019444
0.250000000000000111,8.102842585279459442
0.251000000000000112,7.709263164767534704
0.252000000000000113,7.327076577305328797
0.253000000000000114,6.955858641873730264
0.254000000000000115,6.595191415096055998
0.255000000000000115,6.244664718087171273
0.256000000000000116,5.903877511582859228
0.257000000000000117,5.572439119796325890
0.258000000000000118,5.249970304885301253
0.259000000000000119,4.936104195163691699
0.260000000000000120,4.630487071267070931
0.261000000000000121,4.332779015391289512
0.262000000000000122,4.042654429477794409
0.263000000000000123,3.759802428831066301
0.264000000000000123,3.483927118132067680
0.265000000000000124,3.214747757170113740
0.266000000000000125,2.951998823863744015
0.267000000000000126,2.695429982291341009
0.268000000000000127,2.444805963513322133
0.269000000000000128,2.199906366952038006
0.270000000000000129,1.960525390010479541
0.271000000000000130,1.726471493466961604
0.272000000000000131,1.497567009988507891
0.273000000000000131,1.273647702867994225
0.274000000000000132,1.054562281817385871
0.275000000000000133,0.840171882347499732
0.276000000000000134,0.630349514940501177
0.277000000000000135,0.424979489880402017
0.278000000000000136,0.223956823253038839
0.279000000000000137,0.027186629266643347
0.280000000000000138,-0.165416496320025974
0.281000000000000139,-0.353929097239499613
0.282000000000000139,-0.538419478165461207
0.283000000000000140,-0.718948322864334743
0.284000000000000141,-0.895569305689068451
0.285000000000000142,-1.068329693392949586
0.286000000000000143,-1.237270934566717884
0.287000000000000144,-1.402429234314646056
0.288000000000000145,-1.563836112084502572
0.289000000000000146,-1.721518940849465995
0.290000000000000147,-1.875501466109575688
0.291000000000000147,-2.025804303432693132
0.292000000000000148,-2.172445413492701149
0.293000000000000149,-2.315440553783527200
0.294000000000000150,-2.454803706393456686
0.295000000000000151,-2.590547481414029907
0.296000000000000152,-2.722683495732494130
0.297000000000000153,-2.851222727116602407
0.298000000000000154,-2.976175843645940233
0.299000000000000155,-3.097553508675336964
0.300000000000000155,-3.215366661634122103
0.301000000000000156,-3.329626775070111844
0.302000000000000157,-3.440346088440701777
0.303000000000000158,-3.547537819234778844
0.304000000000000159,-3.651216352080334016
0.305000000000000160,-3.751397406552922753
0.306000000000000161,-3.848098184451531178
0.307000000000000162,-3.941337497350386521
0.308000000000000163,-4.031135875269128199
0.309000000000000163,-4.117515657330084622
0.310000000000000164,-4.200501065290611180
0.311000000000000165,-4.280118260850986900
0.312000000000000166,-4.356395387645489947
0.313000000000000167,-4.429362598825470343
0.314000000000000168,-4.499052071139990616
0.315000000000000169,-4.565498006411802479
0.316000000000000170,-4.628736621294951448
0.317000000000000171,-4.688806126185006917
0.318000000000000171,-4.745746694134914456
0.319000000000000172,-4.799600420608856055
0.320000000000000173,-4.850411274883229318
0.321000000000000174,-4.898225043879008922
0.322000000000000175,-4.943089269183229995
0.323000000000000176,-4.985053177989302142
0.324000000000000177,-5.024167608656951778
0.325000000000000178,-5.060484931562668542
0.326000000000000179,-5.094058965881445467
0.327000000000000179,-5.124944892909468308
0.328000000000000180,-5.153199166506697182
0.329000000000000181,-5.178879421207376765
0.330000000000000182,-5.202044378515325640
0.331000000000000183,-5.222753751870833128
0.332000000000000184,-5.241068150745251231
0.333000000000000185,-5.257048984290123350
0.334000000000000186,-5.270758364938420648
0.335000000000000187,-5.282259012327065406
0.336000000000000187,-5.291614157882420955
0.337000000000000188,-5.298887450383230835
0.338000000000000189,-5.304142862789978707
0.339000000000000190,-5.307444600604240392
0.340000000000000191,-5.308857011997275777
0.341000000000000192,-5.308444499924533488
0.342000000000000193,-5.306271436419654819
0.343000000000000194,-5.302402079241184119
0.344000000000000195,-5.296900491024016056
0.345000000000000195,-5.289830461069310097
0.346000000000000196,-5.281255429887407260
0.347000000000000197,-5.271238416591606857
0.348000000000000198,-5.259841949224014712
0.349000000000000199,-5.247127998079281319
0.350000000000000200,-5.233157912077761154
0.351000000000000201,-5.217992358225810534
0.352000000000000202,-5.201691264188452735
0.353000000000000203,-5.184313763987772106
0.354000000000000203,-5.165918146829445945
0.355000000000000204,-5.146561809049531533
0.356000000000000205,-5.126301209164478401
0.357000000000000206,-5.105191825998544708
0.358000000000000207,-5.083288119854842080
0.359000000000000208,-5.060643496689176679
0.360000000000000209,-5.037310275239270219
0.361000000000000210,-5.013339657055849052
0.362000000000000210,-4.988781699377057066
0.363000000000000211,-4.963685290782684056
0.364000000000000212,-4.938098129560632543
0.365000000000000213,-4.912066704714299625
0.366000000000000214,-4.885636279536428539
0.367000000000000215,-4.858850877672142410
0.368000000000000216,-4.831753271591765930
0.369000000000000217,-4.804384973391886859
0.370000000000000218,-4.776786227841900434
0.371000000000000218,-4.748996007591808954
0.372000000000000219,-4.721052010456517678
0.373000000000000220,-4.692990658691167383
0.374000000000000221,-4.664847100171922278
0.375000000000000222,-4.636655211396497833
0.376000000000000223,-4.608447602219338357
0.377000000000000224,-4.580255622236457214
0.378000000000000225,-4.552109368735981931
0.379000000000000226,-4.524037696131129493
0.380000000000000226,-4.496068226793674683
0.381000000000000227,-4.468227363206823455
0.382000000000000228,-4.440540301358187669
0.383000000000000229,-4.413031045294760979
0.384000000000000230,-4.385722422763465467
0.385000000000000231,-4.358636101862687795
0.386000000000000232,-4.331792608631768182
0.387000000000000233,-4.305211345507491849
0.388000000000000234,-4.278910610578367191
0.389000000000000234,-4.252907617569685605
0.390000000000000235,-4.227218516494061440
0.391000000000000236,-4.201858414904581451
0.392000000000000237,-4.176841399689406487
0.393000000000000238,-4.152180559349082145
0.394000000000000239,-4.127888006699684809
0.395000000000000240,-4.103974901947216480
0.396000000000000241,-4.080451476080699358
0.397000000000000242,-4.057327054533479860
0.398000000000000242,-4.034610081064526454
0.399000000000000243,-4.012308141813337059
0.400000000000000244,-3.990427989484300220
0.401000000000000245,-3.968975567618445943
0.402000000000000246,-3.947956034912224688
0.403000000000000247,-3.927373789545287597
0.404000000000000248,-3.907232493480935709
0.405000000000000249,-3.887535096704912263
0.406000000000000250,-3.868283861369996579
0.407000000000000250,-3.849480385815792882
0.408000000000000251,-3.831125628434720376
0.409000000000000252,-3.813219931357134662
0.410000000000000253,-3.795763043929996083
0.411000000000000254,-3.778754145965324884
0.412000000000000255,-3.762191870736079746
0.413000000000000256,-3.746074327698916129
0.414000000000000257,-3.730399124924384857
0.415000000000000258,-3.715163391217014777
0.416000000000000258,-3.700363797908741592
0.417000000000000259,-3.685996580310766380
0.418000000000000260,-3.672057558810056577
0.419000000000000261,-3.658542159598039412
0.420000000000000262,-3.645445435020207903
0.421000000000000263,-3.632762083536577702
0.422000000000000264,-3.620486469283889619
0.423000000000000265,-3.608612641231682794
0.424000000000000266,-3.597134351925376450
0.425000000000000266,-3.586045075810253557
0.426000000000000267,-3.575338027131467644
0.427000000000000268,-3.565006177405874332
0.428000000000000269,-3.555042272462376474
0.429000000000000270,-3.545438849048353713
0.430000000000000271,-3.536188251000365934
0.431000000000000272,-3.527282644978204651
0.432000000000000273,-3.518714035761886461
0.433000000000000274,-3.510474281111976236
0.434000000000000274,-3.502555106194128687
0.435000000000000275,-3.494948117569359081
0.436000000000000276,-3.487644816752117016
0.437000000000000277,-3.480636613338668806
0.438000000000000278,-3.473914837708847791
0.439000000000000279,-3.467470753304652931
0.440000000000000280,-3.461295568489552554
0.441000000000000281,-3.455380447992749460
0.442000000000000282,-3.449716523943151092
0.443000000000000282,-3.444294906497806785
0.444000000000000283,-3.439106694070296122
0.445000000000000284,-3.434142983164446772
0.446000000000000285,-3.429394877819233578
0.447000000000000286,-3.424853498670992202
0.448000000000000287,-3.420509991639005598
0.449000000000000288,-3.416355536241096669
0.450000000000000289,-3.412381353545705487
0.451000000000000290,-3.408578713767249635
0.452000000000000290,-3.404938943511727878
0.453000000000000291,-3.401453432679457656
0.454000000000000292,-3.398113641032183274
0.455000000000000293,-3.394911104431661553
0.456000000000000294,-3.391837440757035971
0.457000000000000295,-3.388884355508323232
0.458000000000000296,-3.386043647103336163
0.459000000000000297,-3.383307211875483667
0.460000000000000298,-3.380667048779828487
0.461000000000000298,-3.378115263814807090
0.462000000000000299,-3.375644074167066577
0.463000000000000300,-3.373245812086747897
0.464000000000000301,-3.370912928500639616
0.465000000000000302,-3.368637996370521304
0.466000000000000303,-3.366413713803970698
0.467000000000000304,-3.364232906924905286
0.468000000000000305,-3.362088532511035677
0.469000000000000306,-3.359973680405334839
0.470000000000000306,-3.357881575708655753
0.471000000000000307,-3.355805580760323981
0.472000000000000308,-3.353739196913785747
0.473000000000000309,-3.351676066114001262
0.474000000000000310,-3.349609972283300152
0.475000000000000311,-3.347534842522434495
0.476000000000000312,-3.345444748133239443
0.477000000000000313,-3.343333905469395351
0.478000000000000314,-3.341196676621584150
0.479000000000000314,-3.339027569943300300
0.480000000000000315,-3.336821240423338164
0.481000000000000316,-3.334572489911065585
0.482000000000000317,-3.332276267200247055
0.483000000000000318,-3.329927667977268690
0.484000000000000319,-3.327521934639368961
0.485000000000000320,-3.325054455988409874
0.486000000000000321,-3.322520766805642900
0.487000000000000322,-3.319916547312704580
0.488000000000000322,-3.317237622524025653
0.489000000000000323,-3.314479961495768290
0.490000000000000324,-3.311639676476154648
0.491000000000000325,-3.308713021962044198
0.492000000000000326,-3.305696393666404109
0.493000000000000327,-3.302586327401344501
0.494000000000000328,-3.299379497881057777
0.495000000000000329,-3.296072717449108236
0.496000000000000330,-3.292662934734194913
0.497000000000000330,-3.289147233238620682
0.498000000000000331,-3.285522829863288141
0.499000000000000332,-3.281787073373271912
0.500000000000000333,-3.277937442807637325
0.501000000000000334,-3.273971545837139452
0.502000000000000335,-3.269887117073422278
0.503000000000000336,-3.265682016333082860
0.504000000000000337,-3.261354226859974226
0.505000000000000338,-3.256901853508921363
0.506000000000000338,-3.252323120894003772
0.507000000000000339,-3.247616371504416399
0.508000000000000340,-3.242780063790755118
0.509000000000000341,-3.237812770224682168
0.510000000000000342,-3.232713175334503752
0.511000000000000343,-3.227480073719446896
0.512000000000000344,-3.222112368045039865
0.513000000000000345,-3.216609067022080382
0.514000000000000346,-3.210969283371583938
0.515000000000000346,-3.205192231777847844
0.516000000000000347,-3.199277226831879428
0.517000000000000348,-3.193223680967326228
0.518000000000000349,-3.187031102390725401
0.519000000000000350,-3.180699093008215073
0.520000000000000351,-3.174227346350360079
0.521000000000000352,-3.167615645497005694
0.522000000000000353,-3.160863861003706976
0.523000000000000353,-3.153971948831457262
0.524000000000000354,-3.146939948281228805
0.525000000000000355,-3.139767979934747988
0.526000000000000356,-3.132456243602968371
0.527000000000000357,-3.125005016283573855
0.528000000000000358,-3.117414650128734088
0.529000000000000359,-3.109685570424403078
0.530000000000000360,-3.101818273582216623
0.531000000000000361,-3.093813325145162718
0.532000000000000361,-3.085671357808016602
0.533000000000000362,-3.077393069453502772
0.534000000000000363,-3.068979221205144547
0.535000000000000364,-3.060430635497644047
0.536000000000000365,-3.051748194165610606
0.537000000000000366,-3.042932836551423659
0.538000000000000367,-3.033985557632908225
0.539000000000000368,-3.024907406171585045
0.540000000000000369,-3.015699482881994964
0.541000000000000369,-3.006362938622820558
0.542000000000000370,-2.996898972610226419
0.543000000000000371,-2.987308830654011427
0.544000000000000372,-2.977593803416982432
0.545000000000000373,-2.967755224698009009
0.546000000000000374,-2.957794469739108756
0.547000000000000375,-2.947712953556946847
0.548000000000000376,-2.937512129299079344
0.549000000000000377,-2.927193486625182750
0.550000000000000377,-2.916758550113571324
0.551000000000000378,-2.906208877693178039
0.552000000000000379,-2.895546059101259395
0.553000000000000380,-2.884771714366927142
0.554000000000000381,-2.873887492320661874
0.555000000000000382,-2.862895069129999914
0.556000000000000383,-2.851796146861310000
0.557000000000000384,-2.840592452067957741
0.558000000000000385,-2.829285734404661135
0.559000000000000385,-2.817877765268252066
0.560000000000000386,-2.806370336464730109
0.561000000000000387,-2.794765258902637051
0.562000000000000388,-2.783064361312669988
0.563000000000000389,-2.771269488993556518
0.564000000000000390,-2.759382502584016184
0.565000000000000391,-2.747405276860791279
0.566000000000000392,-2.735339699562602256
0.567000000000000393,-2.723187670239948677
0.568000000000000393,-2.710951099130545661
0.569000000000000394,-2.698631906060310115
0.570000000000000395,-2.686232019369745760
0.571000000000000396,-2.673753374865442289
0.572000000000000397,-2.661197914796680219
0.573000000000000398,-2.648567586856760858
0.574000000000000399,-2.635864343208996541
0.575000000000000400,-2.623090139537055610
0.576000000000000401,-2.610246934119464068
0.577000000000000401,-2.597336686928085836
0.578000000000000402,-2.584361358750228099
0.579000000000000403,-2.571322910334196798
0.580000000000000404,-2.558223301558076646
0.581000000000000405,-2.545064490621368414
0.582000000000000406,-2.531848433259331177
0.583000000000000407,-2.518577081979649357
0.584000000000000408,-2.505252385321250941
0.585000000000000409,-2.491876287134907386
0.586000000000000409,-2.478450725885355865
0.587000000000000410,-2.464977633974712035
0.588000000000000411,-2.451458937086746115
0.589000000000000412,-2.437896553551888612
0.590000000000000413,-2.424292393732520257
0.591000000000000414,-2.410648359428329890
0.592000000000000415,-2.396966343301433433
0.593000000000000416,-2.383248228320888895
0.594000000000000417,-2.369495887226345410
0.595000000000000417,-2.355711182010572280
0.596000000000000418,-2.341895963420385751
0.597000000000000419,-2.328052070475897573
0.598000000000000420,-2.314181330007558657
0.599000000000000421,-2.300285556210838855
0.600000000000000422,-2.286366550218165372
0.601000000000000423,-2.272426099687801404
0.602000000000000424,-2.258465978409402108
0.603000000000000425,-2.244487945925919714
0.604000000000000425,-2.230493747171508723
0.605000000000000426,-2.216485112125195833
0.606000000000000427,-2.202463755479990404
0.607000000000000428,-2.188431376327039324
0.608000000000000429,-2.174389657854731261
0.609000000000000430,-2.160340267062173414
0.610000000000000431,-2.146284854487034544
0.611000000000000432,-2.132225053947216953
0.612000000000000433,-2.118162482296190863
0.613000000000000433,-2.104098739191696321
