# LithiumCobaltOxide-001_BSAI4
# h[nm],U(h)[kJ/mol]
0.149999999999999994,116.880217951450802616
0.150999999999999995,114.681252177051874241
0.151999999999999996,112.451173186264924198
0.152999999999999997,110.189685953433766485
0.153999999999999998,107.925673848943773692
0.154999999999999999,105.689440231467074227
0.156000000000000000,103.502379763571980220
0.157000000000000001,101.375272305016167707
0.158000000000000002,99.310247975476158899
0.159000000000000002,97.303805611850947344
0.160000000000000003,95.349634275822836571
0.161000000000000004,93.440753331695873385
0.162000000000000005,91.570887120483448030
0.163000000000000006,89.735176102156728462
0.164000000000000007,87.930391855880543517
0.165000000000000008,86.154826137223565752
0.166000000000000009,84.407998346848529536
0.167000000000000010,82.690290471703335129
0.168000000000000010,81.002583880931268823
0.169000000000000011,79.345942907066458361
0.170000000000000012,77.721367423474276848
0.171000000000000013,76.129620494794991714
0.172000000000000014,74.571126708416599627
0.173000000000000015,73.045930806493487353
0.174000000000000016,71.553703554854990898
0.175000000000000017,70.093781376429916463
0.176000000000000018,68.665227305765228039
0.177000000000000018,67.266902648812461507
0.178000000000000019,65.897540897260142856
0.179000000000000020,64.555817636478963095
0.180000000000000021,63.240412204662433737
0.181000000000000022,61.950058599718317964
0.182000000000000023,60.683584544303492692
0.183000000000000024,59.439938704903809708
0.184000000000000025,58.218206841494918535
0.185000000000000026,57.017618178485371061
0.186000000000000026,55.837543580314601854
0.187000000000000027,54.677487232146233964
0.188000000000000028,53.537073510725761594
0.189000000000000029,52.416030621042317250
0.190000000000000030,51.314172403536282729
0.191000000000000031,50.231379510811294153
0.192000000000000032,49.167580932958927065
0.193000000000000033,48.122736632286304825
0.194000000000000034,47.096821842534545510
0.195000000000000034,46.089813401878942045
0.196000000000000035,45.101678327353440068
0.197000000000000036,44.132364702700066061
0.198000000000000037,43.181794842075184704
0.199000000000000038,42.249860607342398566
0.200000000000000039,41.336420694777856966
0.201000000000000040,40.441299665323015233
0.202000000000000041,39.564288468204026117
0.203000000000000042,38.705146197906330485
0.204000000000000042,37.863602826343921492
0.205000000000000043,37.039362662990569675
0.206000000000000044,36.232108313383129428
0.207000000000000045,35.441504928700872767
0.208000000000000046,34.667204564296028479
0.209000000000000047,33.908850491624960455
0.210000000000000048,33.166081334813313219
0.211000000000000049,32.438534929143131080
0.212000000000000050,31.725851823367445803
0.213000000000000050,31.027678370436508004
0.214000000000000051,30.343669371622070230
0.215000000000000052,29.673490256965827427
0.216000000000000053,29.016818800383276766
0.217000000000000054,28.373346380645678266
0.218000000000000055,27.742778809935096263
0.219000000000000056,27.124836759867633873
0.220000000000000057,26.519255820988728800
0.221000000000000058,25.925786235973607319
0.222000000000000058,25.344192349327947511
0.223000000000000059,24.774251817507398243
0.224000000000000060,24.215754623272921719
0.225000000000000061,23.668501936984597478
0.226000000000000062,23.132304865603668276
0.227000000000000063,22.606983127603573536
0.228000000000000064,22.092363688947926903
0.229000000000000065,21.588279391921687989
0.230000000000000066,21.094567605030370316
0.231000000000000066,20.611068918517652548
0.232000000000000067,20.137625906389356345
0.233000000000000068,19.674081972245144101
0.234000000000000069,19.220280292772311981
0.235000000000000070,18.776062869495643071
0.236000000000000071,18.341269696340013695
0.237000000000000072,17.915738047773604791
0.238000000000000073,17.499301889776042174
0.239000000000000073,17.091791413626324925
0.240000000000000074,16.693032690529580719
0.241000000000000075,16.302847443398984950
0.242000000000000076,15.921052930669238989
0.243000000000000077,15.547461935828721380
0.244000000000000078,15.181882855406275468
0.245000000000000079,14.824119877416825020
0.246000000000000080,14.473973241741996176
0.247000000000000081,14.131239573576767299
0.248000000000000081,13.795712280894374402
0.249000000000000082,13.467182006848863907
0.250000000000000111,13.145437128129676907
0.251000000000000112,12.830264290488804235
0.252000000000000113,12.521448972959211332
0.253000000000000114,12.218776072660725518
0.254000000000000115,11.922030502528111029
0.255000000000000115,11.630997794784665444
0.256000000000000116,11.345464703509389182
0.257000000000000117,11.065219800195789546
0.258000000000000118,10.790054056766233970
0.259000000000000119,10.519761411077123370
0.260000000000000120,10.254139310520510975
0.261000000000000121,9.992989229890175906
0.262000000000000122,9.736117160228150880
0.263000000000000123,9.483334065897510712
0.264000000000000123,9.234456307633942984
0.265000000000000124,8.989306029810149923
0.266000000000000125,8.747711510599851081
0.267000000000000126,8.509507474151719819
0.268000000000000127,8.274535364275051208
0.269000000000000128,8.042643579499756612
0.270000000000000129,7.813687669701145921
0.271000000000000130,7.587530494776251189
0.272000000000000131,7.364042346123627958
0.273000000000000131,7.143101031912697074
0.274000000000000132,6.924591927333587194
0.275000000000000133,6.708407991194749620
0.276000000000000134,6.494449750384715614
0.277000000000000135,6.282625253838530099
0.278000000000000136,6.072849997748559936
0.279000000000000137,5.865046823836788548
0.280000000000000138,5.659145792562295441
0.281000000000000139,5.455084033174481206
0.282000000000000139,5.252805572542590618
0.283000000000000140,5.052261144695723516
0.284000000000000141,4.853407982996934322
0.285000000000000142,4.656209596851627275
0.286000000000000143,4.460635534815552639
0.287000000000000144,4.266661135923128789
0.288000000000000145,4.074267271002938173
0.289000000000000146,3.883440075687065729
0.290000000000000147,3.694170676753141258
0.291000000000000147,3.506454913366423565
0.292000000000000148,3.320293054712405656
0.293000000000000149,3.135689515431452801
0.294000000000000150,2.952652570184876701
0.295000000000000151,2.771194068598783922
0.296000000000000152,2.591329151747839621
0.297000000000000153,2.413075971257097496
0.298000000000000154,2.236455412015984301
0.299000000000000155,2.061490819415930265
0.300000000000000155,1.888207731941537570
0.301000000000000156,1.716633619865765237
0.302000000000000157,1.546797630721667982
0.303000000000000158,1.378730342148603016
0.304000000000000159,1.212463522638037805
0.305000000000000160,1.048029900634659395
0.306000000000000161,0.885462942381952112
0.307000000000000162,0.724796638837833074
0.308000000000000163,0.566065301925986364
0.309000000000000163,0.409303370331506489
0.310000000000000164,0.254545224995923747
0.311000000000000165,0.101825014416498799
0.312000000000000166,-0.048823510192265718
0.313000000000000167,-0.197367149860547791
0.314000000000000168,-0.343773402974601960
0.315000000000000169,-0.488010600600844668
0.316000000000000170,-0.630048032120089974
0.317000000000000171,-0.769856061300375871
0.318000000000000171,-0.907406232965001225
0.319000000000000172,-1.042671370438103873
0.320000000000000173,-1.175625663972427404
0.321000000000000174,-1.306244750384340847
0.322000000000000175,-1.434505784138830009
0.323000000000000176,-1.560387500142473849
0.324000000000000177,-1.683870268515651247
0.325000000000000178,-1.804936141626180213
0.326000000000000179,-1.923568893675914326
0.327000000000000179,-2.039754053138756351
0.328000000000000180,-2.153478928354402022
0.329000000000000181,-2.264732626585900466
0.330000000000000182,-2.373506066851487795
0.331000000000000183,-2.479791986842468710
0.332000000000000184,-2.583584944238435988
0.333000000000000185,-2.684881312729907155
0.334000000000000186,-2.783679273056001158
0.335000000000000187,-2.879978799361323283
0.336000000000000187,-2.973781641172102752
0.337000000000000188,-3.065091301286246850
0.338000000000000189,-3.153913009866641470
0.339000000000000190,-3.240253695020359537
0.340000000000000191,-3.324121950139476755
0.341000000000000192,-3.405527998272057211
0.342000000000000193,-3.484483653783803536
0.343000000000000194,-3.561002281562927863
0.344000000000000195,-3.635098754012052957
0.345000000000000195,-3.706789406062755976
0.346000000000000196,-3.776091988439066682
0.347000000000000197,-3.843025619387538061
0.348000000000000198,-3.907610735082343467
0.349000000000000199,-3.969869038904780378
0.350000000000000200,-4.029823449787438783
0.351000000000000201,-4.087498049804207056
0.352000000000000202,-4.142918031178219884
0.353000000000000203,-4.196109642870959000
0.354000000000000203,-4.247100136906901469
0.355000000000000204,-4.295917714579231550
0.356000000000000205,-4.342591472673769992
0.357000000000000206,-4.387151349839942149
0.358000000000000207,-4.429628073228987439
0.359000000000000208,-4.470053105512183045
0.360000000000000209,-4.508458592383722596
0.361000000000000210,-4.544877310645279778
0.362000000000000210,-4.579342616962226664
0.363000000000000211,-4.611888397374094950
0.364000000000000212,-4.642549017635237973
0.365000000000000213,-4.671359274454808919
0.366000000000000214,-4.698354347699061684
0.367000000000000215,-4.723569753612602007
0.368000000000000216,-4.747041299109660883
0.369000000000000217,-4.768805037180475992
0.370000000000000218,-4.788897223452917018
0.371000000000000218,-4.807354273943984069
0.372000000000000219,-4.824212724031240462
0.373000000000000220,-4.839509188669504525
0.374000000000000221,-4.853280323873653046
0.375000000000000222,-4.865562789484306094
0.376000000000000223,-4.876393213229368584
0.377000000000000224,-4.885808156090398313
0.378000000000000225,-4.893844078979595835
0.379000000000000226,-4.900537310729653484
0.380000000000000226,-4.905924017395970615
0.381000000000000227,-4.910040172867464747
0.382000000000000228,-4.912921530779937207
0.383000000000000229,-4.914603597723189665
0.384000000000000230,-4.915121607730862152
0.385000000000000231,-4.914510498039952324
0.386000000000000232,-4.912804886104781943
0.387000000000000233,-4.910039047848633764
0.388000000000000234,-4.906246897134365348
0.389000000000000234,-4.901461966434138340
0.390000000000000235,-4.895717388676653847
0.391000000000000236,-4.889045880249455855
0.392000000000000237,-4.881479725132462200
0.393000000000000238,-4.873050760138128545
0.394000000000000239,-4.863790361232636528
0.395000000000000240,-4.853729430911910114
0.396000000000000241,-4.842898386605511085
0.397000000000000242,-4.831327150080944932
0.398000000000000242,-4.819045137820586966
0.399000000000000243,-4.806081252342881527
0.400000000000000244,-4.792463874439349958
0.401000000000000245,-4.778220856298778685
0.402000000000000246,-4.763379515489631011
0.403000000000000247,-4.747966629771915414
0.404000000000000248,-4.732008432709648105
0.405000000000000249,-4.715530610055099103
0.406000000000000250,-4.698558296876178986
0.407000000000000250,-4.681116075398532139
0.408000000000000251,-4.663227973534039172
0.409000000000000252,-4.644917464067836121
0.410000000000000253,-4.626207464476119746
0.411000000000000254,-4.607120337347508254
0.412000000000000255,-4.587677891380949724
0.413000000000000256,-4.567901382933797549
0.414000000000000257,-4.547811518093838323
0.415000000000000258,-4.527428455249809858
0.416000000000000258,-4.506771808135200175
0.417000000000000259,-4.485860649320784432
0.418000000000000260,-4.464713514131804395
0.419000000000000261,-4.443348404966246612
0.420000000000000262,-4.421782795991227921
0.421000000000000263,-4.400033638195138153
0.422000000000000264,-4.378117364773563835
0.423000000000000265,-4.356049896827836498
0.424000000000000266,-4.333846649355511893
0.425000000000000266,-4.311522537512589182
0.426000000000000267,-4.289091983128118457
0.427000000000000268,-4.266568921452146945
0.428000000000000269,-4.243966808118765144
0.429000000000000270,-4.221298626306527524
0.430000000000000271,-4.198576894079048216
0.431000000000000272,-4.175813671889294199
0.432000000000000273,-4.153020570231533704
0.433000000000000274,-4.130208757425597454
0.434000000000000274,-4.107388967518579292
0.435000000000000275,-4.084571508289722708
0.436000000000000276,-4.061766269344799341
0.437000000000000277,-4.038982730286766909
0.438000000000000278,-4.016229968950099760
0.439000000000000279,-3.993516669686735465
0.440000000000000280,-3.970851131691942815
0.441000000000000281,-3.948241277359132884
0.442000000000000282,-3.925694660653034962
0.443000000000000282,-3.903218475491067263
0.444000000000000283,-3.880819564123389576
0.445000000000000284,-3.858504425502446544
0.446000000000000285,-3.836279223633255242
0.447000000000000286,-3.814149795896377704
0.448000000000000287,-3.792121661335505767
0.449000000000000288,-3.770200028902510603
0.450000000000000289,-3.748389805652805329
0.451000000000000290,-3.726695604884511681
0.452000000000000290,-3.705121754215249918
0.453000000000000291,-3.683672303590653119
0.454000000000000292,-3.662351033219226615
0.455000000000000293,-3.641161461428397139
0.456000000000000294,-3.620106852436987932
0.457000000000000295,-3.599190224039718888
0.458000000000000296,-3.578414355199539099
0.459000000000000297,-3.557781793544074755
0.460000000000000298,-3.537294862762582426
0.461000000000000298,-3.516955669900240000
0.462000000000000299,-3.496766112546803473
0.463000000000000300,-3.476727885916906846
0.464000000000000301,-3.456842489819625719
0.465000000000000302,-3.437111235515070806
0.466000000000000303,-3.417535252456058714
0.467000000000000304,-3.398115494913153789
0.468000000000000305,-3.378852748481521395
0.469000000000000306,-3.359747636468323861
0.470000000000000306,-3.340800626159551534
0.471000000000000307,-3.322012034965289295
0.472000000000000308,-3.303382036442792380
0.473000000000000309,-3.284910666196700468
0.474000000000000310,-3.266597827656046782
0.475000000000000311,-3.248443297727742873
0.476000000000000312,-3.230446732326551107
0.477000000000000313,-3.212607671781442242
0.478000000000000314,-3.194925546118597914
0.479000000000000314,-3.177399680221359546
0.480000000000000315,-3.160029298867465197
0.481000000000000316,-3.142813531644205405
0.482000000000000317,-3.125751417742031801
0.483000000000000318,-3.108841910627452076
0.484000000000000319,-3.092083882595952904
0.485000000000000320,-3.075476129205938935
0.486000000000000321,-3.059017373594656419
0.487000000000000322,-3.042706270677197011
0.488000000000000322,-3.026541411229678236
0.489000000000000323,-3.010521325857940855
0.490000000000000324,-2.994644488852901354
0.491000000000000325,-2.978909321934025911
0.492000000000000326,-2.963314197882190637
0.493000000000000327,-2.947857444063514798
0.494000000000000328,-2.932537345845515731
0.495000000000000329,-2.917352149907221026
0.496000000000000330,-2.902300067444704812
0.497000000000000330,-2.887379277273776523
0.498000000000000331,-2.872587928831261017
0.499000000000000332,-2.857924145076740530
0.500000000000000333,-2.843386025296276820
0.501000000000000334,-2.828971647809848555
0.502000000000000335,-2.814679072584280295
0.503000000000000336,-2.800506343753315086
0.504000000000000337,-2.786451492046625678
0.505000000000000338,-2.772512537129474985
0.506000000000000338,-2.758687489854831032
0.507000000000000339,-2.744974354429659869
0.508000000000000340,-2.731371130497153743
0.509000000000000341,-2.717875815136752582
0.510000000000000342,-2.704486404783575715
0.511000000000000343,-2.691200897069174758
0.512000000000000344,-2.678017292585242792
0.513000000000000345,-2.664933596572109042
0.514000000000000346,-2.651947820533755440
0.515000000000000346,-2.639057983781037287
0.516000000000000347,-2.626262114904860390
0.517000000000000348,-2.613558253181079483
0.518000000000000349,-2.600944449908682898
0.519000000000000350,-2.588418769683098919
0.520000000000000351,-2.575979291606150134
0.521000000000000352,-2.563624110434438386
0.522000000000000353,-2.551351337667664865
0.523000000000000353,-2.539159102578594673
0.524000000000000354,-2.527045553186224591
0.525000000000000355,-2.515008857173727908
0.526000000000000356,-2.503047202752714639
0.527000000000000357,-2.491158799475420516
0.528000000000000358,-2.479341878996202286
0.529000000000000359,-2.467594695783984271
0.530000000000000360,-2.455915527786982633
0.531000000000000361,-2.444302677051267469
0.532000000000000361,-2.432754470294502536
0.533000000000000362,-2.421269259436320542
0.534000000000000363,-2.409845422086663191
0.535000000000000364,-2.398481361993478167
0.536000000000000365,-2.387175509451056499
0.537000000000000366,-2.375926321670378094
0.538000000000000367,-2.364732283112635614
0.539000000000000368,-2.353591905787351113
0.540000000000000369,-2.342503729516130839
0.541000000000000369,-2.331466322163445959
0.542000000000000370,-2.320478279835444635
0.543000000000000371,-2.309538227048108183
0.544000000000000372,-2.298644816865770490
0.545000000000000373,-2.287796731011184637
0.546000000000000374,-2.276992679948160792
0.547000000000000375,-2.266231402937866513
0.548000000000000376,-2.255511668069840603
0.549000000000000377,-2.244832272268694862
0.550000000000000377,-2.234192041277517582
0.551000000000000378,-2.223589829618918934
0.552000000000000379,-2.213024520534714323
0.553000000000000380,-2.202495025905088166
0.554000000000000381,-2.192000286148179988
0.555000000000000382,-2.181539270101004124
0.556000000000000383,-2.171110974882423328
0.557000000000000384,-2.160714425739191036
0.558000000000000385,-2.150348675875680904
0.559000000000000385,-2.140012806268240642
0.560000000000000386,-2.129705925464844718
0.561000000000000387,-2.119427169370825759
0.562000000000000388,-2.109175701021392957
0.563000000000000389,-2.098950710341660475
0.564000000000000390,-2.088751413894850195
0.565000000000000391,-2.078577054619334952
0.566000000000000392,-2.068426901555167063
0.567000000000000393,-2.058300249560748085
0.568000000000000393,-2.048196419020175796
0.569000000000000394,-2.038114755541924339
0.570000000000000395,-2.028054629649416629
0.571000000000000396,-2.018015436463978851
0.572000000000000397,-2.007996595380820981
0.573000000000000398,-1.997997549738449674
0.574000000000000399,-1.988017766482102378
0.575000000000000400,-1.978056735821631662
0.576000000000000401,-1.968113970884312725
0.577000000000000401,-1.958189007363100753
0.578000000000000402,-1.948281403160652347
0.579000000000000403,-1.938390738029617921
0.580000000000000404,-1.928516613209633634
0.581000000000000405,-1.918658651061303289
0.582000000000000406,-1.908816494697668009
0.583000000000000407,-1.898989807613431280
0.584000000000000408,-1.889178273312367651
0.585000000000000409,-1.879381594933207111
0.586000000000000409,-1.869599494874314871
0.587000000000000410,-1.859831714417553572
0.588000000000000411,-1.850078013351506012
0.589000000000000412,-1.840338169594483375
0.590000000000000413,-1.830611978817476837
0.591000000000000414,-1.820899254067411821
0.592000000000000415,-1.811199825390900742
0.593000000000000416,-1.801513539458760249
0.594000000000000417,-1.791840259191519014
0.595000000000000417,-1.782179863386186280
0.596000000000000418,-1.772532246344380225
0.597000000000000419,-1.762897317502179373
0.598000000000000420,-1.753275001061728844
0.599000000000000421,-1.743665235624928034
0.600000000000000422,-1.734067973829274134
0.601000000000000423,-1.724483181986071312
0.602000000000000424,-1.714910839721182523
0.603000000000000425,-1.705350939618440975
0.604000000000000425,-1.695803486865862464
0.605000000000000426,-1.686268498904832214
0.606000000000000427,-1.676746005082382140
0.607000000000000428,-1.667236046306599828
0.608000000000000429,-1.657738674705461879
0.609000000000000430,-1.648253953288967066
0.610000000000000431,-1.638781955614895036
0.611000000000000432,-1.629322765458112388
0.612000000000000433,-1.619876476483597560
0.613000000000000433,-1.610443191923268458
