# LithiumCobaltOxide-001_TYR-AC
# h[nm],U(h)[kJ/mol]
0.149999999999999994,158.140993400604713770
0.150999999999999995,155.181172844020863977
0.151999999999999996,151.795754890377054380
0.152999999999999997,148.377596795919288297
0.153999999999999998,145.075833730317015124
0.154999999999999999,141.919803672531372740
0.156000000000000000,138.888727503647345429
0.157000000000000001,135.948290781248260828
0.158000000000000002,133.067740864305790183
0.159000000000000002,130.226081199558905155
0.160000000000000003,127.412627744123142293
0.161000000000000004,124.625041388111782226
0.162000000000000005,121.866583267240997657
0.163000000000000006,119.143493784873001573
0.164000000000000007,116.462890883915036966
0.165000000000000008,113.831296565177808588
0.166000000000000009,111.253751073881602451
0.167000000000000010,108.733407557121196874
0.168000000000000010,106.271481270642397021
0.169000000000000011,103.867434328069975891
0.170000000000000012,101.519295829983747126
0.171000000000000013,99.224039887944400107
0.172000000000000014,96.977966089133445848
0.173000000000000015,94.777046118535025698
0.174000000000000016,92.617215728314036483
0.175000000000000017,90.494602966661062737
0.176000000000000018,88.405691912943268562
0.177000000000000018,86.347426656265696465
0.178000000000000019,84.317263488122577542
0.179000000000000020,82.313180811601171172
0.180000000000000021,80.333656584083101393
0.181000000000000022,78.377622607743731464
0.182000000000000023,76.444403978279666489
0.183000000000000024,74.533650736272448967
0.184000000000000025,72.645267410576295219
0.185000000000000026,70.779344818131519901
0.186000000000000026,68.936097265930996514
0.187000000000000027,67.115807232162055129
0.188000000000000028,65.318778704496395449
0.189000000000000029,63.545299626899904410
0.190000000000000030,61.795613343703301723
0.191000000000000031,60.069898515592832666
0.192000000000000032,58.368256697516947895
0.193000000000000033,56.690706592738351333
0.194000000000000034,55.037183910106101337
0.195000000000000034,53.407545734060342113
0.196000000000000035,51.801578351798966082
0.197000000000000036,50.219007554536993609
0.198000000000000037,48.659510527280914971
0.199000000000000038,47.122728553683430164
0.200000000000000039,45.608279881092080643
0.201000000000000040,44.115772209486706856
0.202000000000000041,42.644814381891080757
0.203000000000000042,41.195026959711718462
0.204000000000000042,39.766051462122547377
0.205000000000000043,38.357558132847351828
0.206000000000000044,36.969252169984628154
0.207000000000000045,35.600878414945455575
0.208000000000000046,34.252224545611376527
0.209000000000000047,32.923122857241281736
0.210000000000000048,31.613450743426760425
0.211000000000000049,30.323130009585678835
0.212000000000000050,29.052125164204007035
0.213000000000000050,27.800440839399591653
0.214000000000000051,26.568118493446469586
0.215000000000000052,25.355232544668773187
0.216000000000000053,24.161886079500948910
0.217000000000000054,22.988206268335908078
0.218000000000000055,21.834339611770513301
0.219000000000000056,20.700447127634287625
0.220000000000000057,19.586699576280448554
0.221000000000000058,18.493272808481599156
0.222000000000000058,17.420343307252672105
0.223000000000000059,16.368083982323831549
0.224000000000000060,15.336660264014534860
0.225000000000000061,14.326226532087328991
0.226000000000000062,13.336922904895967434
0.227000000000000063,12.368872404857530256
0.228000000000000064,11.422178508009301012
0.229000000000000065,10.496923078158138409
0.230000000000000066,9.593164679882601575
0.231000000000000066,8.710937259360843399
0.232000000000000067,7.850249177627487640
0.233000000000000068,7.011082577343733746
0.234000000000000069,6.193393061433268620
0.235000000000000070,5.397109659918647218
0.236000000000000071,4.622135059917321875
0.237000000000000072,3.868346072947551395
0.238000000000000073,3.135594313384004739
0.239000000000000073,2.423707062021474012
0.240000000000000074,1.732488289183901298
0.241000000000000075,1.061719812601286561
0.242000000000000076,0.411162566306535193
0.243000000000000077,-0.219442041970851764
0.244000000000000078,-0.830370706062840247
0.245000000000000079,-1.421916748940163400
0.246000000000000080,-1.994388620723381633
0.247000000000000081,-2.548108383652395670
0.248000000000000081,-3.083410198936182844
0.249000000000000082,-3.600638828815115655
0.250000000000000111,-4.100148165611253503
0.251000000000000112,-4.582299798032598126
0.252000000000000113,-5.047461623551575016
0.253000000000000114,-5.496006514300924017
0.254000000000000115,-5.928311042636829953
0.255000000000000115,-6.344754271307350812
0.256000000000000116,-6.745716612043675120
0.257000000000000117,-7.131578755360694188
0.258000000000000118,-7.502720673412847319
0.259000000000000119,-7.859520696901671322
0.260000000000000120,-8.202354666269870975
0.261000000000000121,-8.531595156739685493
0.262000000000000122,-8.847610776159715584
0.263000000000000123,-9.150765534107403454
0.264000000000000123,-9.441418280252587891
0.265000000000000124,-9.719922209613558906
0.266000000000000125,-9.986624432028911258
0.267000000000000126,-10.241865602918419853
0.268000000000000127,-10.485979612212622314
0.269000000000000128,-10.719293328185154124
0.270000000000000129,-10.942126392823107395
0.271000000000000130,-11.154791065311787435
0.272000000000000131,-11.357592110187614054
0.273000000000000131,-11.550826726722394966
0.274000000000000132,-11.734784516139946220
0.275000000000000133,-11.909747483327816298
0.276000000000000134,-12.075990069790012882
0.277000000000000135,-12.233779214686366643
0.278000000000000136,-12.383374440920002613
0.279000000000000137,-12.525027963360695793
0.280000000000000138,-12.658984816428267450
0.281000000000000139,-12.785482998403583821
0.282000000000000139,-12.904753629982725016
0.283000000000000140,-13.017021124741750882
0.284000000000000141,-13.122503369331919743
0.285000000000000142,-13.221411911378813997
0.286000000000000143,-13.313952153210436791
0.287000000000000144,-13.400323549688636149
0.288000000000000145,-13.480719808565435613
0.289000000000000146,-13.555329091927063700
0.290000000000000147,-13.624334217427222171
0.291000000000000147,-13.687912858142677663
0.292000000000000148,-13.746237740011835626
0.293000000000000149,-13.799476835937145580
0.294000000000000150,-13.847793555747021088
0.295000000000000151,-13.891346931321393754
0.296000000000000152,-13.930291796286109474
0.297000000000000153,-13.964778959777277123
0.298000000000000154,-13.994955373864840453
0.299000000000000155,-14.020964294307310283
0.300000000000000155,-14.042945434385490699
0.301000000000000156,-14.061035111632687489
0.302000000000000157,-14.075366387343319019
0.303000000000000158,-14.086069198799332725
0.304000000000000159,-14.093270484207090831
0.305000000000000160,-14.097094300384089394
0.306000000000000161,-14.097661933277553459
0.307000000000000162,-14.095092001434244011
0.308000000000000163,-14.089500552573676728
0.309000000000000163,-14.081001153445621199
0.310000000000000164,-14.069704973177536544
0.311000000000000165,-14.055720860338144718
0.312000000000000166,-14.039155413961196928
0.313000000000000167,-14.020113048787274934
0.314000000000000168,-13.998696054992809223
0.315000000000000169,-13.975004652683921336
0.316000000000000170,-13.949137041438735451
0.317000000000000171,-13.921189445185197187
0.318000000000000171,-13.891256152703087778
0.319000000000000172,-13.859429554038792176
0.320000000000000173,-13.825800173119025871
0.321000000000000174,-13.790456696846552731
0.322000000000000175,-13.753486000955714275
0.323000000000000176,-13.714973172900082332
0.324000000000000177,-13.675001532037038388
0.325000000000000178,-13.633652647366446331
0.326000000000000179,-13.591006353072060620
0.327000000000000179,-13.547140762104822542
0.328000000000000180,-13.502132278037430879
0.329000000000000181,-13.456055605409986242
0.330000000000000182,-13.408983758775045558
0.331000000000000183,-13.360988070640965830
0.332000000000000184,-13.312138198500482744
0.333000000000000185,-13.262502131121499005
0.334000000000000186,-13.212146194265651289
0.335000000000000187,-13.161135055989609199
0.336000000000000187,-13.109531731673621735
0.337000000000000188,-13.057397588910628627
0.338000000000000189,-13.004792352379812570
0.339000000000000190,-12.951774108817707187
0.340000000000000191,-12.898399312190306887
0.341000000000000192,-12.844722789160508469
0.342000000000000193,-12.790797744935208158
0.343000000000000194,-12.736675769568474692
0.344000000000000195,-12.682406844787635691
0.345000000000000195,-12.628039351401980639
0.346000000000000196,-12.573620077345104562
0.347000000000000197,-12.519194226395036651
0.348000000000000198,-12.464805427609016775
0.349000000000000199,-12.410495745503101972
0.350000000000000200,-12.356305691000605051
0.351000000000000201,-12.302274233167292294
0.352000000000000202,-12.248438811745685939
0.353000000000000203,-12.194835350495949911
0.354000000000000203,-12.141498271345454896
0.355000000000000204,-12.088460509345056337
0.356000000000000205,-12.035753528425811254
0.357000000000000206,-11.983407337946060167
0.358000000000000207,-11.931450510015208621
0.359000000000000208,-11.879910197577414621
0.360000000000000209,-11.828812153235645610
0.361000000000000210,-11.778180748793527499
0.362000000000000210,-11.728038995490596363
0.363000000000000211,-11.678408564904028566
0.364000000000000212,-11.629309810488413390
0.365000000000000213,-11.580761789723336364
0.366000000000000214,-11.532782286837313990
0.367000000000000215,-11.485387836075270585
0.368000000000000216,-11.438593745476181240
0.369000000000000217,-11.392414121126154924
0.370000000000000218,-11.346861891852292104
0.371000000000000218,-11.301948834321658310
0.372000000000000219,-11.257685598509855396
0.373000000000000220,-11.214081733503402205
0.374000000000000221,-11.171145713600115101
0.375000000000000222,-11.128884964671778235
0.376000000000000223,-11.087305890753990312
0.377000000000000224,-11.046413900827863230
0.378000000000000225,-11.006213435759288899
0.379000000000000226,-10.966707995361534955
0.380000000000000226,-10.927900165548056322
0.381000000000000227,-10.889791645542585385
0.382000000000000228,-10.852383275114739547
0.383000000000000229,-10.815675061810079427
0.384000000000000230,-10.779666208144178086
0.385000000000000231,-10.744355138731730648
0.386000000000000232,-10.709739527322025054
0.387000000000000233,-10.675816323713656075
0.388000000000000234,-10.642581780521897628
0.389000000000000234,-10.610031479773709862
0.390000000000000235,-10.578160359305766036
0.391000000000000236,-10.546962738942642801
0.392000000000000237,-10.516432346432765144
0.393000000000000238,-10.486562343121253349
0.394000000000000239,-10.457345349339622231
0.395000000000000240,-10.428773469493405557
0.396000000000000241,-10.400838316830023800
0.397000000000000242,-10.373531037869984317
0.398000000000000242,-10.346842336485883251
0.399000000000000243,-10.320762497614387243
0.400000000000000244,-10.295281410587707072
0.401000000000000245,-10.270388592071910239
0.402000000000000246,-10.246073208600391169
0.403000000000000247,-10.222324098691945693
0.404000000000000248,-10.199129794543633665
0.405000000000000249,-10.176478543289821488
0.406000000000000250,-10.154358327819320351
0.407000000000000250,-10.132756887143834490
0.408000000000000251,-10.111661736311432946
0.409000000000000252,-10.091060185859854315
0.410000000000000253,-10.070939360805024165
0.411000000000000254,-10.051286219161143620
0.412000000000000255,-10.032087569989279530
0.413000000000000256,-10.013330090972319297
0.414000000000000257,-9.995000345514499784
0.415000000000000258,-9.977084799364856593
0.416000000000000258,-9.959569836764080364
0.417000000000000259,-9.942441776115284569
0.418000000000000260,-9.925686885179500152
0.419000000000000261,-9.909291395797387381
0.420000000000000262,-9.893241518139173962
0.421000000000000263,-9.877523454485382715
0.422000000000000264,-9.862123412541084377
0.423000000000000265,-9.847027618287397033
0.424000000000000266,-9.832222328373898534
0.425000000000000266,-9.817693842056216980
0.426000000000000267,-9.803428512683415974
0.427000000000000268,-9.789412758740230203
0.428000000000000269,-9.775633074449329385
0.429000000000000270,-9.762076039939271865
0.430000000000000271,-9.748728330984061330
0.431000000000000272,-9.735576728320435080
0.432000000000000273,-9.722608126549221907
0.433000000000000274,-9.709809542627541035
0.434000000000000274,-9.697168123958482155
0.435000000000000275,-9.684671156085363108
0.436000000000000276,-9.672306069997818057
0.437000000000000277,-9.660060449056825149
0.438000000000000278,-9.647922035546331543
0.439000000000000279,-9.635878736858961346
0.440000000000000280,-9.623918631323453710
0.441000000000000281,-9.612029973681620376
0.442000000000000282,-9.600201200222709730
0.443000000000000282,-9.588420933582881389
0.444000000000000283,-9.576677987217999899
0.445000000000000284,-9.564961369557423154
0.446000000000000285,-9.553260287846956800
0.447000000000000286,-9.541564151688978868
0.448000000000000287,-9.529862576287538189
0.449000000000000288,-9.518145385406688419
0.450000000000000289,-9.506402614049759947
0.451000000000000290,-9.494624510867678779
0.452000000000000290,-9.482801540304137689
0.453000000000000291,-9.470924384485515546
0.454000000000000292,-9.458983944863287974
0.455000000000000293,-9.446971343616720418
0.456000000000000294,-9.434877924823450002
0.457000000000000295,-9.422695255405603376
0.458000000000000296,-9.410415125858902385
0.459000000000000297,-9.398029550772220020
0.460000000000000298,-9.385530769144931895
0.461000000000000298,-9.372911244509243289
0.462000000000000299,-9.360163664864710853
0.463000000000000300,-9.347280942431899220
0.464000000000000301,-9.334256213232215771
0.465000000000000302,-9.321082836500632851
0.466000000000000303,-9.307754393938067139
0.467000000000000304,-9.294264688810020658
0.468000000000000305,-9.280607744897867661
0.469000000000000306,-9.266777805309219573
0.470000000000000306,-9.252769331153626098
0.471000000000000307,-9.238577000089568614
0.472000000000000308,-9.224195704748909819
0.473000000000000309,-9.209620551044540804
0.474000000000000310,-9.194846856366970300
0.475000000000000311,-9.179870147675492476
0.476000000000000312,-9.164686159489379591
0.477000000000000313,-9.149290831784465894
0.478000000000000314,-9.133680307800286613
0.479000000000000314,-9.117850931762973232
0.480000000000000315,-9.101799246528694098
0.481000000000000316,-9.085521991152688770
0.482000000000000317,-9.069016098388397396
0.483000000000000318,-9.052278692121413783
0.484000000000000319,-9.035307084742637329
0.485000000000000320,-9.018098774464979428
0.486000000000000321,-9.000651442587868090
0.487000000000000322,-8.982962950713567096
0.488000000000000322,-8.965031337919278087
0.489000000000000323,-8.946854817888977962
0.490000000000000324,-8.928431776008583398
0.491000000000000325,-8.909760766428110657
0.492000000000000326,-8.890840509094321220
0.493000000000000327,-8.871669886757246104
0.494000000000000328,-8.852247941953788057
0.495000000000000329,-8.832573873971695022
0.496000000000000330,-8.812647035796739914
0.497000000000000330,-8.792466931046313050
0.498000000000000331,-8.772033210891972743
0.499000000000000332,-8.751345670973947222
0.500000000000000333,-8.730404248310048132
0.501000000000000334,-8.709209018201551800
0.502000000000000335,-8.687760191138556465
0.503000000000000336,-8.666058109707062584
0.504000000000000337,-8.644103245500080135
0.505000000000000338,-8.621896196034850135
0.506000000000000338,-8.599437681678306689
0.507000000000000339,-8.576728542582715775
0.508000000000000340,-8.553769735633341753
0.509000000000000341,-8.530562331410060040
0.510000000000000342,-8.507107511164468505
0.511000000000000343,-8.483406563814302359
0.512000000000000344,-8.459460882956566508
0.513000000000000345,-8.435271963900964565
0.514000000000000346,-8.410841400725068695
0.515000000000000346,-8.386170883352406236
0.516000000000000347,-8.361262194654873525
0.517000000000000348,-8.336117207580700850
0.518000000000000349,-8.310737882308902869
0.519000000000000350,-8.285126263431543236
0.520000000000000351,-8.259284477164586136
0.521000000000000352,-8.233214728588452047
0.522000000000000353,-8.206919298919046923
0.523000000000000353,-8.180400542810108533
0.524000000000000354,-8.153660885687749271
0.525000000000000355,-8.126702821117714137
0.526000000000000356,-8.099528908206192312
0.527000000000000357,-8.072141769034718806
0.528000000000000358,-8.044544086129725713
0.529000000000000359,-8.016738599967267120
0.530000000000000360,-7.988728106513397265
0.531000000000000361,-7.960515454800608737
0.532000000000000361,-7.932103544540742845
0.533000000000000362,-7.903495323774660797
0.534000000000000363,-7.874693786559015862
0.535000000000000364,-7.845701970690396543
0.536000000000000365,-7.816522955466995271
0.537000000000000366,-7.787159859488123281
0.538000000000000367,-7.757615838491520144
0.539000000000000368,-7.727894083228846966
0.540000000000000369,-7.697997817379151009
0.541000000000000369,-7.667930295500670290
0.542000000000000370,-7.637694801020712632
0.543000000000000371,-7.607294644263829397
0.544000000000000372,-7.576733160518149823
0.545000000000000373,-7.546013708139861720
0.546000000000000374,-7.515139666695722198
0.547000000000000375,-7.484114435143530031
0.548000000000000376,-7.452941430050458393
0.549000000000000377,-7.421624083849058806
0.550000000000000377,-7.390165843130755086
0.551000000000000378,-7.358570166976702964
0.552000000000000379,-7.326840525325799547
0.553000000000000380,-7.294980397379562831
0.554000000000000381,-7.262993270043660132
0.555000000000000382,-7.230882636405979724
0.556000000000000383,-7.198651994250665709
0.557000000000000384,-7.166304844608175628
0.558000000000000385,-7.133844690340799488
0.559000000000000385,-7.101275034763491867
0.560000000000000386,-7.068599380299607660
0.561000000000000387,-7.035821227171270564
0.562000000000000388,-7.002944072123928443
0.563000000000000389,-6.969971407184925916
0.564000000000000390,-6.936906718455480458
0.565000000000000391,-6.903753484935938545
0.566000000000000392,-6.870515177383754057
0.567000000000000393,-6.837195257203911858
0.568000000000000393,-6.803797175371331996
0.569000000000000394,-6.770324371384859319
0.570000000000000395,-6.736780272252548052
0.571000000000000396,-6.703168291507611620
0.572000000000000397,-6.669491828254875188
0.573000000000000398,-6.635754266247083422
0.574000000000000399,-6.601958972990829011
0.575000000000000400,-6.568109298881518399
0.576000000000000401,-6.534208576367046994
0.577000000000000401,-6.500260119139765536
0.578000000000000402,-6.466267221356183370
0.579000000000000403,-6.432233156884078262
0.580000000000000404,-6.398161178576617480
0.581000000000000405,-6.364054517572862224
0.582000000000000406,-6.329916382624462656
0.583000000000000407,-6.295749959447869415
0.584000000000000408,-6.261558410101845773
0.585000000000000409,-6.227344872389656061
0.586000000000000409,-6.193112459285575966
0.587000000000000410,-6.158864258385354340
0.588000000000000411,-6.124603331380010118
0.589000000000000412,-6.090332713552764510
0.590000000000000413,-6.056055413298424561
0.591000000000000414,-6.021774411665012039
0.592000000000000415,-5.987492661917102055
0.593000000000000416,-5.953213089120397150
0.594000000000000417,-5.918938589747209100
0.595000000000000417,-5.884672031302467410
0.596000000000000418,-5.850416251969583037
0.597000000000000419,-5.816174060276136260
0.598000000000000420,-5.781948234778606199
0.599000000000000421,-5.747741523766004335
0.600000000000000422,-5.713556644981841792
0.601000000000000423,-5.679396285364117780
0.602000000000000424,-5.645263100802884182
0.603000000000000425,-5.611159715915041701
0.604000000000000425,-5.577088723835890605
0.605000000000000426,-5.543052686027154508
0.606000000000000427,-5.509054132101061541
0.607000000000000428,-5.475095559659973077
0.608000000000000429,-5.441179434151480976
0.609000000000000430,-5.407308188738241483
