# LithiumCobaltOxide-001_PYRIDINE-AC
# h[nm],U(h)[kJ/mol]
0.149999999999999994,136.979410356295574047
0.150999999999999995,134.687332918776462520
0.151999999999999996,132.011804778868793164
0.152999999999999997,129.307623779743380510
0.153999999999999998,126.703105090359670726
0.154999999999999999,124.218900243947786066
0.156000000000000000,121.833163390340772025
0.157000000000000001,119.514601327379551776
0.158000000000000002,117.237063809296458317
0.159000000000000002,114.984131256579914293
0.160000000000000003,112.748777024209204001
0.161000000000000004,110.531024184441292846
0.162000000000000005,108.335171803067922269
0.163000000000000006,106.167352638269150589
0.164000000000000007,104.033713445487023819
0.165000000000000008,101.939253740158363826
0.166000000000000009,99.887235155530134989
0.167000000000000010,97.879026990981500944
0.168000000000000010,95.914249528249371224
0.169000000000000011,93.991093739076120528
0.170000000000000012,92.106721317317123976
0.171000000000000013,90.257675320104880257
0.172000000000000014,88.440255383801456901
0.173000000000000015,86.650830913670375821
0.174000000000000016,84.886080492216450466
0.175000000000000017,83.143156335983448457
0.176000000000000018,81.419779589608737069
0.177000000000000018,79.714276311363519767
0.178000000000000019,78.025565886131190041
0.179000000000000020,76.353113927001245997
0.180000000000000021,74.696861015888103452
0.181000000000000022,73.057137297720714741
0.182000000000000023,71.434571291682772198
0.183000000000000024,69.829999539556226296
0.184000000000000025,68.244382026830265886
0.185000000000000026,66.678726782024341446
0.186000000000000026,65.134025736108029037
0.187000000000000027,63.611202828389352248
0.188000000000000028,62.111074477564486074
0.189000000000000029,60.634321882433411588
0.190000000000000030,59.181474153300328567
0.191000000000000031,57.752900975311959542
0.192000000000000032,56.348813340745302014
0.193000000000000033,54.969270831179869674
0.194000000000000034,53.614193957343118768
0.195000000000000034,52.283380151821290838
0.196000000000000035,50.976522138591640498
0.197000000000000036,49.693227557495362134
0.198000000000000037,48.433038888456074744
0.199000000000000038,47.195452889409061470
0.200000000000000039,45.979938925987624998
0.201000000000000040,44.785955724613039308
0.202000000000000041,43.612966220147356466
0.203000000000000042,42.460450292559599461
0.204000000000000042,41.327915293149501963
0.205000000000000043,40.214904349700404396
0.206000000000000044,39.121002512081005875
0.207000000000000045,38.045840856354196546
0.208000000000000046,36.989098707754344275
0.209000000000000047,35.950504172519416102
0.210000000000000048,34.929833187150741480
0.211000000000000049,33.926907302860520588
0.212000000000000050,32.941590424337007903
0.213000000000000050,31.973784717001894506
0.214000000000000051,31.023425887012383129
0.215000000000000052,30.090478024601360119
0.216000000000000053,29.174928185030051253
0.217000000000000054,28.276780863381787867
0.218000000000000055,27.396052500443609290
0.219000000000000056,26.532766137662907369
0.220000000000000057,25.686946320158359214
0.221000000000000058,24.858614328436708263
0.222000000000000058,24.047783802130727082
0.223000000000000059,23.254456802974843299
0.224000000000000060,22.478620349522692834
0.225000000000000061,21.720243442886786767
0.226000000000000062,20.979274591084614343
0.227000000000000063,20.255639829406625552
0.228000000000000064,19.549241225546076350
0.229000000000000065,18.859955850983062930
0.230000000000000066,18.187635194217286028
0.231000000000000066,17.532104986795054913
0.232000000000000067,16.893165409574024238
0.233000000000000068,16.270591644200301573
0.234000000000000069,15.664134733225917984
0.235000000000000070,15.073522711558183573
0.236000000000000071,14.498461971898061407
0.237000000000000072,13.938638827387444863
0.238000000000000073,13.393721235749655563
0.239000000000000073,12.863360650682157171
0.240000000000000074,12.347193968060024005
0.241000000000000075,11.844845536561823707
0.242000000000000076,11.355929204564551682
0.243000000000000077,10.880050377512683113
0.244000000000000078,10.416808062395613632
0.245000000000000079,9.965796878421219418
0.246000000000000080,9.526609015413095349
0.247000000000000081,9.098836123850556845
0.248000000000000081,8.682071122788830309
0.249000000000000082,8.275909914118468436
0.250000000000000111,7.879952993730998223
0.251000000000000112,7.493806952139982158
0.252000000000000113,7.117085858951766042
0.253000000000000114,6.749412527285791441
0.254000000000000115,6.390419655802301868
0.255000000000000115,6.039750847409992573
0.256000000000000116,5.697061504994757719
0.257000000000000117,5.362019605638708164
0.258000000000000118,5.034306355790219456
0.259000000000000119,4.713616730704881519
0.260000000000000120,4.399659902212140317
0.261000000000000121,4.092159559479751074
0.262000000000000122,3.790854127954326636
0.263000000000000123,3.495496892061127348
0.264000000000000123,3.205856027555500365
0.265000000000000124,2.921714549642240311
0.266000000000000125,2.642870183123663175
0.267000000000000126,2.369135160911649773
0.268000000000000127,2.100335957249316099
0.269000000000000128,1.836312961943378230
0.270000000000000129,1.576920101813713115
0.271000000000000130,1.322024415429695177
0.272000000000000131,1.071505587029738749
0.273000000000000131,0.825255445316185332
0.274000000000000132,0.583177432588235067
0.275000000000000133,0.345186049425266483
0.276000000000000134,0.111206279866626304
0.277000000000000135,-0.118826998243984877
0.278000000000000136,-0.344969613368554584
0.279000000000000137,-0.567268706749636253
0.280000000000000138,-0.785763341454050246
0.281000000000000139,-1.000485110482983497
0.282000000000000139,-1.211458740736044648
0.283000000000000140,-1.418702689902615388
0.284000000000000141,-1.622229733632660542
0.285000000000000142,-1.822047540610278960
0.286000000000000143,-2.018159233415143028
0.287000000000000144,-2.210563933308227647
0.288000000000000145,-2.399257287319600529
0.289000000000000146,-2.584231976244122375
0.290000000000000147,-2.765478202368901961
0.291000000000000147,-2.942984155960133741
0.292000000000000148,-3.116736459730011344
0.293000000000000149,-3.286720590683161358
0.294000000000000150,-3.452921278909859559
0.295000000000000151,-3.615322883047667801
0.296000000000000152,-3.773909742275953327
0.297000000000000153,-3.928666504838348228
0.298000000000000154,-4.079578433207600163
0.299000000000000155,-4.226631686115275954
0.300000000000000155,-4.369813577766202606
0.301000000000000156,-4.509112814644457679
0.302000000000000157,-4.644519710395367262
0.303000000000000158,-4.776026379335503336
0.304000000000000159,-4.903626909202263739
0.305000000000000160,-5.027317513805053650
0.306000000000000161,-5.147096666283426103
0.307000000000000162,-5.262965213713128421
0.308000000000000163,-5.374926473829836127
0.309000000000000163,-5.482986314663009786
0.310000000000000164,-5.587153217889028411
0.311000000000000165,-5.687438326723892601
0.312000000000000166,-5.783855479182443915
0.313000000000000167,-5.876421227532565794
0.314000000000000168,-5.965154844770767184
0.315000000000000169,-6.050078318939487332
0.316000000000000170,-6.131216336097200958
0.317000000000000171,-6.208596252740015586
0.318000000000000171,-6.282248058458523410
0.319000000000000172,-6.352204329596563781
0.320000000000000173,-6.418500174659013346
0.321000000000000174,-6.481173172194820253
0.322000000000000175,-6.540263301859035039
0.323000000000000176,-6.595812869333704143
0.324000000000000177,-6.647866425762859244
0.325000000000000178,-6.696470682331034929
0.326000000000000179,-6.741674420588998018
0.327000000000000179,-6.783528399103228246
0.328000000000000180,-6.822085256979166346
0.329000000000000181,-6.857399414781245817
0.330000000000000182,-6.889526973345359018
0.331000000000000183,-6.918525610953130567
0.332000000000000184,-6.944454479310127049
0.333000000000000185,-6.967374098744291366
0.334000000000000186,-6.987346253014817599
0.335000000000000187,-7.004433884096314955
0.336000000000000187,-7.018700987278466918
0.337000000000000188,-7.030212506896826419
0.338000000000000189,-7.039034232987376072
0.339000000000000190,-7.045232699134305498
0.340000000000000191,-7.048875081758360750
0.341000000000000192,-7.050029101072274429
0.342000000000000193,-7.048762923908597600
0.343000000000000194,-7.045145068606323946
0.344000000000000195,-7.039244312123012826
0.345000000000000195,-7.031129599521895202
0.346000000000000196,-7.020869955965487463
0.347000000000000197,-7.008534401331331765
0.348000000000000198,-6.994191867549700348
0.349000000000000199,-6.977911118748286512
0.350000000000000200,-6.959760674275149661
0.351000000000000201,-6.939808734657708200
0.352000000000000202,-6.918123110543379362
0.353000000000000203,-6.894771154655785494
0.354000000000000203,-6.869819696789410735
0.355000000000000204,-6.843334981855434762
0.356000000000000205,-6.815382610982032574
0.357000000000000206,-6.786027485663585601
0.358000000000000207,-6.755333754944800262
0.359000000000000208,-6.723364765618603300
0.360000000000000209,-6.690183015409360223
0.361000000000000210,-6.655850109106725476
0.362000000000000210,-6.620426717609626976
0.363000000000000211,-6.583972539834485715
0.364000000000000212,-6.546546267437157951
0.365000000000000213,-6.508205552293532037
0.366000000000000214,-6.469006976680125476
0.367000000000000215,-6.429006026092404902
0.368000000000000216,-6.388257064635714855
0.369000000000000217,-6.346813312920967398
0.370000000000000218,-6.304726828395133431
0.371000000000000218,-6.262048488034521299
0.372000000000000219,-6.218827973327457848
0.373000000000000220,-6.175113757471625497
0.374000000000000221,-6.130953094710374529
0.375000000000000222,-6.086392011731508234
0.376000000000000223,-6.041475301051943525
0.377000000000000224,-5.996246516310971941
0.378000000000000225,-5.950747969395259851
0.379000000000000226,-5.905020729318600559
0.380000000000000226,-5.859104622780207272
0.381000000000000227,-5.813038236325402508
0.382000000000000228,-5.766858920033792302
0.383000000000000229,-5.720602792660494096
0.384000000000000230,-5.674304748157116052
0.385000000000000231,-5.627998463500409443
0.386000000000000232,-5.581716407757443044
0.387000000000000233,-5.535489852317786230
0.388000000000000234,-5.489348882224267534
0.389000000000000234,-5.443322408535657075
0.390000000000000235,-5.397438181655808798
0.391000000000000236,-5.351722805565759522
0.392000000000000237,-5.306201752896504864
0.393000000000000238,-5.260899380782312562
0.394000000000000239,-5.215838947435650574
0.395000000000000240,-5.171042629387004652
0.396000000000000241,-5.126531539334264309
0.397000000000000242,-5.082325744548279900
0.398000000000000242,-5.038444285783045373
0.399000000000000243,-4.994905196640546663
0.400000000000000244,-4.951725523342196844
0.401000000000000245,-4.908921344860710079
0.402000000000000246,-4.866507793367690127
0.403000000000000247,-4.824499074954251121
0.404000000000000248,-4.782908490583621663
0.405000000000000249,-4.741748457236416137
0.406000000000000250,-4.701030529210869169
0.407000000000000250,-4.660765419542164167
0.408000000000000251,-4.620963021506461210
0.409000000000000252,-4.581632430176968640
0.410000000000000253,-4.542781964000878858
0.411000000000000254,-4.504419186367689676
0.412000000000000255,-4.466550927140700011
0.413000000000000256,-4.429183304125319687
0.414000000000000257,-4.392321744448842047
0.415000000000000258,-4.355971005828144449
0.416000000000000258,-4.320135197702853702
0.417000000000000259,-4.284817802213041205
0.418000000000000260,-4.250021695001698241
0.419000000000000261,-4.215749165823533318
0.420000000000000262,-4.182001938942880415
0.421000000000000263,-4.148781193304674986
0.422000000000000264,-4.116087582463530126
0.423000000000000265,-4.083921254257114164
0.424000000000000266,-4.052281870211198900
0.425000000000000266,-4.021168624664470670
0.426000000000000267,-3.990580263602522937
0.427000000000000268,-3.960515103191199593
0.428000000000000269,-3.930971048000409418
0.429000000000000270,-3.901945608910483365
0.430000000000000271,-3.873435920693852008
0.431000000000000272,-3.845438759265785045
0.432000000000000273,-3.817950558598583566
0.433000000000000274,-3.790967427294419601
0.434000000000000274,-3.764485164812704454
0.435000000000000275,-3.738499277348521499
0.436000000000000276,-3.713004993359379391
0.437000000000000277,-3.687997278737986218
0.438000000000000278,-3.663470851629549774
0.439000000000000279,-3.639420196892483972
0.440000000000000280,-3.615839580201972492
0.441000000000000281,-3.592723061796351036
0.442000000000000282,-3.570064509866811342
0.443000000000000282,-3.547857613591131276
0.444000000000000283,-3.526095895812896064
0.445000000000000284,-3.504772725367762298
0.446000000000000285,-3.483881329058788001
0.447000000000000286,-3.463414803283399124
0.448000000000000287,-3.443366125314428761
0.449000000000000288,-3.423728164238498017
0.450000000000000289,-3.404493691554852042
0.451000000000000290,-3.385655391438295858
0.452000000000000290,-3.367205870670007872
0.453000000000000291,-3.349137668240220300
0.454000000000000292,-3.331443264627047540
0.455000000000000293,-3.314115090755803017
0.456000000000000294,-3.297145536643470987
0.457000000000000295,-3.280526959733014003
0.458000000000000296,-3.264251692922435666
0.459000000000000297,-3.248312052293601759
0.460000000000000298,-3.232700344545944571
0.461000000000000298,-3.217408874140294195
0.462000000000000299,-3.202429950158150351
0.463000000000000300,-3.187755892881754871
0.464000000000000301,-3.173379040100493764
0.465000000000000302,-3.159291753149096937
0.466000000000000303,-3.145486422683196448
0.467000000000000304,-3.131955474197860134
0.468000000000000305,-3.118691373294720570
0.469000000000000306,-3.105686630703301976
0.470000000000000306,-3.092933807062285823
0.471000000000000307,-3.080425517466218732
0.472000000000000308,-3.068154435783469580
0.473000000000000309,-3.056113298750946505
0.474000000000000310,-3.044294909851238629
0.475000000000000311,-3.032692142977746474
0.476000000000000312,-3.021297945893411274
0.477000000000000313,-3.010105343488482355
0.478000000000000314,-2.999107440842833761
0.479000000000000314,-2.988297426098326603
0.480000000000000315,-2.977668573146459163
0.481000000000000316,-2.967214244136800794
0.482000000000000317,-2.956927891811322429
0.483000000000000318,-2.946803061669951873
0.484000000000000319,-2.936833393972416495
0.485000000000000320,-2.927012625581510541
0.486000000000000321,-2.917334591652755105
0.487000000000000322,-2.907793227175407669
0.488000000000000322,-2.898382568369631596
0.489000000000000323,-2.889096753944706109
0.490000000000000324,-2.879930026222885964
0.491000000000000325,-2.870876732133596398
0.492000000000000326,-2.861931324082458428
0.493000000000000327,-2.853088360699666204
0.494000000000000328,-2.844342507472048087
0.495000000000000329,-2.835688537263140852
0.496000000000000330,-2.827121330725434589
0.497000000000000330,-2.818635876609016044
0.498000000000000331,-2.810227271970501484
0.499000000000000332,-2.801890722286373148
0.500000000000000333,-2.793621541474482051
0.501000000000000334,-2.785415151827514091
0.502000000000000335,-2.777267083862163144
0.503000000000000336,-2.769172976087570071
0.504000000000000337,-2.761128574696595450
0.505000000000000338,-2.753129733183323324
0.506000000000000338,-2.745172411890196784
0.507000000000000339,-2.737252677488026809
0.508000000000000340,-2.729366702392064248
0.509000000000000341,-2.721510764117289760
0.510000000000000342,-2.713681244575850027
0.511000000000000343,-2.705874629319700908
0.512000000000000344,-2.698087506731212226
0.513000000000000345,-2.690316567164583006
0.514000000000000346,-2.682558602040788109
0.515000000000000346,-2.674810502898603115
0.516000000000000347,-2.667069260404328457
0.517000000000000348,-2.659331963322704162
0.518000000000000349,-2.651595797451315129
0.519000000000000350,-2.643858044520954742
0.520000000000000351,-2.636116081064072247
0.521000000000000352,-2.628367377253619352
0.522000000000000353,-2.620609495714284698
0.523000000000000353,-2.612840090308247376
0.524000000000000354,-2.605056904897442571
0.525000000000000355,-2.597257772084179628
0.526000000000000356,-2.589440611932020353
0.527000000000000357,-2.581603430668716115
0.528000000000000358,-2.573744319372872624
0.529000000000000359,-2.565861452646077456
0.530000000000000360,-2.557953087272016202
0.531000000000000361,-2.550017560864216826
0.532000000000000361,-2.542053290503829110
0.533000000000000362,-2.534058771368922880
0.534000000000000363,-2.526032575356668808
0.535000000000000364,-2.517973349699735408
0.536000000000000365,-2.509879815578158091
0.537000000000000366,-2.501750766727944164
0.538000000000000367,-2.493585068047516451
0.539000000000000368,-2.485381654203232316
0.540000000000000369,-2.477139528234919563
0.541000000000000369,-2.468857760162607384
0.542000000000000370,-2.460535485595303662
0.543000000000000371,-2.452171904342860032
0.544000000000000372,-2.443766279031798216
0.545000000000000373,-2.435317933725937412
0.546000000000000374,-2.426826252552667817
0.547000000000000375,-2.418290678335634603
0.548000000000000376,-2.409710711234608560
0.549000000000000377,-2.401085907393203378
0.550000000000000377,-2.392415877595147400
0.551000000000000378,-2.383700285929717833
0.552000000000000379,-2.374938848466977781
0.553000000000000380,-2.366131331943343685
0.554000000000000381,-2.357277552458028502
0.555000000000000382,-2.348377374180928623
0.556000000000000383,-2.339430708072305798
0.557000000000000384,-2.330437510614869367
0.558000000000000385,-2.321397782558519918
0.559000000000000385,-2.312311567678295710
0.560000000000000386,-2.303178951545760800
0.561000000000000387,-2.294000060314273615
0.562000000000000388,-2.284775059518388662
0.563000000000000389,-2.275504152887731557
0.564000000000000390,-2.266187581175571175
0.565000000000000391,-2.256825621002387372
0.566000000000000392,-2.247418583714612339
0.567000000000000393,-2.237966814258812498
0.568000000000000393,-2.228470690071415738
0.569000000000000394,-2.218930619984232688
0.570000000000000395,-2.209347043145892808
0.571000000000000396,-2.199720427959276581
0.572000000000000397,-2.190051271035165836
0.573000000000000398,-2.180340096162101560
0.574000000000000399,-2.170587453292612601
0.575000000000000400,-2.160793917545823728
0.576000000000000401,-2.150960088226533173
0.577000000000000401,-2.141086587860814738
0.578000000000000402,-2.131174061248111151
0.579000000000000403,-2.121223174529863975
0.580000000000000404,-2.111234614274733801
0.581000000000000405,-2.101209086580291707
0.582000000000000406,-2.091147316191266370
0.583000000000000407,-2.081050045634226908
0.584000000000000408,-2.070918034368744109
0.585000000000000409,-2.060752057954898575
0.586000000000000409,-2.050552907237126909
0.587000000000000410,-2.040321387544331344
0.588000000000000411,-2.030058317906127563
0.589000000000000412,-2.019764530285232063
0.590000000000000413,-2.009440868825786985
0.591000000000000414,-1.999088189117619097
0.592000000000000415,-1.988707357476273696
0.593000000000000416,-1.978299250238707341
0.594000000000000417,-1.967864753074533457
0.595000000000000417,-1.957404760312731584
0.596000000000000418,-1.946920174283574667
0.597000000000000419,-1.936411904675805928
0.598000000000000420,-1.925880867908747573
0.599000000000000421,-1.915327986519347103
0.600000000000000422,-1.904754188563908546
0.601000000000000423,-1.894160407034399807
0.602000000000000424,-1.883547579289183815
0.603000000000000425,-1.872916646497998716
0.604000000000000425,-1.862268553101009472
0.605000000000000426,-1.851604246281802535
0.606000000000000427,-1.840924675454151282
0.607000000000000428,-1.830230791762287312
0.608000000000000429,-1.819523547594713575
0.609000000000000430,-1.808803896111098153
0.610000000000000431,-1.798072790782371255
0.611000000000000432,-1.787331184943607765
0.612000000000000433,-1.776580031359633383
0.613000000000000433,-1.765820281803180070
