# LithiumCobaltOxide-001_1HIMIDAZOLE-AC
# h[nm],U(h)[kJ/mol]
0.149999999999999994,124.770144488575823516
0.150999999999999995,122.546980063064594901
0.151999999999999996,120.001542831975783088
0.152999999999999997,117.412786306485969590
0.153999999999999998,114.893910947819023249
0.154999999999999999,112.473446710831808559
0.156000000000000000,110.142331855932141593
0.157000000000000001,107.879578253198218363
0.158000000000000002,105.664900206141396666
0.159000000000000002,103.483768338676597409
0.160000000000000003,101.328359330102401259
0.161000000000000004,99.196534276668486996
0.162000000000000005,97.090096315439822661
0.163000000000000006,95.013010450502150661
0.164000000000000007,92.969914583052926105
0.165000000000000008,90.965039574363103725
0.166000000000000009,89.001538273001500556
0.167000000000000010,87.081164765026485952
0.168000000000000010,85.204222598730751770
0.169000000000000011,83.369699078756667632
0.170000000000000012,81.575511995660065168
0.171000000000000013,79.818809137666903553
0.172000000000000014,78.096275903948622954
0.173000000000000015,76.404420239514337254
0.174000000000000016,74.739815940930611760
0.175000000000000017,73.099294798798339912
0.176000000000000018,71.480085092696839411
0.177000000000000018,69.879898888908158483
0.178000000000000019,68.296973753576722288
0.179000000000000020,66.730076247393299127
0.180000000000000021,65.178475255509866315
0.181000000000000022,63.641893129952471497
0.182000000000000023,62.120442033356809475
0.183000000000000024,60.614551973980326238
0.184000000000000025,59.124895967396504659
0.185000000000000026,57.652316663832174015
0.186000000000000026,56.197757721211459625
0.187000000000000027,54.762202234370512599
0.188000000000000028,53.346619680734121971
0.189000000000000029,51.951922125872457059
0.190000000000000030,50.578929850880399499
0.191000000000000031,49.228346111449937439
0.192000000000000032,47.900740404654825966
0.193000000000000033,46.596539389695124100
0.194000000000000034,45.316024467737051395
0.195000000000000034,44.059334958000867744
0.196000000000000035,42.826475797606271101
0.197000000000000036,41.617328727817636036
0.198000000000000037,40.431665997226915010
0.199000000000000038,39.269165702715412181
0.200000000000000039,38.129427993071445258
0.201000000000000040,37.011991470829414652
0.202000000000000041,35.916349239634357104
0.203000000000000042,34.841964152939297605
0.204000000000000042,33.788282921971429573
0.205000000000000043,32.754748834497476651
0.206000000000000044,31.740812919625405186
0.207000000000000045,30.745943467012828876
0.208000000000000046,29.769633871235487987
0.209000000000000047,28.811408823935913404
0.210000000000000048,27.870828918241848271
0.211000000000000049,26.947493762549264318
0.212000000000000050,26.041043724962086969
0.213000000000000050,25.151160446412710314
0.214000000000000051,24.277566270707112039
0.215000000000000052,23.420022744403979686
0.216000000000000053,22.578328339458618501
0.217000000000000054,21.752315547799412343
0.218000000000000055,20.941847490244697383
0.219000000000000056,20.146814173124688807
0.220000000000000057,19.367128515272405309
0.221000000000000058,18.602722256249254684
0.222000000000000058,17.853541844234182889
0.223000000000000059,17.119544389339690582
0.224000000000000060,16.400693755541489338
0.225000000000000061,15.696956852190179887
0.226000000000000062,15.008300174417394501
0.227000000000000063,14.334686630811455998
0.228000000000000064,13.676072686630764252
0.229000000000000065,13.032405841616863995
0.230000000000000066,12.403622453208164700
0.231000000000000066,11.789645908648081374
0.232000000000000067,11.190385143122902889
0.233000000000000068,10.605733495624983576
0.234000000000000069,10.035567889678075559
0.235000000000000070,9.479748322330237897
0.236000000000000071,8.938117641860090501
0.237000000000000072,8.410501592387680247
0.238000000000000073,7.896709101969129563
0.239000000000000073,7.396532789716891543
0.240000000000000074,6.909749666955605107
0.241000000000000075,6.436122007338323847
0.242000000000000076,5.975398361142174153
0.243000000000000077,5.527314689580394180
0.244000000000000078,5.091595595853893208
0.245000000000000079,4.667955630769140107
0.246000000000000080,4.256100652024379372
0.247000000000000081,3.855729217669732201
0.248000000000000081,3.466533995743035668
0.249000000000000082,3.088203173637344534
0.250000000000000111,2.720421852338962054
0.251000000000000112,2.362873412262188388
0.252000000000000113,2.015240838975032034
0.253000000000000114,1.677207998644240750
0.254000000000000115,1.348460854508110485
0.255000000000000115,1.028688617104455805
0.256000000000000116,0.717584822325430971
0.257000000000000117,0.414848332635251726
0.258000000000000118,0.120184257966214680
0.259000000000000119,-0.166695206102135257
0.260000000000000120,-0.446070024276678745
0.261000000000000121,-0.718211652084663754
0.262000000000000122,-0.983382450678047748
0.263000000000000123,-1.241835184848357532
0.264000000000000123,-1.493812602549251078
0.265000000000000124,-1.739547093662464849
0.266000000000000125,-1.979260425261046397
0.267000000000000126,-2.213163550215731412
0.268000000000000127,-2.441456485653248798
0.269000000000000128,-2.664328257502664332
0.270000000000000129,-2.881956907154467729
0.271000000000000130,-3.094509556101411984
0.272000000000000131,-3.302142524324866990
0.273000000000000131,-3.505001498131929960
0.274000000000000132,-3.703221743131265953
0.275000000000000133,-3.896928358055691710
0.276000000000000134,-4.086236565192399972
0.277000000000000135,-4.271252033262938674
0.278000000000000136,-4.452071228702066286
0.279000000000000137,-4.628781791412052371
0.280000000000000138,-4.801462931214688368
0.281000000000000139,-4.970185841383959691
0.282000000000000139,-5.135014125814390873
0.283000000000000140,-5.296004236561851819
0.284000000000000141,-5.453205918681661046
0.285000000000000142,-5.606662659481935762
0.286000000000000143,-5.756412139505468595
0.287000000000000144,-5.902486682749501057
0.288000000000000145,-6.044913703828791895
0.289000000000000146,-6.183716149979914256
0.290000000000000147,-6.318912935995515845
0.291000000000000147,-6.450519370362097327
0.292000000000000148,-6.578547571055707976
0.293000000000000149,-6.703006869623740371
0.294000000000000150,-6.823904202348631820
0.295000000000000151,-6.941244487449803380
0.296000000000000152,-7.055030987432701295
0.297000000000000153,-7.165265655838934933
0.298000000000000154,-7.271949467788336285
0.299000000000000155,-7.375082733832615034
0.300000000000000155,-7.474665396760741487
0.301000000000000156,-7.570697311108548710
0.302000000000000157,-7.663178505229550019
0.303000000000000158,-7.752109425879898374
0.304000000000000159,-7.837491165359279144
0.305000000000000160,-7.919325671330035732
0.306000000000000161,-7.997615939510557936
0.307000000000000162,-8.072366189505299161
0.308000000000000163,-8.143582024093129590
0.309000000000000163,-8.211270572348826846
0.310000000000000164,-8.275440617019297562
0.311000000000000165,-8.336102706616546953
0.312000000000000166,-8.393269252725051643
0.313000000000000167,-8.446954613050541738
0.314000000000000168,-8.497175160762434842
0.315000000000000169,-8.543949340702070572
0.316000000000000170,-8.587297713045096259
0.317000000000000171,-8.627242985017783639
0.318000000000000171,-8.663810031275357204
0.319000000000000172,-8.697025903555111626
0.320000000000000173,-8.726919830218269780
0.321000000000000174,-8.753523206293440495
0.322000000000000175,-8.776869574630214998
0.323000000000000176,-8.796994598765225604
0.324000000000000177,-8.813936028094307318
0.325000000000000178,-8.827733655933846180
0.326000000000000179,-8.838429271042610225
0.327000000000000179,-8.846066603161213848
0.328000000000000180,-8.850691263111743368
0.329000000000000181,-8.852350677984160754
0.330000000000000182,-8.851094021918488153
0.331000000000000183,-8.846972142974916409
0.332000000000000184,-8.840037486564643388
0.333000000000000185,-8.830344015896054444
0.334000000000000186,-8.817947129871107848
0.335000000000000187,-8.802903578847484312
0.336000000000000187,-8.785271378662361741
0.337000000000000188,-8.765109723293610600
0.338000000000000189,-8.742478896515034847
0.339000000000000190,-8.717440182882217670
0.340000000000000191,-8.690055778366160055
0.341000000000000192,-8.660388700933191686
0.342000000000000193,-8.628502701349994197
0.343000000000000194,-8.594462174475001603
0.344000000000000195,-8.558332071278400122
0.345000000000000195,-8.520177811816251889
0.346000000000000196,-8.480065199366281448
0.347000000000000197,-8.438060335916759414
0.348000000000000198,-8.394229539183571731
0.349000000000000199,-8.348639261314929172
0.350000000000000200,-8.301356009428419114
0.351000000000000201,-8.252446268110283256
0.352000000000000202,-8.201976423993359688
0.353000000000000203,-8.150012692516524382
0.354000000000000203,-8.096621046956133938
0.355000000000000204,-8.041867149807476522
0.356000000000000205,-7.985816286583189871
0.357000000000000206,-7.928533302084471934
0.358000000000000207,-7.870082539190471849
0.359000000000000208,-7.810527780201792503
0.360000000000000209,-7.749932190764634576
0.361000000000000210,-7.688358266393413132
0.362000000000000210,-7.625867781601762374
0.363000000000000211,-7.562521741644040674
0.364000000000000212,-7.498380336862531692
0.365000000000000213,-7.433502899628758875
0.366000000000000214,-7.367947863861397551
0.367000000000000215,-7.301772727097416649
0.368000000000000216,-7.235034015088096737
0.369000000000000217,-7.167787248886502205
0.370000000000000218,-7.100086914388898052
0.371000000000000218,-7.031986434288347354
0.372000000000000219,-6.963538142395331754
0.373000000000000220,-6.894793260276891544
0.374000000000000221,-6.825801876162921999
0.375000000000000222,-6.756612926065562519
0.376000000000000223,-6.687274177055618551
0.377000000000000224,-6.617832212637702938
0.378000000000000225,-6.548332420164297396
0.379000000000000226,-6.478818980227361912
0.380000000000000226,-6.409334857965177434
0.381000000000000227,-6.339921796220822081
0.382000000000000228,-6.270620310488337346
0.383000000000000229,-6.201469685581906255
0.384000000000000230,-6.132507973963003067
0.385000000000000231,-6.063771995660668601
0.386000000000000232,-5.995297339719638963
0.387000000000000233,-5.927118367111660291
0.388000000000000234,-5.859268215045347894
0.389000000000000234,-5.791778802610697774
0.390000000000000235,-5.724680837694656077
0.391000000000000236,-5.658003825105159201
0.392000000000000237,-5.591776075841562665
0.393000000000000238,-5.526024717450630952
0.394000000000000239,-5.460775705407831637
0.395000000000000240,-5.396053835465187909
0.396000000000000241,-5.331882756907698528
0.397000000000000242,-5.268284986661752711
0.398000000000000242,-5.205281924200193977
0.399000000000000243,-5.142893867189885171
0.400000000000000244,-5.081140027828990213
0.401000000000000245,-5.020038549822762874
0.402000000000000246,-4.959606525947667599
0.403000000000000247,-4.899860016155381359
0.404000000000000248,-4.840814066169585317
0.405000000000000249,-4.782482726529860173
0.406000000000000250,-4.724879072038491223
0.407000000000000250,-4.668015221567524797
0.408000000000000251,-4.611902358184757134
0.409000000000000252,-4.556550749559008295
0.410000000000000253,-4.501969768606245204
0.411000000000000254,-4.448167914339853368
0.412000000000000255,-4.395152832889523076
0.413000000000000256,-4.342931338654964613
0.414000000000000257,-4.291509435561698282
0.415000000000000258,-4.240892338388016825
0.416000000000000258,-4.191084494133143323
0.417000000000000259,-4.142089603398347641
0.418000000000000260,-4.093910641753881308
0.419000000000000261,-4.046549881065964804
0.420000000000000262,-4.000008910759405900
0.421000000000000263,-3.954288658992630268
0.422000000000000264,-3.909389413723115325
0.423000000000000265,-3.865310843642432381
0.424000000000000266,-3.822052018961419773
0.425000000000000266,-3.779611432026832141
0.426000000000000267,-3.737987017752276930
0.427000000000000268,-3.697176173847081859
0.428000000000000269,-3.657175780827894407
0.429000000000000270,-3.617982221798856646
0.430000000000000271,-3.579591401987053167
0.431000000000000272,-3.541998768021072497
0.432000000000000273,-3.505199326941299542
0.433000000000000274,-3.469187664931523418
0.434000000000000274,-3.433957965762273634
0.435000000000000275,-3.399504028937174294
0.436000000000000276,-3.365819287534363102
0.437000000000000277,-3.332896825735807589
0.438000000000000278,-3.300729396038114771
0.439000000000000279,-3.269309436139131719
0.440000000000000280,-3.238629085495293047
0.441000000000000281,-3.208680201545349497
0.442000000000000282,-3.179454375596816984
0.443000000000000282,-3.150942948371865615
0.444000000000000283,-3.123137025210255491
0.445000000000000284,-3.096027490927195203
0.446000000000000285,-3.069605024324614462
0.447000000000000286,-3.043860112355035064
0.448000000000000287,-3.018783063937264366
0.449000000000000288,-2.994364023424090249
0.450000000000000289,-2.970592983722151637
0.451000000000000290,-2.947459799064852781
0.452000000000000290,-2.924954197439445736
0.453000000000000291,-2.903065792669736744
0.454000000000000292,-2.881784096156344344
0.455000000000000293,-2.861098528276593278
0.456000000000000294,-2.840998429446576434
0.457000000000000295,-2.821473070848087961
0.458000000000000296,-2.802511664823462034
0.459000000000000297,-2.784103374941573339
0.460000000000000298,-2.766237325738473807
0.461000000000000298,-2.748902612136381318
0.462000000000000299,-2.732088308544933231
0.463000000000000300,-2.715783477648718414
0.464000000000000301,-2.699977178885425211
0.465000000000000302,-2.684658476618952072
0.466000000000000303,-2.669816448012028776
0.467000000000000304,-2.655440190603016948
0.468000000000000305,-2.641518829591701145
0.469000000000000306,-2.628041524838898191
0.470000000000000306,-2.614997477584960262
0.471000000000000307,-2.602375936892094010
0.472000000000000308,-2.590166205815766176
0.473000000000000309,-2.578357647310292045
0.474000000000000310,-2.566939689873869668
0.475000000000000311,-2.555901832938362706
0.476000000000000312,-2.545233652009142755
0.477000000000000313,-2.534924803560317574
0.478000000000000314,-2.524965029690679152
0.479000000000000314,-2.515344162545849471
0.480000000000000315,-2.506052128511837118
0.481000000000000316,-2.497078952185534995
0.482000000000000317,-2.488414760127379388
0.483000000000000318,-2.480049784401627821
0.484000000000000319,-2.471974365909489713
0.485000000000000320,-2.464178957520493096
0.486000000000000321,-2.456654127007272148
0.487000000000000322,-2.449390559789077493
0.488000000000000322,-2.442379061489124759
0.489000000000000323,-2.435610560311025630
0.490000000000000324,-2.429076109239313830
0.491000000000000325,-2.422766888069170399
0.492000000000000326,-2.416674205270301190
0.493000000000000327,-2.410789499689953264
0.494000000000000328,-2.405104342099907644
0.495000000000000329,-2.399610436592286344
0.496000000000000330,-2.394299621828901881
0.497000000000000330,-2.389163872148881929
0.498000000000000331,-2.384195298539104169
0.499000000000000332,-2.379386149472070944
0.500000000000000333,-2.374728811615653079
0.501000000000000334,-2.370215810419082025
0.502000000000000335,-2.365839810579571711
0.503000000000000336,-2.361593616393768080
0.504000000000000337,-2.357470171998232278
0.505000000000000338,-2.353462561503023132
0.506000000000000338,-2.349564009022431676
0.507000000000000339,-2.345767878606767720
0.508000000000000340,-2.342067674079083783
0.509000000000000341,-2.338457038780625830
0.510000000000000342,-2.334929755228663417
0.511000000000000343,-2.331479744690398981
0.512000000000000344,-2.328101066676405928
0.513000000000000345,-2.324787918357134497
0.514000000000000346,-2.321534633905858236
0.515000000000000346,-2.318335683771313604
0.516000000000000347,-2.315185673883306539
0.517000000000000348,-2.312079344794466973
0.518000000000000349,-2.309011570761117405
0.519000000000000350,-2.305977358766365892
0.520000000000000351,-2.302971847488262114
0.521000000000000352,-2.299990306215917713
0.522000000000000353,-2.297028133716299436
0.523000000000000353,-2.294080857054434652
0.524000000000000354,-2.291144130369648035
0.525000000000000355,-2.288213733610354517
0.526000000000000356,-2.285285571229880741
0.527000000000000357,-2.282355670845781948
0.528000000000000358,-2.279420181864901362
0.529000000000000359,-2.276475374076524005
0.530000000000000360,-2.273517636215753424
0.531000000000000361,-2.270543474499313596
0.532000000000000361,-2.267549511135780627
0.533000000000000362,-2.264532482812306124
0.534000000000000363,-2.261489239159718778
0.535000000000000364,-2.258416741197929678
0.536000000000000365,-2.255312059763421750
0.537000000000000366,-2.252172373920608983
0.538000000000000367,-2.248994969358721896
0.539000000000000368,-2.245777236775934771
0.540000000000000369,-2.242516670252206801
0.541000000000000369,-2.239210865612496271
0.542000000000000370,-2.235857518781686704
0.543000000000000371,-2.232454424132753523
0.544000000000000372,-2.228999472829476858
0.545000000000000373,-2.225490651165042966
0.546000000000000374,-2.221926038897782618
0.547000000000000375,-2.218303807585270349
0.548000000000000376,-2.214622218917980057
0.549000000000000377,-2.210879623053577436
0.550000000000000377,-2.207074456952949681
0.551000000000000378,-2.203205242719004531
0.552000000000000379,-2.199270585939229861
0.553000000000000380,-2.195269174032957515
0.554000000000000381,-2.191199774604217776
0.555000000000000382,-2.187061233801119720
0.556000000000000383,-2.182852474682466237
0.557000000000000384,-2.178572495592528746
0.558000000000000385,-2.174220368544610871
0.559000000000000385,-2.169795237614215555
0.560000000000000386,-2.165296317342408905
0.561000000000000387,-2.160722891150114400
0.562000000000000388,-2.156074309763856167
0.563000000000000389,-2.151349989653629002
0.564000000000000390,-2.146549411483359648
0.565000000000000391,-2.141672118574534434
0.566000000000000392,-2.136717715383450233
0.567000000000000393,-2.131685865992581252
0.568000000000000393,-2.126576292616449759
0.569000000000000394,-2.121388774122444865
0.570000000000000395,-2.116123144566966374
0.571000000000000396,-2.110779291747205466
0.572000000000000397,-2.105357155768968092
0.573000000000000398,-2.099856727630759590
0.574000000000000399,-2.094278047824494671
0.575000000000000400,-2.088621204953031274
0.576000000000000401,-2.082886334364789871
0.577000000000000401,-2.077073616805715339
0.578000000000000402,-2.071183277088713748
0.579000000000000403,-2.065215582780765669
0.580000000000000404,-2.059170842907930954
0.581000000000000405,-2.053049406678299160
0.582000000000000406,-2.046851662223085455
0.583000000000000407,-2.040578035355923969
0.584000000000000408,-2.034228988350509582
0.585000000000000409,-2.027805018736606790
0.586000000000000409,-2.021306658114526478
0.587000000000000410,-2.014734470988122972
0.588000000000000411,-2.008089053616290975
0.589000000000000412,-2.001371032883082712
0.590000000000000413,-1.994581065186331825
0.591000000000000414,-1.987719835344886388
0.592000000000000415,-1.980788055524382640
0.593000000000000416,-1.973786464181533473
0.594000000000000417,-1.966715825026900788
0.595000000000000417,-1.959576926006150632
0.596000000000000418,-1.952370578299615911
0.597000000000000419,-1.945097615340256159
0.598000000000000420,-1.937758891849798770
0.599000000000000421,-1.930355282893070790
0.600000000000000422,-1.922887682950388921
0.601000000000000423,-1.915357005007905400
0.602000000000000424,-1.907764179665828452
0.603000000000000425,-1.900110154264392559
0.604000000000000425,-1.892395892027433746
0.605000000000000426,-1.884622371223474202
0.606000000000000427,-1.876790584344210533
0.607000000000000428,-1.868901537300140747
0.608000000000000429,-1.860956248633406362
0.609000000000000430,-1.852955748747435738
0.610000000000000431,-1.844901079153492329
0.611000000000000432,-1.836793291733779254
0.612000000000000433,-1.828633448021023566
0.613000000000000433,-1.820422618494398126
