# LithiumCobaltOxide-001_PROPAN2OL-AC
# h[nm],U(h)[kJ/mol]
0.149999999999999994,133.637481015922958250
0.150999999999999995,131.925254693092881553
0.151999999999999996,129.425390776959062578
0.152999999999999997,126.769692857462160873
0.153999999999999998,124.201137992216814609
0.154999999999999999,121.774501362157977269
0.156000000000000000,119.467138599277262756
0.157000000000000001,117.235855313428061208
0.158000000000000002,115.042655303693749147
0.159000000000000002,112.863497828721577321
0.160000000000000003,110.688566648947059434
0.161000000000000004,108.518961625003683480
0.162000000000000005,106.362482372923523144
0.163000000000000006,104.229816002956113152
0.164000000000000007,102.131652037328947813
0.165000000000000008,100.076816565780305268
0.166000000000000009,98.071305616460676902
0.167000000000000010,96.118014398033551515
0.168000000000000010,94.216947121280639976
0.169000000000000011,92.365715975832301865
0.170000000000000012,90.560176269876748734
0.171000000000000013,88.795085699862255524
0.172000000000000014,87.064712956758214091
0.173000000000000015,85.363351674830539650
0.174000000000000016,83.685719417187414138
0.175000000000000017,82.027238405950896549
0.176000000000000018,80.384206002523740153
0.177000000000000018,78.753869656734693194
0.178000000000000019,77.134424280717951206
0.179000000000000020,75.524950748554914526
0.180000000000000021,73.925313295869642616
0.181000000000000022,72.336031643901819166
0.182000000000000023,70.758141191239502632
0.183000000000000024,69.193051957916495098
0.184000000000000025,67.642414373234103664
0.185000000000000026,66.107997624149007265
0.186000000000000026,64.591584211801517768
0.187000000000000027,63.094882637076082688
0.188000000000000028,61.619458755041037534
0.189000000000000029,60.166685283235686654
0.190000000000000030,58.737708186985983616
0.191000000000000031,57.333428156216143634
0.192000000000000032,55.954495090319973372
0.193000000000000033,54.601313379263977765
0.194000000000000034,53.274055771949704763
0.195000000000000034,51.972683722873384227
0.196000000000000035,50.696972275945867636
0.197000000000000036,49.446537755456262175
0.198000000000000037,48.220866768702236982
0.199000000000000038,47.019345267147841128
0.200000000000000039,45.841286651261476948
0.201000000000000040,44.685958129842916264
0.202000000000000041,43.552604751811315964
0.203000000000000042,42.440470713475392017
0.204000000000000042,41.348817705402638012
0.205000000000000043,40.276940199691416922
0.206000000000000044,39.224177691300120330
0.207000000000000045,38.189923997423285584
0.208000000000000046,37.173633788535752842
0.209000000000000047,36.174826575773359139
0.210000000000000048,35.193088414045973877
0.211000000000000049,34.228071600983298595
0.212000000000000050,33.279492660729445674
0.213000000000000050,32.347128900848531430
0.214000000000000051,31.430813822128222057
0.215000000000000052,30.530431646637360643
0.216000000000000053,29.645911210568691274
0.217000000000000054,28.777219446535688974
0.218000000000000055,27.924354656254802620
0.219000000000000056,27.087339749900557706
0.220000000000000057,26.266215603666001499
0.221000000000000058,25.461034662836446785
0.222000000000000058,24.671854894477583287
0.223000000000000059,23.898734172028571976
0.224000000000000060,23.141725153931567149
0.225000000000000061,22.400870700095985910
0.226000000000000062,21.676199853579387167
0.227000000000000063,20.967724400398523699
0.228000000000000064,20.275436007842728259
0.229000000000000065,19.599303930984902422
0.230000000000000066,18.939273268185093713
0.231000000000000066,18.295263739140786186
0.232000000000000067,17.667168953331668035
0.233000000000000068,17.054856132394842660
0.234000000000000069,16.458166246908852770
0.235000000000000070,15.876914526119014326
0.236000000000000071,15.310891298163156193
0.237000000000000072,14.759863118221209888
0.238000000000000073,14.223574142588137903
0.239000000000000073,13.701747707838942247
0.240000000000000074,13.194088075904200963
0.241000000000000075,12.700282307909777302
0.242000000000000076,12.220002231960467753
0.243000000000000077,11.752906472585578967
0.244000000000000078,11.298642512244370550
0.245000000000000079,10.856848758047535242
0.246000000000000080,10.427156589636158657
0.247000000000000081,10.009192366923880257
0.248000000000000081,9.602579379116775726
0.249000000000000082,9.206939719045386994
0.250000000000000111,8.821896069350451342
0.251000000000000112,8.447073389439331947
0.252000000000000113,8.082100494358162024
0.253000000000000114,7.726611518798273792
0.254000000000000115,7.380247261363860112
0.255000000000000115,7.042656405972879341
0.256000000000000116,6.713496618840676611
0.257000000000000117,6.392435520910298763
0.258000000000000118,6.079151536848190318
0.259000000000000119,5.773334622824046747
0.260000000000000120,5.474686876246012801
0.261000000000000121,5.182923031435921146
0.262000000000000122,4.897770845909979798
0.263000000000000123,4.618971382489860389
0.264000000000000123,4.346279192913864442
0.265000000000000124,4.079462408959373398
0.266000000000000125,3.818302747333382374
0.267000000000000126,3.562595434748232925
0.268000000000000127,3.312149059681818386
0.269000000000000128,3.066785357335898521
0.270000000000000129,2.826338934259333247
0.271000000000000130,2.590656939003085135
0.272000000000000131,2.359598685028971410
0.273000000000000131,2.133035231909617302
0.274000000000000132,1.910848930640533183
0.275000000000000133,1.692932938641527496
0.276000000000000134,1.479190709759854228
0.277000000000000135,1.269535464306355665
0.278000000000000136,1.063889643861876566
0.279000000000000137,0.862184355290010584
0.280000000000000138,0.664358808086000341
0.281000000000000139,0.470359748883811046
0.282000000000000139,0.280140896637432468
0.283000000000000140,0.093662381689731733
0.284000000000000141,-0.089109808354285169
0.285000000000000142,-0.268204373322109668
0.286000000000000143,-0.443645233388517635
0.287000000000000144,-0.615452048132155816
0.288000000000000145,-0.783640719914413086
0.289000000000000146,-0.948223880006555553
0.290000000000000147,-1.109211356125453518
0.291000000000000147,-1.266610620258073139
0.292000000000000148,-1.420427215862719805
0.293000000000000149,-1.570665163728274916
0.294000000000000150,-1.717327345953423290
0.295000000000000151,-1.860415867674851453
0.296000000000000152,-1.999932396327379180
0.297000000000000153,-2.135878478360258903
0.298000000000000154,-2.268255833462672122
0.299000000000000155,-2.397066626468113082
0.300000000000000155,-2.522313717212652850
0.301000000000000156,-2.644000888715815734
0.302000000000000157,-2.762133054136665766
0.303000000000000158,-2.876716443030590931
0.304000000000000159,-2.987758767496561774
0.305000000000000160,-3.095269368859077552
0.306000000000000161,-3.199259345575763192
0.307000000000000162,-3.299741663100025590
0.308000000000000163,-3.396731246459253839
0.309000000000000163,-3.490245056333652229
0.310000000000000164,-3.580302149438788994
0.311000000000000165,-3.666923724027272069
0.312000000000000166,-3.750133151332089021
0.313000000000000167,-3.829955993776250178
0.314000000000000168,-3.906420010771259221
0.315000000000000169,-3.979555152920828842
0.316000000000000170,-4.049393545436664077
0.317000000000000171,-4.115969461560252896
0.318000000000000171,-4.179319286769044517
0.319000000000000172,-4.239481474527556415
0.320000000000000173,-4.296496494323599258
0.321000000000000174,-4.350406772708021563
0.322000000000000175,-4.401256628032945706
0.323000000000000176,-4.449092199558654315
0.324000000000000177,-4.493961371573698571
0.325000000000000178,-4.535913693145973369
0.326000000000000179,-4.575000294095881159
0.327000000000000179,-4.611273797754585679
0.328000000000000180,-4.644788231042991988
0.329000000000000181,-4.675598932379228856
0.330000000000000182,-4.703762457894269389
0.331000000000000183,-4.729336486408289630
0.332000000000000184,-4.752379723592556893
0.333000000000000185,-4.772951805715052842
0.334000000000000186,-4.791113203341567761
0.335000000000000187,-4.806925125338078253
0.336000000000000187,-4.820449423495249519
0.337000000000000188,-4.831748498070997933
0.338000000000000189,-4.840885204523760699
0.339000000000000190,-4.847922761685806492
0.340000000000000191,-4.852924661603705836
0.341000000000000192,-4.855954581252093227
0.342000000000000193,-4.857076296305886665
0.343000000000000194,-4.856353597137007760
0.344000000000000195,-4.853850207182335730
0.345000000000000195,-4.849629703812450288
0.346000000000000196,-4.843755441813058837
0.347000000000000197,-4.836290479575381163
0.348000000000000198,-4.827297508076302535
0.349000000000000199,-4.816838782714687461
0.350000000000000200,-4.804976058056918298
0.351000000000000201,-4.791770525531672931
0.352000000000000202,-4.777282754102275319
0.353000000000000203,-4.761572633933748300
0.354000000000000203,-4.744699323061266405
0.355000000000000204,-4.726721197057058177
0.356000000000000205,-4.707695801683958514
0.357000000000000206,-4.687679808515579083
0.358000000000000207,-4.666728973495262167
0.359000000000000208,-4.644898098399364628
0.360000000000000209,-4.622240995163908295
0.361000000000000210,-4.598810453027831535
0.362000000000000210,-4.574658208441087837
0.363000000000000211,-4.549834917680952273
0.364000000000000212,-4.524390132115992280
0.365000000000000213,-4.498372276053243191
0.366000000000000214,-4.471828627101118059
0.367000000000000215,-4.444805298977650310
0.368000000000000216,-4.417347226691461515
0.369000000000000217,-4.389498154020602172
0.370000000000000218,-4.361300623213092642
0.371000000000000218,-4.332795966831364254
0.372000000000000219,-4.304024301662090046
0.373000000000000220,-4.275024524612060617
0.374000000000000221,-4.245834310510409715
0.375000000000000222,-4.216490111737165591
0.376000000000000223,-4.187027159598550874
0.377000000000000224,-4.157479467369284087
0.378000000000000225,-4.127879834922994817
0.379000000000000226,-4.098259854872273067
0.380000000000000226,-4.068649920141014675
0.381000000000000227,-4.039079232892296645
0.382000000000000228,-4.009575814736614063
0.383000000000000229,-3.980166518146241117
0.384000000000000230,-3.950877039002874458
0.385000000000000231,-3.921731930207458472
0.386000000000000232,-3.892754616282230185
0.387000000000000233,-3.863967408897042155
0.388000000000000234,-3.835391523253374402
0.389000000000000234,-3.807047095261592684
0.390000000000000235,-3.778953199448345401
0.391000000000000236,-3.751127867533310845
0.392000000000000237,-3.723588107615978693
0.393000000000000238,-3.696349923915341229
0.394000000000000239,-3.669428337007079932
0.395000000000000240,-3.642837404504899901
0.396000000000000241,-3.616590242134518629
0.397000000000000242,-3.590699045150741231
0.398000000000000242,-3.565175110050078811
0.399000000000000243,-3.540028856533123047
0.400000000000000244,-3.515269849672879587
0.401000000000000245,-3.490906822247259900
0.402000000000000246,-3.466947697195480682
0.403000000000000247,-3.443399610160290170
0.404000000000000248,-3.420268932079532309
0.405000000000000249,-3.397561291792450699
0.406000000000000250,-3.375281598627760449
0.407000000000000250,-3.353434064942385273
0.408000000000000251,-3.332022228581258183
0.409000000000000252,-3.311048975230375113
0.410000000000000253,-3.290516560636736809
0.411000000000000254,-3.270426632670527134
0.412000000000000255,-3.250780253206195791
0.413000000000000256,-3.231577919800837861
0.414000000000000257,-3.212819587149375877
0.415000000000000258,-3.194504688297768347
0.416000000000000258,-3.176632155596510021
0.417000000000000259,-3.159200441378218649
0.418000000000000260,-3.142207538344210072
0.419000000000000261,-3.125650999646225614
0.420000000000000262,-3.109527958650649904
0.421000000000000263,-3.093835148373722088
0.422000000000000264,-3.078568920577142709
0.423000000000000265,-3.063725264514761903
0.424000000000000266,-3.049299825321931667
0.425000000000000266,-3.035287922039914044
0.426000000000000267,-3.021684565268927258
0.427000000000000268,-3.008484474444060197
0.428000000000000269,-2.995682094729230194
0.429000000000000270,-2.983271613525132704
0.430000000000000271,-2.971246976587874844
0.431000000000000272,-2.959601903755757935
0.432000000000000273,-2.948329904282266600
0.433000000000000274,-2.937424291774101803
0.434000000000000274,-2.926878198733601444
0.435000000000000275,-2.916684590705521885
0.436000000000000276,-2.906836280028759489
0.437000000000000277,-2.897325939193961197
0.438000000000000278,-2.888146113808664595
0.439000000000000279,-2.879289235171926364
0.440000000000000280,-2.870747632460850518
0.441000000000000281,-2.862513544531872789
0.442000000000000282,-2.854579131340089226
0.443000000000000282,-2.846936484980045812
0.444000000000000283,-2.839577640352074717
0.445000000000000284,-2.832494585458253944
0.446000000000000285,-2.825679271332492970
0.447000000000000286,-2.819123621609608499
0.448000000000000287,-2.812819541738189155
0.449000000000000288,-2.806758927842653684
0.450000000000000289,-2.800933675239747789
0.451000000000000290,-2.795335686615148418
0.452000000000000290,-2.789956879865942874
0.453000000000000291,-2.784789195614779889
0.454000000000000292,-2.779824604401821553
0.455000000000000293,-2.775055113560573439
0.456000000000000294,-2.770472773783824838
0.457000000000000295,-2.766069685386057575
0.458000000000000296,-2.761838004268669433
0.459000000000000297,-2.757769947594483462
0.460000000000000298,-2.753857799178034860
0.461000000000000298,-2.750093914598155997
0.462000000000000299,-2.746470726039428989
0.463000000000000300,-2.742980746869036146
0.464000000000000301,-2.739616575955619915
0.465000000000000302,-2.736370901736687955
0.466000000000000303,-2.733236506041126113
0.467000000000000304,-2.730206267673326526
0.468000000000000305,-2.727273165765462970
0.469000000000000306,-2.724430282904326539
0.470000000000000306,-2.721670808039218237
0.471000000000000307,-2.718988039177140603
0.472000000000000308,-2.716375385871735215
0.473000000000000309,-2.713826371512135793
0.474000000000000310,-2.711334635417923522
0.475000000000000311,-2.708893934746344101
0.476000000000000312,-2.706498146217791945
0.477000000000000313,-2.704141267665531423
0.478000000000000314,-2.701817419415516675
0.479000000000000314,-2.699520845502170641
0.480000000000000315,-2.697245914725719729
0.481000000000000316,-2.694987121556824405
0.482000000000000317,-2.692739086893911171
0.483000000000000318,-2.690496558678727723
0.484000000000000319,-2.688254412375380653
0.485000000000000320,-2.686007651318143452
0.486000000000000321,-2.683751406933122752
0.487000000000000322,-2.681480938838847194
0.488000000000000322,-2.679191634830648816
0.489000000000000323,-2.676879010753764554
0.490000000000000324,-2.674538710269767972
0.491000000000000325,-2.672166504521033215
0.492000000000000326,-2.669758291697670760
0.493000000000000327,-2.667310096511427808
0.494000000000000328,-2.664818069580779714
0.495000000000000329,-2.662278486731480154
0.496000000000000330,-2.659687748216587710
0.497000000000000330,-2.657042377860086013
0.498000000000000331,-2.654339022127820691
0.499000000000000332,-2.651574449129710409
0.500000000000000333,-2.648745547556825564
0.501000000000000334,-2.645849325556910436
0.502000000000000335,-2.642882909551913517
0.503000000000000336,-2.639843543000837123
0.504000000000000337,-2.636728585111258738
0.505000000000000338,-2.633535509502661576
0.506000000000000338,-2.630261902824735820
0.507000000000000339,-2.626905463333617963
0.508000000000000340,-2.623463999428961468
0.509000000000000341,-2.619935428154759105
0.510000000000000342,-2.616317773666505531
0.511000000000000343,-2.612609165667487687
0.512000000000000344,-2.608807837816643271
0.513000000000000345,-2.604912126110527471
0.514000000000000346,-2.600920467241786049
0.515000000000000346,-2.596831396936368552
0.516000000000000347,-2.592643548271756693
0.517000000000000348,-2.588355649978393735
0.518000000000000349,-2.583966524726264424
0.519000000000000350,-2.579475087398732658
0.520000000000000351,-2.574880343355484325
0.521000000000000352,-2.570181386686470226
0.522000000000000353,-2.565377398458541514
0.523000000000000353,-2.560467644956570865
0.524000000000000354,-2.555451475920642146
0.525000000000000355,-2.550328322780873513
0.526000000000000356,-2.545097696891379435
0.527000000000000357,-2.539759187764855319
0.528000000000000358,-2.534312461309068176
0.529000000000000359,-2.528757258066678393
0.530000000000000360,-2.523093391459540591
0.531000000000000361,-2.517320746038779866
0.532000000000000361,-2.511439275741720767
0.533000000000000362,-2.505449002156785454
0.534000000000000363,-2.499350012797399323
0.535000000000000364,-2.493142459385874421
0.536000000000000365,-2.486826556148219680
0.537000000000000366,-2.480402578120765256
0.538000000000000367,-2.473870859469402106
0.539000000000000368,-2.467231791822315223
0.540000000000000369,-2.460485822616851337
0.541000000000000369,-2.453633453461332437
0.542000000000000370,-2.446675238512386219
0.543000000000000371,-2.439611782868480461
0.544000000000000372,-2.432443740980231084
0.545000000000000373,-2.425171815078020376
0.546000000000000374,-2.417796753617431182
0.547000000000000375,-2.410319349742983341
0.548000000000000376,-2.402740439770631120
0.549000000000000377,-2.395060901689380461
0.550000000000000377,-2.387281653682447047
0.551000000000000378,-2.379403652668264701
0.552000000000000379,-2.371427892861694975
0.553000000000000380,-2.363355404355691913
0.554000000000000381,-2.355187251723670272
0.555000000000000382,-2.346924532642897354
0.556000000000000383,-2.338568376538944449
0.557000000000000384,-2.330119943251587777
0.558000000000000385,-2.321580421722117649
0.559000000000000385,-2.312951028702342704
0.560000000000000386,-2.304233007485310125
0.561000000000000387,-2.295427626657875031
0.562000000000000388,-2.286536178875158143
0.563000000000000389,-2.277559979656996525
0.564000000000000390,-2.268500366206349650
0.565000000000000391,-2.259358696249736731
0.566000000000000392,-2.250136346899663131
0.567000000000000393,-2.240834713539059386
0.568000000000000393,-2.231455208727636030
0.569000000000000394,-2.221999261130170211
0.570000000000000395,-2.212468314466637498
0.571000000000000396,-2.202863826484075194
0.572000000000000397,-2.193187267950170938
0.573000000000000398,-2.183440121668386968
0.574000000000000399,-2.173623881514573419
0.575000000000000400,-2.163740051494902783
0.576000000000000401,-2.153790144825005637
0.577000000000000401,-2.143775683030206380
0.578000000000000402,-2.133698195066616954
0.579000000000000403,-2.123559216462989951
0.580000000000000404,-2.113360288483177474
0.581000000000000405,-2.103102957308943477
0.582000000000000406,-2.092788773243019484
0.583000000000000407,-2.082419289932148310
0.584000000000000408,-2.071996063609981675
0.585000000000000409,-2.061520652359570160
0.586000000000000409,-2.050994615395249632
0.587000000000000410,-2.040419512363752297
0.588000000000000411,-2.029796902664238178
0.589000000000000412,-2.019128344787117335
0.590000000000000413,-2.008415395671343529
0.591000000000000414,-1.997659610080012360
0.592000000000000415,-1.986862539994017407
0.593000000000000416,-1.976025734023472591
0.594000000000000417,-1.965150736836722700
0.595000000000000417,-1.954239088606703145
0.596000000000000418,-1.943292324474291011
0.597000000000000419,-1.932311974028583679
0.598000000000000420,-1.921299560803654938
0.599000000000000421,-1.910256601791705533
0.600000000000000422,-1.899184606972244449
0.601000000000000423,-1.888085078857092869
0.602000000000000424,-1.876959512050954570
0.603000000000000425,-1.865809392827304736
0.604000000000000425,-1.854636198719296303
0.605000000000000426,-1.843441398125483799
0.606000000000000427,-1.832226449930120626
0.607000000000000428,-1.820992803137639893
0.608000000000000429,-1.809741896521314786
0.609000000000000430,-1.798475158285538500
0.610000000000000431,-1.787194005741759906
0.611000000000000432,-1.775899844997612220
0.612000000000000433,-1.764594070659072145
0.613000000000000433,-1.753278065545424536
