# TricalciumSilicate-Wet-010_HMD
# h[nm],U(h)[kJ/mol]
0.149999999999999994,121.902022005746601963
0.150999999999999995,118.688122701880075738
0.151999999999999996,116.085825132544044891
0.152999999999999997,113.609553518149596130
0.153999999999999998,111.094860560712362485
0.154999999999999999,108.523572567976344772
0.156000000000000000,105.930823788790391404
0.157000000000000001,103.359868398321665950
0.158000000000000002,100.843526455944953568
0.159000000000000002,98.399498517412283149
0.160000000000000003,96.032108201930796554
0.161000000000000004,93.736346812993900812
0.162000000000000005,91.502103374806267766
0.163000000000000006,89.317638174883541069
0.164000000000000007,87.172009830765603056
0.165000000000000008,85.056498783945215791
0.166000000000000009,82.965215127039897425
0.167000000000000010,80.895118610007600068
0.168000000000000010,78.845664553336462177
0.169000000000000011,76.818251586968457900
0.170000000000000012,74.815602847853043045
0.171000000000000013,72.841170532326302123
0.172000000000000014,70.898618595781101703
0.173000000000000015,68.991411152388124606
0.174000000000000016,67.122514446875754857
0.175000000000000017,65.294207114125811131
0.176000000000000018,63.507985522091544794
0.177000000000000018,61.764547030632719782
0.178000000000000019,60.063832856708970098
0.179000000000000020,58.405112973495782569
0.180000000000000021,56.787097348698623023
0.181000000000000022,55.208060293425127441
0.182000000000000023,53.665967354629948716
0.183000000000000024,52.158596777808483580
0.184000000000000025,50.683649929075045293
0.185000000000000026,49.238847108609874681
0.186000000000000026,47.822006875742538057
0.187000000000000027,46.431108341013576535
0.188000000000000028,45.064336886853631370
0.189000000000000029,43.720114493651564658
0.190000000000000030,42.397116315618390558
0.191000000000000031,41.094275415802215434
0.192000000000000032,39.810777674623679445
0.193000000000000033,38.546048870133141406
0.194000000000000034,37.299735824630133152
0.195000000000000034,36.071683349771191729
0.196000000000000035,34.861908524060915227
0.197000000000000036,33.670573621027386935
0.198000000000000037,32.497958787457392305
0.199000000000000038,31.344435359089054316
0.200000000000000039,30.210440503272330659
0.201000000000000040,29.096453698887906114
0.202000000000000041,28.002975405805337061
0.203000000000000042,26.930508140337583001
0.204000000000000042,25.879540059312073907
0.205000000000000043,24.850531062505535118
0.206000000000000044,23.843901349687392610
0.207000000000000045,22.860022312462206173
0.208000000000000046,21.899209600394073050
0.209000000000000047,20.961718173398246279
0.210000000000000048,20.047739136010743977
0.211000000000000049,19.157398141929093072
0.212000000000000050,18.290755157346506365
0.213000000000000050,17.447805377461556020
0.214000000000000051,16.628481100704220808
0.215000000000000052,15.832654378451408661
0.216000000000000053,15.060140273270087974
0.217000000000000054,14.310700575159525982
0.218000000000000055,13.584047842167127129
0.219000000000000056,12.879849648570257159
0.220000000000000057,12.197732940117390399
0.221000000000000058,11.537288411297343060
0.222000000000000058,10.898074834021734603
0.223000000000000059,10.279623280328765489
0.224000000000000060,9.681441193658137934
0.225000000000000061,9.103016273883186571
0.226000000000000062,8.543820150627329468
0.227000000000000063,8.003311827481642382
0.228000000000000064,7.480940886644171783
0.229000000000000065,6.976150449300369871
0.230000000000000066,6.488379891851191239
0.231000000000000066,6.017067321965358317
0.232000000000000067,5.561651821486316649
0.233000000000000068,5.121575465557394402
0.234000000000000069,4.696285129036862571
0.235000000000000070,4.285234092444852649
0.236000000000000071,3.887883460401554636
0.237000000000000072,3.503703405853914710
0.238000000000000073,3.132174253417535859
0.239000000000000073,2.772787414942961881
0.240000000000000074,2.425046190002499991
0.241000000000000075,2.088466443437099862
0.242000000000000076,1.762577171440202317
0.243000000000000077,1.446920966922663698
0.244000000000000078,1.141054394129515703
0.245000000000000079,0.844548281689125657
0.246000000000000080,0.556987942488266441
0.247000000000000081,0.277973327996972608
0.248000000000000081,0.007119123928849902
0.249000000000000082,-0.255945206576980389
0.250000000000000111,-0.511575426720508153
0.251000000000000112,-0.760112571824055672
0.252000000000000113,-1.001883032760268355
0.253000000000000114,-1.237198673149962680
0.254000000000000115,-1.466356976905566434
0.255000000000000115,-1.689641223093477418
0.256000000000000116,-1.907320685440562880
0.257000000000000117,-2.119650854116124972
0.258000000000000118,-2.326873677684874409
0.259000000000000119,-2.529217823353206995
0.260000000000000120,-2.726898953823131855
0.261000000000000121,-2.920120019228555019
0.262000000000000122,-3.109071562762828922
0.263000000000000123,-3.293932038715551069
0.264000000000000123,-3.474868141726084936
0.265000000000000124,-3.652035146132236232
0.266000000000000125,-3.825577254349693312
0.267000000000000126,-3.995627953261926102
0.268000000000000127,-4.162310377635824565
0.269000000000000128,-4.325737679604988450
0.270000000000000129,-4.486013403284595746
0.271000000000000130,-4.643231863599278419
0.272000000000000131,-4.797478528420212385
0.273000000000000131,-4.948830403121159627
0.274000000000000132,-5.097356416676174895
0.275000000000000133,-5.243117808435305172
0.276000000000000134,-5.386168514728979062
0.277000000000000135,-5.526555554467748266
0.278000000000000136,-5.664319412922486308
0.279000000000000137,-5.799494422890044021
0.280000000000000138,-5.932109142472083541
0.281000000000000139,-6.062186728720059925
0.282000000000000139,-6.189745306426576832
0.283000000000000140,-6.314798331373276064
0.284000000000000141,-6.437354947377514236
0.285000000000000142,-6.557420336514107717
0.286000000000000143,-6.674996061924440838
0.287000000000000144,-6.790080402662549197
0.288000000000000145,-6.902668680067225004
0.289000000000000146,-7.012753575188455102
0.290000000000000147,-7.120325436838081501
0.291000000000000147,-7.225372579875454448
0.292000000000000148,-7.327881573381098690
0.293000000000000149,-7.427837518412731654
0.294000000000000150,-7.525224315080007997
0.295000000000000151,-7.620024918715522233
0.296000000000000152,-7.712221584960142096
0.297000000000000153,-7.801796103620705303
0.298000000000000154,-7.888730021196923126
0.299000000000000155,-7.973004852011987609
0.300000000000000155,-8.054602277917915387
0.301000000000000156,-8.133504336581376393
0.302000000000000157,-8.209693598389593561
0.303000000000000158,-8.283153332047289652
0.304000000000000159,-8.353867658966192877
0.305000000000000160,-8.421821696576591521
0.306000000000000161,-8.487001690717306701
0.307000000000000162,-8.549395137285056734
0.308000000000000163,-8.608990893346957662
0.309000000000000163,-8.665779277941116021
0.310000000000000164,-8.719752162809367491
0.311000000000000165,-8.770903053323475973
0.312000000000000166,-8.819227159881810607
0.313000000000000167,-8.864721460067224612
0.314000000000000168,-8.907384751868795192
0.315000000000000169,-8.947217698280677922
0.316000000000000170,-8.984222863599926612
0.317000000000000171,-9.018404741752405585
0.318000000000000171,-9.049769776981444025
0.319000000000000172,-9.078326377238559175
0.320000000000000173,-9.104084920617969701
0.321000000000000174,-9.127057755178579868
0.322000000000000175,-9.147259192497477542
0.323000000000000176,-9.164705495298154148
0.324000000000000177,-9.179414859494979595
0.325000000000000178,-9.191407390992427651
0.326000000000000179,-9.200705077574351520
0.327000000000000179,-9.207331756213338991
0.328000000000000180,-9.211313076125424715
0.329000000000000181,-9.212676457889260817
0.330000000000000182,-9.211451048941757591
0.331000000000000183,-9.207667675755766723
0.332000000000000184,-9.201358792996671809
0.333000000000000185,-9.192558429947336407
0.334000000000000186,-9.181302134481748922
0.335000000000000187,-9.167626914858981735
0.336000000000000187,-9.151571179599923056
0.337000000000000188,-9.133174675699446965
0.338000000000000189,-9.112478425417601002
0.339000000000000190,-9.089524661883091383
0.340000000000000191,-9.064356763732758893
0.341000000000000192,-9.037019189000854880
0.342000000000000193,-9.007557408461707382
0.343000000000000194,-8.976017838619855027
0.344000000000000195,-8.942447774531329330
0.345000000000000195,-8.906895322630557388
0.346000000000000196,-8.869409333727068301
0.347000000000000197,-8.830039336327050847
0.348000000000000198,-8.788835470425178542
0.349000000000000199,-8.745848421902824299
0.350000000000000200,-8.701129357659961983
0.351000000000000201,-8.654729861598855933
0.352000000000000202,-8.606701871569203632
0.353000000000000203,-8.557097617376010490
0.354000000000000203,-8.505969559943105551
0.355000000000000204,-8.453370331717401598
0.356000000000000205,-8.399352678391355909
0.357000000000000206,-8.343969402013632575
0.358000000000000207,-8.287273305550737490
0.359000000000000208,-8.229317138955646982
0.360000000000000209,-8.170153546792871424
0.361000000000000210,-8.109835017462836859
0.362000000000000210,-8.048413834062717598
0.363000000000000211,-7.985942026914780278
0.364000000000000212,-7.922471327788085382
0.365000000000000213,-7.858053125833779795
0.366000000000000214,-7.792738425249626566
0.367000000000000215,-7.726577804684353623
0.368000000000000216,-7.659621378388258961
0.369000000000000217,-7.591918759111972115
0.370000000000000218,-7.523519022751642638
0.371000000000000218,-7.454470674734833047
0.372000000000000219,-7.384821618138081689
0.373000000000000220,-7.314619123523803168
0.374000000000000221,-7.243909800481178607
0.375000000000000222,-7.172739570852752600
0.376000000000000223,-7.101153643626121337
0.377000000000000224,-7.029196491467418539
0.378000000000000225,-6.956911828871277237
0.379000000000000226,-6.884342591899816455
0.380000000000000226,-6.811530919481566748
0.381000000000000227,-6.738518136239252776
0.382000000000000228,-6.665344736814271975
0.383000000000000229,-6.592050371654051943
0.384000000000000230,-6.518673834227366015
0.385000000000000231,-6.445253049631878284
0.386000000000000232,-6.371825064556929874
0.387000000000000233,-6.298426038564138629
0.388000000000000234,-6.225091236647498860
0.389000000000000234,-6.151855023034430658
0.390000000000000235,-6.078750856188483986
0.391000000000000236,-6.005811284974479136
0.392000000000000237,-5.933067945946264743
0.393000000000000238,-5.860551561717640467
0.394000000000000239,-5.788291940376458555
0.395000000000000240,-5.716317975902449611
0.396000000000000241,-5.644657649549206901
0.397000000000000242,-5.573338032150942034
0.398000000000000242,-5.502385287315223472
0.399000000000000243,-5.431824675462837426
0.400000000000000244,-5.361680558676564345
0.401000000000000245,-5.291976406321234450
0.402000000000000246,-5.222734801397566073
0.403000000000000247,-5.153977447593141470
0.404000000000000248,-5.085725176994417396
0.405000000000000249,-5.017997958424190941
0.406000000000000250,-4.950814906369672919
0.407000000000000250,-4.884194290467044119
0.408000000000000251,-4.818153545508965685
0.409000000000000252,-4.752709281942435027
0.410000000000000253,-4.687877296824921380
0.411000000000000254,-4.623672585207710739
0.412000000000000255,-4.560109351915969889
0.413000000000000256,-4.497201023696081101
0.414000000000000257,-4.434960261701286655
0.415000000000000258,-4.373398974287910690
0.416000000000000258,-4.312528330094824724
0.417000000000000259,-4.252358771380015057
0.418000000000000260,-4.192900027588714273
0.419000000000000261,-4.134161129128417045
0.420000000000000262,-4.076150421327054296
0.421000000000000263,-4.018875578551299732
0.422000000000000264,-3.962343618462791817
0.423000000000000265,-3.906560916390946936
0.424000000000000266,-3.851533219801878349
0.425000000000000266,-3.797265662843519074
0.426000000000000267,-3.743762780948100222
0.427000000000000268,-3.691028525473741162
0.428000000000000269,-3.639066278367711682
0.429000000000000270,-3.587878866834754099
0.430000000000000271,-3.537468577994426600
0.431000000000000272,-3.487837173512386979
0.432000000000000273,-3.438985904191007137
0.433000000000000274,-3.390915524505623946
0.434000000000000274,-3.343626307073238824
0.435000000000000275,-3.297118057041274142
0.436000000000000276,-3.251390126384622103
0.437000000000000277,-3.206441428099746194
0.438000000000000278,-3.162270450285416867
0.439000000000000279,-3.118875270100126329
0.440000000000000280,-3.076253567586823667
0.441000000000000281,-3.034402639356249765
0.442000000000000282,-2.993319412120702960
0.443000000000000282,-2.953000456070498103
0.444000000000000283,-2.913441998086089946
0.445000000000000284,-2.874639934779197770
0.446000000000000285,-2.836589845356713102
0.447000000000000286,-2.799287004301982851
0.448000000000000287,-2.762726393867952268
0.449000000000000288,-2.726902716377736180
0.450000000000000289,-2.691810406328071004
0.451000000000000290,-2.657443642291867469
0.452000000000000290,-2.623796358616333979
0.453000000000000291,-2.590862256913516237
0.454000000000000292,-2.558634817340577960
0.455000000000000293,-2.527107309667318891
0.456000000000000294,-2.496272804128979672
0.457000000000000295,-2.466124182062530146
0.458000000000000296,-2.436654146325059944
0.459000000000000297,-2.407855231493125192
0.460000000000000298,-2.379719813842242626
0.461000000000000298,-2.352240121105939163
0.462000000000000299,-2.325408242014098903
0.463000000000000300,-2.299216135610484990
0.464000000000000301,-2.273655640349694362
0.465000000000000302,-2.248718482973904198
0.466000000000000303,-2.224396287170041564
0.467000000000000304,-2.200680582008167185
0.468000000000000305,-2.177562810162169349
0.469000000000000306,-2.155034335913831534
0.470000000000000306,-2.133086452941781452
0.471000000000000307,-2.111710391896695072
0.472000000000000308,-2.090897327764564828
0.473000000000000309,-2.070638387019748894
0.474000000000000310,-2.050924654569803884
0.475000000000000311,-2.031747180494132277
0.476000000000000312,-2.013096986578717384
0.477000000000000313,-1.994965072649104609
0.478000000000000314,-1.977342422704154501
0.479000000000000314,-1.960220010853005235
0.480000000000000315,-1.943588807057778922
0.481000000000000316,-1.927439782684781999
0.482000000000000317,-1.911763915866815378
0.483000000000000318,-1.896552196679470281
0.484000000000000319,-1.881795632134186658
0.485000000000000320,-1.867485250991058887
0.486000000000000321,-1.853612108394252278
0.487000000000000322,-1.840167290333080796
0.488000000000000322,-1.827141917931725201
0.489000000000000323,-1.814527151570713981
0.490000000000000324,-1.802314194843191997
0.491000000000000325,-1.790494298349125657
0.492000000000000326,-1.779058763330524373
0.493000000000000327,-1.767998945150887069
0.494000000000000328,-1.757306256621961493
0.495000000000000329,-1.746972171180999123
0.496000000000000330,-1.736988225921664242
0.497000000000000330,-1.727346024481752007
0.498000000000000331,-1.718037239790848547
0.499000000000000332,-1.709053616681119880
0.500000000000000333,-1.700386974364340942
0.501000000000000334,-1.692029208778262017
0.502000000000000335,-1.683972294805472503
0.503000000000000336,-1.676208288367818877
0.504000000000000337,-1.668729328399446432
0.505000000000000338,-1.661527638701511878
0.506000000000000338,-1.654595529681615051
0.507000000000000339,-1.647925399980900707
0.508000000000000340,-1.641509737991827311
0.509000000000000341,-1.635341123269552055
0.510000000000000342,-1.629412227839805327
0.511000000000000343,-1.623715817406151674
0.512000000000000344,-1.618244752459479852
0.513000000000000345,-1.612991989292500650
0.514000000000000346,-1.607950580922077322
0.515000000000000346,-1.603113677922052505
0.516000000000000347,-1.598474529169295888
0.517000000000000348,-1.594026482505678022
0.518000000000000349,-1.589762985318474708
0.519000000000000350,-1.585677585041873172
0.520000000000000351,-1.581763929582079786
0.521000000000000352,-1.578015767668528913
0.522000000000000353,-1.574426949133601816
0.523000000000000353,-1.570991425123336782
0.524000000000000354,-1.567703248241444580
0.525000000000000355,-1.564556572628964970
0.526000000000000356,-1.561545653981827320
0.527000000000000357,-1.558664849508607730
0.528000000000000358,-1.555908617830598528
0.529000000000000359,-1.553271518826396136
0.530000000000000360,-1.550748213423087218
0.531000000000000361,-1.548333463336113214
0.532000000000000361,-1.546022130759807656
0.533000000000000362,-1.543809178010618677
0.534000000000000363,-1.541689667124912289
0.535000000000000364,-1.539658759413275568
0.536000000000000365,-1.537711714973154953
0.537000000000000366,-1.535843892161641300
0.538000000000000367,-1.534050747030146544
0.539000000000000368,-1.532327832722747640
0.540000000000000369,-1.530670798839798952
0.541000000000000369,-1.529075390768536602
0.542000000000000370,-1.527537448982205337
0.543000000000000371,-1.526052908309313061
0.544000000000000372,-1.524617797174517175
0.545000000000000373,-1.523228236812621983
0.546000000000000374,-1.521880440457130668
0.547000000000000375,-1.520570712504749178
0.548000000000000376,-1.519295447657239562
0.549000000000000377,-1.518051130041903729
0.550000000000000377,-1.516834332312022138
0.551000000000000378,-1.515641714728496625
0.552000000000000379,-1.514470024223915079
0.553000000000000380,-1.513316093450225441
0.554000000000000381,-1.512176839811155471
0.555000000000000382,-1.511049264480538001
0.556000000000000383,-1.509930451407546448
0.557000000000000384,-1.508817566309995417
0.558000000000000385,-1.507707855656604812
0.559000000000000385,-1.506598645639336764
0.560000000000000386,-1.505487341136645840
0.561000000000000387,-1.504371424668656587
0.562000000000000388,-1.503248455345107759
0.563000000000000389,-1.502116067806951616
0.564000000000000390,-1.500971971162435414
0.565000000000000391,-1.499813947918481771
0.566000000000000392,-1.498639852908127068
0.567000000000000393,-1.497447612214812818
0.568000000000000393,-1.496235222094193906
0.569000000000000394,-1.495000747894223325
0.570000000000000395,-1.493742322974156878
0.571000000000000396,-1.492458147623118014
0.572000000000000397,-1.491146487978897373
0.573000000000000398,-1.489805674947515257
0.574000000000000399,-1.488434103124196550
0.575000000000000400,-1.487030229716264973
0.576000000000000401,-1.485592573468501154
0.577000000000000401,-1.484119713591508516
0.578000000000000402,-1.482610288693528622
0.579000000000000403,-1.481062995716193820
0.580000000000000404,-1.479476588874696796
0.581000000000000405,-1.477849878602760736
0.582000000000000406,-1.476181730502848843
0.583000000000000407,-1.474471064302001588
0.584000000000000408,-1.472716852813678257
0.585000000000000409,-1.470918120905939208
0.586000000000000409,-1.469073944476343430
0.587000000000000410,-1.467183449433861364
0.588000000000000411,-1.465245810688097894
0.589000000000000412,-1.463260251146165203
0.590000000000000413,-1.461226040717407582
0.591000000000000414,-1.459142495326314570
0.592000000000000415,-1.457008975933812289
0.593000000000000416,-1.454824887567193192
0.594000000000000417,-1.452589678358889191
0.595000000000000417,-1.450302838594318411
0.596000000000000418,-1.447963899768940355
0.597000000000000419,-1.445572433654785272
0.598000000000000420,-1.443128051376530330
0.599000000000000421,-1.440630402497357521
0.600000000000000422,-1.438079174114693881
0.601000000000000423,-1.435474089965968147
0.602000000000000424,-1.432814909544535054
0.603000000000000425,-1.430101427225857647
0.604000000000000425,-1.427333471404035325
0.605000000000000426,-1.424510903638809722
0.606000000000000427,-1.421633617813121031
0.607000000000000428,-1.418701539301218784
0.608000000000000429,-1.415714624147553113
0.609000000000000430,-1.412672858256294406
0.610000000000000431,-1.409576256591730248
0.611000000000000432,-1.406424862389441754
0.612000000000000433,-1.403218746378338766
0.613000000000000433,-1.399958006013625633
