# TricalciumSilicate-Wet-010_CS-1057-AC
# h[nm],U(h)[kJ/mol]
0.149999999999999994,116.073864111881078998
0.150999999999999995,113.791956759426369672
0.151999999999999996,111.300362144166200551
0.152999999999999997,108.792524654352632751
0.153999999999999998,106.346457997592594324
0.154999999999999999,103.981456210421853825
0.156000000000000000,101.690838167502420220
0.157000000000000001,99.459702908756966622
0.158000000000000002,97.273622668811896119
0.159000000000000002,95.122107527037627506
0.160000000000000003,92.999258545116788355
0.161000000000000004,90.903081974027003298
0.162000000000000005,88.834320010985052818
0.163000000000000006,86.795260127067592748
0.164000000000000007,84.788742151524871815
0.165000000000000008,82.817439098815796683
0.166000000000000009,80.883408951508613427
0.167000000000000010,78.987876280321216882
0.168000000000000010,77.131188613903532314
0.169000000000000011,75.312892304446194203
0.170000000000000012,73.531879512492039908
0.171000000000000013,71.786567680983793593
0.172000000000000014,70.075083035219137173
0.173000000000000015,68.395428908846454874
0.174000000000000016,66.745627447024773460
0.175000000000000017,65.123829301252470714
0.176000000000000018,63.528390378949310957
0.177000000000000018,61.957917744448877784
0.178000000000000019,60.411288637311614025
0.179000000000000020,58.887647534738462696
0.180000000000000021,57.386386473124716190
0.181000000000000022,55.907113662723780578
0.182000000000000023,54.449614945666155563
0.183000000000000024,53.013811992003752493
0.184000000000000025,51.599720399352612787
0.185000000000000026,50.207410129565985812
0.186000000000000026,48.836970028252423504
0.187000000000000027,47.488477559282230800
0.188000000000000028,46.161974362237181424
0.189000000000000029,44.857447811387793024
0.190000000000000030,43.574818418384680285
0.191000000000000031,42.313932670839747630
0.192000000000000032,41.074560725914849968
0.193000000000000033,39.856398271058573357
0.194000000000000034,38.659071811885176828
0.195000000000000034,37.482146638934011662
0.196000000000000035,36.325136750551806131
0.197000000000000036,35.187516059343714403
0.198000000000000037,34.068730276695305292
0.199000000000000038,32.968208947174950652
0.200000000000000039,31.885377186793629534
0.201000000000000040,30.819666761850765369
0.202000000000000041,29.770526225170396373
0.203000000000000042,28.737429901551372780
0.204000000000000042,27.719885582585970241
0.205000000000000043,26.717440851647022981
0.206000000000000044,25.729688012302695199
0.207000000000000045,24.756267637602292098
0.208000000000000046,23.796870793795253718
0.209000000000000047,22.851240020535719566
0.210000000000000048,21.919169171081925640
0.211000000000000049,21.000502231113522100
0.212000000000000050,20.095131244303285456
0.213000000000000050,19.202993477458555560
0.214000000000000051,18.324067958633463604
0.215000000000000052,17.458371518827629387
0.216000000000000053,16.605954462395235538
0.217000000000000054,15.766895983703360429
0.218000000000000055,14.941299438448112369
0.219000000000000056,14.129287567847281792
0.220000000000000057,13.330997763093467512
0.221000000000000058,12.546577446336717898
0.222000000000000058,11.776179633356640863
0.223000000000000059,11.019958732234579557
0.224000000000000060,10.278066621929806246
0.225000000000000061,9.550649044852088210
0.226000000000000062,8.837842338412674081
0.227000000000000063,8.139770522199263780
0.228000000000000064,7.456542749903858791
0.229000000000000065,6.788251128450356831
0.230000000000000066,6.134968900925853674
0.231000000000000066,5.496748984890400536
0.232000000000000067,4.873622853400126687
0.233000000000000068,4.265599742580818088
0.234000000000000069,3.672666166788879138
0.235000000000000070,3.094785720237516191
0.236000000000000071,2.531899142393554847
0.237000000000000072,1.983924623403461762
0.238000000000000073,1.450758325230952384
0.239000000000000073,0.932275094024838880
0.240000000000000074,0.428329339426873623
0.241000000000000075,-0.061243942971764297
0.242000000000000076,-0.536628029064224021
0.243000000000000077,-0.998023225628428157
0.244000000000000078,-1.445645552640010489
0.245000000000000079,-1.879725368184575585
0.246000000000000080,-2.300505954301201861
0.247000000000000081,-2.708242080672166541
0.248000000000000081,-3.103198561618488949
0.249000000000000082,-3.485648820393591141
0.250000000000000111,-3.855873473307398935
0.251000000000000112,-4.214158944777847360
0.252000000000000113,-4.560796123011908954
0.253000000000000114,-4.896079064672581360
0.254000000000000115,-5.220303755606389373
0.255000000000000115,-5.533766933489803641
0.256000000000000116,-5.836764977112386177
0.257000000000000117,-6.129592865950972858
0.258000000000000118,-6.412543212704908235
0.259000000000000119,-6.685905370560146999
0.260000000000000120,-6.949964616128177397
0.261000000000000121,-7.205001408262991625
0.262000000000000122,-7.451290722295729196
0.263000000000000123,-7.689101458637246367
0.264000000000000123,-7.918695924182803658
0.265000000000000124,-8.140329384505264443
0.266000000000000125,-8.354249684441288792
0.267000000000000126,-8.560696934353561716
0.268000000000000127,-8.759903259088826388
0.269000000000000128,-8.952092606440256617
0.270000000000000129,-9.137480611760770088
0.271000000000000130,-9.316274515256873556
0.272000000000000131,-9.488673128415502589
0.273000000000000131,-9.654866845976600942
0.274000000000000132,-9.815037699856544506
0.275000000000000133,-9.969359451449882670
0.276000000000000134,-10.117997718784147665
0.277000000000000135,-10.261110135072412319
0.278000000000000136,-10.398846535297829874
0.279000000000000137,-10.531349167569889147
0.280000000000000138,-10.658752926111448645
0.281000000000000139,-10.781185602866431239
0.282000000000000139,-10.898768154857503276
0.283000000000000140,-11.011614984569622067
0.284000000000000141,-11.119834230786674212
0.285000000000000142,-11.223528067463274027
0.286000000000000143,-11.322793008370219070
0.287000000000000144,-11.417720215408674989
0.288000000000000145,-11.508395808644797498
0.289000000000000146,-11.594901176269676313
0.290000000000000147,-11.677313282841760511
0.291000000000000147,-11.755704974315722922
0.292000000000000148,-11.830145278505876050
0.293000000000000149,-11.900699699770260764
0.294000000000000150,-11.967430506835070148
0.295000000000000151,-12.030397012806714585
0.296000000000000152,-12.089655846540313888
0.297000000000000153,-12.145261214649085701
0.298000000000000154,-12.197265153548235261
0.299000000000000155,-12.245717771029848819
0.300000000000000155,-12.290667476961743887
0.301000000000000156,-12.332161202793304966
0.302000000000000157,-12.370244609635255628
0.303000000000000158,-12.404962284757690583
0.304000000000000159,-12.436357926422671127
0.305000000000000160,-12.464474517032764211
0.306000000000000161,-12.489354484637377851
0.307000000000000162,-12.511039852892920976
0.308000000000000163,-12.529572379621914280
0.309000000000000163,-12.544993684160306913
0.310000000000000164,-12.557345363721605480
0.311000000000000165,-12.566669099040661095
0.312000000000000166,-12.573006749590733833
0.313000000000000167,-12.576400438693269734
0.314000000000000168,-12.576892628862225365
0.315000000000000169,-12.574526187743503058
0.316000000000000170,-12.569344445025443235
0.317000000000000171,-12.561391240708369210
0.318000000000000171,-12.550710965130431163
0.319000000000000172,-12.537348591153817168
0.320000000000000173,-12.521349698919207682
0.321000000000000174,-12.502760493578328749
0.322000000000000175,-12.481627816414235355
0.323000000000000176,-12.457999149756883384
0.324000000000000177,-12.431922616097661916
0.325000000000000178,-12.403446971801194820
0.326000000000000179,-12.372621595806403860
0.327000000000000179,-12.339496473700432233
0.328000000000000180,-12.304122177540465444
0.329000000000000181,-12.266549841788663144
0.330000000000000182,-12.226831135714428811
0.331000000000000183,-12.185018232607486510
0.332000000000000184,-12.141163776132811947
0.333000000000000185,-12.095320844146639772
0.334000000000000186,-12.047542910279819495
0.335000000000000187,-11.997883803581933293
0.336000000000000187,-11.946397666506641144
0.337000000000000188,-11.893138911505090505
0.338000000000000189,-11.838162176481509036
0.339000000000000190,-11.781522279351410276
0.340000000000000191,-11.723274171929753962
0.341000000000000192,-11.663472893363623584
0.342000000000000193,-11.602173523310668202
0.343000000000000194,-11.539431135052341304
0.344000000000000195,-11.475300748718018085
0.345000000000000195,-11.409837284784568823
0.346000000000000196,-11.343095518003419642
0.347000000000000197,-11.275130031896166471
0.348000000000000198,-11.205995173948281263
0.349000000000000199,-11.135745011619800238
0.350000000000000200,-11.064433289281382145
0.351000000000000201,-10.992113386173986811
0.352000000000000202,-10.918838275480897693
0.353000000000000203,-10.844660484591383209
0.354000000000000203,-10.769632056626557315
0.355000000000000204,-10.693804513289325797
0.356000000000000205,-10.617228819092414227
0.357000000000000206,-10.539955347010794284
0.358000000000000207,-10.462033845597231263
0.359000000000000208,-10.383513407593245148
0.360000000000000209,-10.304442440060910258
0.361000000000000210,-10.224868636054887716
0.362000000000000210,-10.144838947848359823
0.363000000000000211,-10.064399561721055321
0.364000000000000212,-9.983595874312580776
0.365000000000000213,-9.902472470539402494
0.366000000000000214,-9.821073103069666743
0.367000000000000215,-9.739440673345688637
0.368000000000000216,-9.657617214140501005
0.369000000000000217,-9.575643873631074499
0.370000000000000218,-9.493560900967946026
0.371000000000000218,-9.411407633317812937
0.372000000000000219,-9.329222484353220324
0.373000000000000220,-9.247042934161006755
0.374000000000000221,-9.164905520539061712
0.375000000000000222,-9.082845831648873158
0.376000000000000223,-9.000898499989983037
0.377000000000000224,-8.919097197660638798
0.378000000000000225,-8.837474632867815316
0.379000000000000226,-8.756062547648626904
0.380000000000000226,-8.674891716764330241
0.381000000000000227,-8.593991947727070979
0.382000000000000228,-8.513392081919295862
0.383000000000000229,-8.433119996765022108
0.384000000000000230,-8.353202608911823646
0.385000000000000231,-8.273665878382477246
0.386000000000000232,-8.194534813654765770
0.387000000000000233,-8.115833477628241255
0.388000000000000234,-8.037584994436716812
0.389000000000000234,-7.959811557065670229
0.390000000000000235,-7.882534435733818512
0.391000000000000236,-7.805773986998782554
0.392000000000000237,-7.729549663547020444
0.393000000000000238,-7.653880024628904266
0.394000000000000239,-7.578782747100286876
0.395000000000000240,-7.504274637032720463
0.396000000000000241,-7.430371641855032294
0.397000000000000242,-7.357088862989783706
0.398000000000000242,-7.284440568949065664
0.399000000000000243,-7.212440208854620671
0.400000000000000244,-7.141100426348347519
0.401000000000000245,-7.070433073860217910
0.402000000000000246,-7.000449227201182900
0.403000000000000247,-6.931159200449952706
0.404000000000000248,-6.862572561103227997
0.405000000000000249,-6.794698145460055017
0.406000000000000250,-6.727544074211790459
0.407000000000000250,-6.661117768210260692
0.408000000000000251,-6.595425964387578333
0.409000000000000252,-6.530474731802099697
0.410000000000000253,-6.466269487785886838
0.411000000000000254,-6.402815014170140095
0.412000000000000255,-6.340115473565817616
0.413000000000000256,-6.278174425677849335
0.414000000000000257,-6.216994843632018153
0.415000000000000258,-6.156579130294751678
0.416000000000000258,-6.096929134566797970
0.417000000000000259,-6.038046167632754369
0.418000000000000260,-5.979931019149292482
0.419000000000000261,-5.922583973355696862
0.420000000000000262,-5.866004825091331476
0.421000000000000263,-5.810192895705402094
0.422000000000000264,-5.755147048845115521
0.423000000000000265,-5.700865706109272679
0.424000000000000266,-5.647346862555121305
0.425000000000000266,-5.594588102046804678
0.426000000000000267,-5.542586612434811322
0.427000000000000268,-5.491339200556300426
0.428000000000000269,-5.440842307046970916
0.429000000000000270,-5.391092020955849051
0.430000000000000271,-5.342084094154874840
0.431000000000000272,-5.293813955536028182
0.432000000000000273,-5.246276724989094475
0.433000000000000274,-5.199467227153995452
0.434000000000000274,-5.153380004941974235
0.435000000000000275,-5.108009332820621751
0.436000000000000276,-5.063349229858223666
0.437000000000000277,-5.019393472523332456
0.438000000000000278,-4.976135607236060743
0.439000000000000279,-4.933568962668085867
0.440000000000000280,-4.891686661788621215
0.441000000000000281,-4.850481633654238678
0.442000000000000282,-4.809946624940806714
0.443000000000000282,-4.770074211216033255
0.444000000000000283,-4.730856807951745679
0.445000000000000284,-4.692286681275179561
0.446000000000000285,-4.654355958458912035
0.447000000000000286,-4.617056638149653836
0.448000000000000287,-4.580380600335973718
0.449000000000000288,-4.544319616055768840
0.450000000000000289,-4.508865356844273364
0.451000000000000290,-4.474009403923761674
0.452000000000000290,-4.439743257136430366
0.453000000000000291,-4.406058343621948481
0.454000000000000292,-4.372946026241684159
0.455000000000000293,-4.340397611751541262
0.456000000000000294,-4.308404358725716143
0.457000000000000295,-4.276957485233799261
0.458000000000000296,-4.246048176273789387
0.459000000000000297,-4.215667590963808387
0.460000000000000298,-4.185806869495367621
0.461000000000000298,-4.156457139851256422
0.462000000000000299,-4.127609524291208309
0.463000000000000300,-4.099255145608521111
0.464000000000000301,-4.071385133161144587
0.465000000000000302,-4.043990628680568911
0.466000000000000303,-4.017062791862132443
0.467000000000000304,-3.990592805740316606
0.468000000000000305,-3.964571881852787527
0.469000000000000306,-3.938991265196848612
0.470000000000000306,-3.913842238982208954
0.471000000000000307,-3.889116129183781023
0.472000000000000308,-3.864804308898546203
0.473000000000000309,-3.840898202510259374
0.474000000000000310,-3.817389289666044849
0.475000000000000311,-3.794269109068765911
0.476000000000000312,-3.771529262089234003
0.477000000000000313,-3.749161416202111408
0.478000000000000314,-3.727157308249621881
0.479000000000000314,-3.705508747536993663
0.480000000000000315,-3.684207618763581937
0.481000000000000316,-3.663245884793735918
0.482000000000000317,-3.642615589271263055
0.483000000000000318,-3.622308859081479149
0.484000000000000319,-3.602317906664750158
0.485000000000000320,-3.582635032185413682
0.486000000000000321,-3.563252625559940157
0.487000000000000322,-3.544163168348148929
0.488000000000000322,-3.525359235511277056
0.489000000000000323,-3.506833497040678704
0.490000000000000324,-3.488578719460861954
0.491000000000000325,-3.470587767210517427
0.492000000000000326,-3.452853603905180258
0.493000000000000327,-3.435369293485162068
0.494000000000000328,-3.418128001252198178
0.495000000000000329,-3.401122994798404076
0.496000000000000330,-3.384347644830887791
0.497000000000000330,-3.367795425895495409
0.498000000000000331,-3.351459917002940436
0.499000000000000332,-3.335334802160681456
0.500000000000000333,-3.319413870813718859
0.501000000000000334,-3.303691018197505436
0.502000000000000335,-3.288160245606086107
0.503000000000000336,-3.272815660578535013
0.504000000000000337,-3.257651477006675123
0.505000000000000338,-3.242662015167039780
0.506000000000000338,-3.227841701679966313
0.507000000000000339,-3.213185069398631022
0.508000000000000340,-3.198686757230809974
0.509000000000000341,-3.184341509896105205
0.510000000000000342,-3.170144177621225801
0.511000000000000343,-3.156089715775987514
0.512000000000000344,-3.142173184452516921
0.513000000000000345,-3.128389747990159897
0.514000000000000346,-3.114734674448553342
0.515000000000000346,-3.101203335031138764
0.516000000000000347,-3.087791203461495826
0.517000000000000348,-3.074493855314750057
0.518000000000000349,-3.061306967306168136
0.519000000000000350,-3.048226316539185632
0.520000000000000351,-3.035247779714862482
0.521000000000000352,-3.022367332304856546
0.522000000000000353,-3.009581047689848798
0.523000000000000353,-2.996885096265339055
0.524000000000000354,-2.984275744516736939
0.525000000000000355,-2.971749354065476467
0.526000000000000356,-2.959302380687976797
0.527000000000000357,-2.946931373309165547
0.528000000000000358,-2.934632972972172738
0.529000000000000359,-2.922403911785877106
0.530000000000000360,-2.910241011851802728
0.531000000000000361,-2.898141184171944662
0.532000000000000361,-2.886101427538934505
0.533000000000000362,-2.874118827410025112
0.534000000000000363,-2.862190554766213424
0.535000000000000364,-2.850313864957889187
0.536000000000000365,-2.838486096538251680
0.537000000000000366,-2.826704670085784521
0.538000000000000367,-2.814967087016929437
0.539000000000000368,-2.803270928390218408
0.540000000000000369,-2.791613853702856751
0.541000000000000369,-2.779993599680975258
0.542000000000000370,-2.768407979064480440
0.543000000000000371,-2.756854879387568680
0.544000000000000372,-2.745332261755868863
0.545000000000000373,-2.733838159621119424
0.546000000000000374,-2.722370677554289298
0.547000000000000375,-2.710927990017990119
0.548000000000000376,-2.699508340139054940
0.549000000000000377,-2.688110038481995812
0.550000000000000377,-2.676731461824168434
0.551000000000000378,-2.665371051933332236
0.552000000000000379,-2.654027314348338606
0.553000000000000380,-2.642698817163581015
0.554000000000000381,-2.631384189817851826
0.555000000000000382,-2.620082121888268389
0.556000000000000383,-2.608791361889734706
0.557000000000000384,-2.597510716080641657
0.558000000000000385,-2.586239047275198377
0.559000000000000385,-2.574975273662995612
0.560000000000000386,-2.563718367636218076
0.561000000000000387,-2.552467354624998741
0.562000000000000388,-2.541221311941313399
0.563000000000000389,-2.529979367631856046
0.564000000000000390,-2.518740699340244582
0.565000000000000391,-2.507504533178951611
0.566000000000000392,-2.496270142611274778
0.567000000000000393,-2.485036847343711663
0.568000000000000393,-2.473804012228973725
0.569000000000000394,-2.462571046179988787
0.570000000000000395,-2.451337401095137203
0.571000000000000396,-2.440102570794924208
0.572000000000000397,-2.428866089970407760
0.573000000000000398,-2.417627533143494212
0.574000000000000399,-2.406386513639387825
0.575000000000000400,-2.395142682571302917
0.576000000000000401,-2.383895727837642031
0.577000000000000401,-2.372645373131812896
0.578000000000000402,-2.361391376964757871
0.579000000000000403,-2.350133531700362433
0.580000000000000404,-2.338871662603867918
0.581000000000000405,-2.327605626903333835
0.582000000000000406,-2.316335312864287399
0.583000000000000407,-2.305060638877590939
0.584000000000000408,-2.293781552560629322
0.585000000000000409,-2.282498029871830703
0.586000000000000409,-2.271210074238586785
0.587000000000000410,-2.259917715698605001
0.588000000000000411,-2.248621010054677516
0.589000000000000412,-2.237320038042944326
0.590000000000000413,-2.226014904514573622
0.591000000000000414,-2.214705737630917604
0.592000000000000415,-2.203392688072109529
0.593000000000000416,-2.192075928259056727
0.594000000000000417,-2.180755651588824229
0.595000000000000417,-2.169432071683409458
0.596000000000000418,-2.158105421651738798
0.597000000000000419,-2.146775953365017031
0.598000000000000420,-2.135443936745198723
0.599000000000000421,-2.124109659066644618
0.600000000000000422,-2.112773424270826261
0.601000000000000423,-2.101435552294030451
0.602000000000000424,-2.090096378407991118
0.603000000000000425,-2.078756252573342067
0.604000000000000425,-2.067415538805830177
0.605000000000000426,-2.056074614555162050
0.606000000000000427,-2.044733870096456574
0.607000000000000428,-2.033393707934069372
0.608000000000000429,-2.022054542217887718
0.609000000000000430,-2.010716798171744646
0.610000000000000431,-1.999380911534089478
