# TricalciumSilicate-Wet-010_CS-6334-AC
# h[nm],U(h)[kJ/mol]
0.149999999999999994,111.970897930238990625
0.150999999999999995,110.185651947669654760
0.151999999999999996,107.845301136640529194
0.152999999999999997,105.400174461697361039
0.153999999999999998,103.029067325985096204
0.154999999999999999,100.775803235846183270
0.156000000000000000,98.626162609484296695
0.157000000000000001,96.548466800890381023
0.158000000000000002,94.512781459288561337
0.159000000000000002,92.498153228509025325
0.160000000000000003,90.493642907871191028
0.161000000000000004,88.496555999141008897
0.162000000000000005,86.509774485711915304
0.163000000000000006,84.539169988930623845
0.164000000000000007,82.591528860032980219
0.165000000000000008,80.673109538876460078
0.166000000000000009,78.788791586646624410
0.167000000000000010,76.941704860376603392
0.168000000000000010,75.133207969730932518
0.169000000000000011,73.363093188568498704
0.170000000000000012,71.629915527738461378
0.171000000000000013,69.931368003994492710
0.172000000000000014,68.264648499023493855
0.173000000000000015,66.626783688868400191
0.174000000000000016,65.014891511481607722
0.175000000000000017,63.426375540711759982
0.176000000000000018,61.859052892036608284
0.177000000000000018,60.311222523281969643
0.178000000000000019,58.781683670887574067
0.179000000000000020,57.269715291107935684
0.180000000000000021,55.775027283359392527
0.181000000000000022,54.297693389872542014
0.182000000000000023,52.838074326684548510
0.183000000000000024,51.396738154962896772
0.184000000000000025,49.974383325245000265
0.185000000000000026,48.571768338087096595
0.186000000000000026,47.189650634590940115
0.187000000000000027,45.828736196565408534
0.188000000000000028,44.489640411038408274
0.189000000000000029,43.172860032724614143
0.190000000000000030,41.878755545157957840
0.191000000000000031,40.607542854465677351
0.192000000000000032,39.359293024225024737
0.193000000000000033,38.133938650025335448
0.194000000000000034,36.931285453897302773
0.195000000000000034,35.751027729416442469
0.196000000000000035,34.592766368473895966
0.197000000000000036,33.456028333760365001
0.198000000000000037,32.340286593153408035
0.199000000000000038,31.244979692393958004
0.200000000000000039,30.169530302140959321
0.201000000000000040,29.113362228341912896
0.202000000000000041,28.075915516376245051
0.203000000000000042,27.056659406705783510
0.204000000000000042,26.055103011157303428
0.205000000000000043,25.070803673841279391
0.206000000000000044,24.103373059209975082
0.207000000000000045,23.152481072591378108
0.208000000000000046,22.217857766808602804
0.209000000000000047,21.299293423572020600
0.210000000000000048,20.396637021725840810
0.211000000000000049,19.509793317708709282
0.212000000000000050,18.638718768301025364
0.213000000000000050,17.783416523377525209
0.214000000000000051,16.943930708353047265
0.215000000000000052,16.120340203580013849
0.216000000000000053,15.312752112271189375
0.217000000000000054,14.521295090581684661
0.218000000000000055,13.746112694157574197
0.219000000000000056,12.987356875477365392
0.220000000000000057,12.245181746278124280
0.221000000000000058,11.519737699769867945
0.222000000000000058,10.811165968572776563
0.223000000000000059,10.119593676666045923
0.224000000000000060,9.445129427315478665
0.225000000000000061,8.787859454093835510
0.226000000000000062,8.147844348801838166
0.227000000000000063,7.525116368368524711
0.228000000000000064,6.919677312648358836
0.229000000000000065,6.331496956393390718
0.230000000000000066,5.760512011498684970
0.231000000000000066,5.206625589806249010
0.232000000000000067,4.669707132211941669
0.233000000000000068,4.149592766439679004
0.234000000000000069,3.646086053516731873
0.235000000000000070,3.158959081588144979
0.236000000000000071,2.687953865135018994
0.237000000000000072,2.232784007799375026
0.238000000000000073,1.793136587764910361
0.239000000000000073,1.368674225898937724
0.240000000000000074,0.959037298531948523
0.241000000000000075,0.563846258757464747
0.242000000000000076,0.182704032395969662
0.243000000000000077,-0.184801542785500678
0.244000000000000078,-0.539095263432224470
0.245000000000000079,-0.880612118728135274
0.246000000000000080,-1.209794883808022359
0.247000000000000081,-1.527091769320051862
0.248000000000000081,-1.832954145397419410
0.249000000000000082,-2.127834355770628072
0.250000000000000111,-2.412183635325380493
0.251000000000000112,-2.686450142102528194
0.252000000000000113,-2.951077112562190852
0.253000000000000114,-3.206501146900112786
0.254000000000000115,-3.453150629322313314
0.255000000000000115,-3.691444286452880696
0.256000000000000116,-3.921789885474385784
0.257000000000000117,-4.144583072177750793
0.258000000000000118,-4.360206347826147244
0.259000000000000119,-4.569028182612102640
0.260000000000000120,-4.771402262502613567
0.261000000000000121,-4.967666865416267008
0.262000000000000122,-5.158144361954365209
0.263000000000000123,-5.343140835304283520
0.264000000000000123,-5.522945814442655532
0.265000000000000124,-5.697832114377626489
0.266000000000000125,-5.868055776877272756
0.267000000000000126,-6.033856104925337860
0.268000000000000127,-6.195455784019212153
0.269000000000000128,-6.353061083368968021
0.270000000000000129,-6.506862130064223315
0.271000000000000130,-6.657033249339487035
0.272000000000000131,-6.803733364181415944
0.273000000000000131,-6.947106447677130703
0.274000000000000132,-7.087282021694631062
0.275000000000000133,-7.224375695709182033
0.276000000000000134,-7.358489739837719590
0.277000000000000135,-7.489713686411652027
0.278000000000000136,-7.618124954703437979
0.279000000000000137,-7.743789493718719719
0.280000000000000138,-7.866762438270401780
0.281000000000000139,-7.987088773861110269
0.282000000000000139,-8.104804006211693945
0.283000000000000140,-8.219934831584719603
0.284000000000000141,-8.332499804359491336
0.285000000000000142,-8.442509998618351830
0.286000000000000143,-8.549969660799968452
0.287000000000000144,-8.654876850763244533
0.288000000000000145,-8.757224068884404744
0.289000000000000146,-8.856998867077070514
0.290000000000000147,-8.954184441882778955
0.291000000000000147,-9.048760208023502116
0.292000000000000148,-9.140702351040788542
0.293000000000000149,-9.229984357865465228
0.294000000000000150,-9.316577524368986118
0.295000000000000151,-9.400451439141438215
0.296000000000000152,-9.481574442922077850
0.297000000000000153,-9.559914063276654161
0.298000000000000154,-9.635437424271307449
0.299000000000000155,-9.708111631036100420
0.300000000000000155,-9.777904129242655173
0.301000000000000156,-9.844783039639763089
0.302000000000000157,-9.908717467899613496
0.303000000000000158,-9.969677790124650940
0.304000000000000159,-10.027635914452636356
0.305000000000000160,-10.082565519274854893
0.306000000000000161,-10.134442268650696306
0.307000000000000162,-10.183244005561352452
0.308000000000000163,-10.228950923696128683
0.309000000000000163,-10.271545718508413358
0.310000000000000164,-10.311013718314264054
0.311000000000000165,-10.347342996235513013
0.312000000000000166,-10.380524463812387026
0.313000000000000167,-10.410551947127455463
0.314000000000000168,-10.437422246294211448
0.315000000000000169,-10.461135179170316434
0.316000000000000170,-10.481693610157620355
0.317000000000000171,-10.499103464948921882
0.318000000000000171,-10.513373732075606881
0.319000000000000172,-10.524516452101426722
0.320000000000000173,-10.532546695295241790
0.321000000000000174,-10.537482528600779830
0.322000000000000175,-10.539344972704444814
0.323000000000000176,-10.538157949982828399
0.324000000000000177,-10.533948224090531554
0.325000000000000178,-10.526745331926374405
0.326000000000000179,-10.516581508692432578
0.327000000000000179,-10.503491606735057218
0.328000000000000180,-10.487513008831609085
0.329000000000000181,-10.468685536560311533
0.330000000000000182,-10.447051354363271258
0.331000000000000183,-10.422654869886212481
0.332000000000000184,-10.395542631150522794
0.333000000000000185,-10.365763221086144341
0.334000000000000186,-10.333367149926498740
0.335000000000000187,-10.298406745939363560
0.336000000000000187,-10.260936044941150413
0.337000000000000188,-10.221010679015133604
0.338000000000000189,-10.178687764828712403
0.339000000000000190,-10.134025791919059500
0.340000000000000191,-10.087084511291614319
0.341000000000000192,-10.037924824652037614
0.342000000000000193,-9.986608674568243416
0.343000000000000194,-9.933198935836808019
0.344000000000000195,-9.877759308305467556
0.345000000000000195,-9.820354211382790410
0.346000000000000196,-9.761048680444961434
0.347000000000000197,-9.699908265330414281
0.348000000000000198,-9.636998931093978982
0.349000000000000199,-9.572386961174112585
0.350000000000000200,-9.506138863109768522
0.351000000000000201,-9.438321276926732395
0.352000000000000202,-9.369000886297895292
0.353000000000000203,-9.298244332567026760
0.354000000000000203,-9.226118131711583459
0.355000000000000204,-9.152688594306763292
0.356000000000000205,-9.078021748540749059
0.357000000000000206,-9.002183266319123689
0.358000000000000207,-8.925238392485415062
0.359000000000000208,-8.847251877174620915
0.360000000000000209,-8.768287911306694937
0.361000000000000210,-8.688410065218141298
0.362000000000000210,-8.607681230421448504
0.363000000000000211,-8.526163564474426693
0.364000000000000212,-8.443918438934449711
0.365000000000000213,-8.361006390365862018
0.366000000000000214,-8.277487074363090613
0.367000000000000215,-8.193419222546204139
0.368000000000000216,-8.108860602481026802
0.369000000000000217,-8.023867980471127481
0.370000000000000218,-7.938497087165218957
0.371000000000000218,-7.852802585919627987
0.372000000000000219,-7.766838043852596130
0.373000000000000220,-7.680655905524159444
0.374000000000000221,-7.594307469173069869
0.375000000000000222,-7.507842865439945612
0.376000000000000223,-7.421311038504384783
0.377000000000000224,-7.334759729562023267
0.378000000000000225,-7.248235462566600340
0.379000000000000226,-7.161783532161035914
0.380000000000000226,-7.075447993721129869
0.381000000000000227,-6.989271655434744268
0.382000000000000228,-6.903296072339626832
0.383000000000000229,-6.817561542242660089
0.384000000000000230,-6.732107103443722096
0.385000000000000231,-6.646970534187872204
0.386000000000000232,-6.562188353769857763
0.387000000000000233,-6.477795825215912018
0.388000000000000234,-6.393826959468444038
0.389000000000000234,-6.310314521000465859
0.390000000000000235,-6.227290034787317019
0.391000000000000236,-6.144783794564841806
0.392000000000000237,-6.062824872304064527
0.393000000000000238,-5.981441128834093846
0.394000000000000239,-5.900659225546127651
0.395000000000000240,-5.820504637113176116
0.396000000000000241,-5.741001665161465262
0.397000000000000242,-5.662173452831158471
0.398000000000000242,-5.584042000165712949
0.399000000000000243,-5.506628180270764616
0.400000000000000244,-5.429951756185056766
0.401000000000000245,-5.354031398407947506
0.402000000000000246,-5.278884703029365077
0.403000000000000247,-5.204528210409991473
0.404000000000000248,-5.130977424361312877
0.405000000000000249,-5.058246831776676444
0.406000000000000250,-4.986349922666373224
0.407000000000000250,-4.915299210551463460
0.408000000000000251,-4.845106253172739130
0.409000000000000252,-4.775781673472997646
0.410000000000000253,-4.707335180812349584
0.411000000000000254,-4.639775592378116542
0.412000000000000255,-4.573110854752319376
0.413000000000000256,-4.507348065601593845
0.414000000000000257,-4.442493495455695829
0.415000000000000258,-4.378552609542586183
0.416000000000000258,-4.315530089649395329
0.417000000000000259,-4.253429855980192187
0.418000000000000260,-4.192255088982927980
0.419000000000000261,-4.132008251119256848
0.420000000000000262,-4.072691108552501049
0.421000000000000263,-4.014304752730287085
0.422000000000000264,-3.956849621839631403
0.423000000000000265,-3.900325522113701204
0.424000000000000266,-3.844731648970719728
0.425000000000000266,-3.790066607966465106
0.426000000000000267,-3.736328435543323501
0.427000000000000268,-3.683514619559763226
0.428000000000000269,-3.631622119585290243
0.429000000000000270,-3.580647386947036104
0.430000000000000271,-3.530586384515058462
0.431000000000000272,-3.481434606214588889
0.432000000000000273,-3.433187096254244786
0.433000000000000274,-3.385838468060343054
0.434000000000000274,-3.339382922908102014
0.435000000000000275,-3.293814268241635368
0.436000000000000276,-3.249125935675289067
0.437000000000000277,-3.205310998669644196
0.438000000000000278,-3.162362189876439800
0.439000000000000279,-3.120271918147211387
0.440000000000000280,-3.079032285201197094
0.441000000000000281,-3.038635101948744754
0.442000000000000282,-2.999071904467100147
0.443000000000000282,-2.960333969625923878
0.444000000000000283,-2.922412330360693922
0.445000000000000284,-2.885297790592457279
0.446000000000000285,-2.848980939792968403
0.447000000000000286,-2.813452167195012787
0.448000000000000287,-2.778701675647622604
0.449000000000000288,-2.744719495116973107
0.450000000000000289,-2.711495495833626812
0.451000000000000290,-2.679019401087519014
0.452000000000000290,-2.647280799672333984
0.453000000000000291,-2.616269157981206295
0.454000000000000292,-2.585973831756161800
0.455000000000000293,-2.556384077493848217
0.456000000000000294,-2.527489063510526712
0.457000000000000295,-2.499277880669490859
0.458000000000000296,-2.471739552774315118
0.459000000000000297,-2.444863046631665870
0.460000000000000298,-2.418637281787449300
0.461000000000000298,-2.393051139940457706
0.462000000000000299,-2.368093474037728186
0.463000000000000300,-2.343753117055987545
0.464000000000000301,-2.320018890473845907
0.465000000000000302,-2.296879612439362006
0.466000000000000303,-2.274324105637850035
0.467000000000000304,-2.252341204864833912
0.468000000000000305,-2.230919764309244879
0.469000000000000306,-2.210048664551919284
0.470000000000000306,-2.189716819284670546
0.471000000000000307,-2.169913181755108944
0.472000000000000308,-2.150626750942657761
0.473000000000000309,-2.131846577471011361
0.474000000000000310,-2.113561769262514822
0.475000000000000311,-2.095761496939871460
0.476000000000000312,-2.078434998980678294
0.477000000000000313,-2.061571586630153607
0.478000000000000314,-2.045160648577635687
0.479000000000000314,-2.029191655402280858
0.480000000000000315,-2.013654163793380469
0.481000000000000316,-1.998537820550830180
0.482000000000000317,-1.983832366371080180
0.483000000000000318,-1.969527639424050847
0.484000000000000319,-1.955613578726296709
0.485000000000000320,-1.942080227315851504
0.486000000000000321,-1.928917735233943720
0.487000000000000322,-1.916116362318915689
0.488000000000000322,-1.903666480817455930
0.489000000000000323,-1.891558577818394316
0.490000000000000324,-1.879783257514060724
0.491000000000000325,-1.868331243294308219
0.492000000000000326,-1.857193379678099943
0.493000000000000327,-1.846360634087643504
0.494000000000000328,-1.835824098469869936
0.495000000000000329,-1.825574990770030936
0.496000000000000330,-1.815604656262128191
0.497000000000000330,-1.805904568740817506
0.498000000000000331,-1.796466331579300357
0.499000000000000332,-1.787281678657739459
0.500000000000000333,-1.778342475166571957
0.501000000000000334,-1.769640718289045456
0.502000000000000335,-1.761168537767239028
0.503000000000000336,-1.752918196355750968
0.504000000000000337,-1.744882090167108046
0.505000000000000338,-1.737052748912949030
0.506000000000000338,-1.729422836044885559
0.507000000000000339,-1.721985148798901077
0.508000000000000340,-1.714732618147042587
0.509000000000000341,-1.707658308660140234
0.510000000000000342,-1.700755418285085696
0.511000000000000343,-1.694017278040270913
0.512000000000000344,-1.687437351632580018
0.513000000000000345,-1.681009234999321977
0.514000000000000346,-1.674726655778418616
0.515000000000000346,-1.668583472709990856
0.516000000000000347,-1.662573674972508631
0.517000000000000348,-1.656691381456603107
0.518000000000000349,-1.650930839979398046
0.519000000000000350,-1.645286426442362782
0.520000000000000351,-1.639752643935469933
0.521000000000000352,-1.634324121790384110
0.522000000000000353,-1.628995614585390994
0.523000000000000353,-1.623762001104610331
0.524000000000000354,-1.618618283254100065
0.525000000000000355,-1.613559584937217295
0.526000000000000356,-1.608581150891670308
0.527000000000000357,-1.603678345490584523
0.528000000000000358,-1.598846651509775452
0.529000000000000359,-1.594081668863468249
0.530000000000000360,-1.589379113310527281
0.531000000000000361,-1.584734815133280517
0.532000000000000361,-1.580144717790879172
0.533000000000000362,-1.575604876549166367
0.534000000000000363,-1.571111457088858021
0.535000000000000364,-1.566660734093870300
0.536000000000000365,-1.562249089821517778
0.537000000000000366,-1.557873012656264100
0.538000000000000367,-1.553529095648631619
0.539000000000000368,-1.549214035040887838
0.540000000000000369,-1.544924628780935505
0.541000000000000369,-1.540657775025953136
0.542000000000000370,-1.536410470637127990
0.543000000000000371,-1.532179809666853298
0.544000000000000372,-1.527962981839718459
0.545000000000000373,-1.523757271028500559
0.546000000000000374,-1.519560053726405124
0.547000000000000375,-1.515368797516670973
0.548000000000000376,-1.511181059540722682
0.549000000000000377,-1.506994484965858971
0.550000000000000377,-1.502806805453546390
0.551000000000000378,-1.498615837629305725
0.552000000000000379,-1.494419481555109730
0.553000000000000380,-1.490215719205213230
0.554000000000000381,-1.486002612946246249
0.555000000000000382,-1.481778304022455250
0.556000000000000383,-1.477541011046786590
0.557000000000000384,-1.473289028498666386
0.558000000000000385,-1.469020725229089663
0.559000000000000385,-1.464734542973793907
0.560000000000000386,-1.460428994875076159
0.561000000000000387,-1.456102664012940640
0.562000000000000388,-1.451754201946112266
0.563000000000000389,-1.447382327263496027
0.564000000000000390,-1.442985824146582940
0.565000000000000391,-1.438563540943319286
0.566000000000000392,-1.434114388753883862
0.567000000000000393,-1.429637340028836245
0.568000000000000393,-1.425131427180019061
0.569000000000000394,-1.420595741204626838
0.570000000000000395,-1.416029430322804261
0.571000000000000396,-1.411431698629076248
0.572000000000000397,-1.406801804757994656
0.573000000000000398,-1.402139060564212336
0.574000000000000399,-1.397442829817338694
0.575000000000000400,-1.392712526911755067
0.576000000000000401,-1.387947615591670347
0.577000000000000401,-1.383147607691622039
0.578000000000000402,-1.378312061892597029
0.579000000000000403,-1.373440582493943074
0.580000000000000404,-1.368532818201278811
0.581000000000000405,-1.363588460930475144
0.582000000000000406,-1.358607244627883848
0.583000000000000407,-1.353588944106892011
0.584000000000000408,-1.348533373900921539
0.585000000000000409,-1.343440387132923464
0.586000000000000409,-1.338309874401460986
0.587000000000000410,-1.333141762683427656
0.588000000000000411,-1.327936014253411567
0.589000000000000412,-1.322692625619791063
0.590000000000000413,-1.317411626477507980
0.591000000000000414,-1.312093078677577296
0.592000000000000415,-1.306737075213312282
0.593000000000000416,-1.301343739223220553
0.594000000000000417,-1.295913223010581206
0.595000000000000417,-1.290445707079666660
0.596000000000000418,-1.284941399188506583
0.597000000000000419,-1.279400533418237673
0.598000000000000420,-1.273823369258870741
0.599000000000000421,-1.268210190711493102
0.600000000000000422,-1.262561305406775025
0.601000000000000423,-1.256877043739710320
0.602000000000000424,-1.251157758020510657
0.603000000000000425,-1.245403821641549502
0.604000000000000425,-1.239615628260232638
0.605000000000000426,-1.233793590997709799
0.606000000000000427,-1.227938141653335924
0.607000000000000428,-1.222049729934648221
0.608000000000000429,-1.216128822702934098
0.609000000000000430,-1.210175903234015804
0.610000000000000431,-1.204191470494353933
0.611000000000000432,-1.198176038432153589
0.612000000000000433,-1.192130135283414827
