# TricalciumSilicate-Wet-010_CS-7610-AC
# h[nm],U(h)[kJ/mol]
0.149999999999999994,114.146894169131272179
0.150999999999999995,112.040960638428060747
0.151999999999999996,109.608784607203915584
0.152999999999999997,107.159683872628491486
0.153999999999999998,104.803452453751376083
0.154999999999999999,102.555654223264127722
0.156000000000000000,100.395237316154279483
0.157000000000000001,98.293622230863334721
0.158000000000000002,96.227413867607808129
0.159000000000000002,94.182262922113537229
0.160000000000000003,92.152393084959797420
0.161000000000000004,90.138388797189435309
0.162000000000000005,88.144639655664519751
0.163000000000000006,86.177112930328974016
0.164000000000000007,84.241706357830423713
0.165000000000000008,82.343206377135786056
0.166000000000000009,80.484767528238364775
0.167000000000000010,78.667788221448333275
0.168000000000000010,76.892055521299042198
0.169000000000000011,75.156047768209120363
0.170000000000000012,73.457307316131874586
0.171000000000000013,71.792819924525218767
0.172000000000000014,70.159359083666302581
0.173000000000000015,68.553771366556006228
0.174000000000000016,66.973192495023056381
0.175000000000000017,65.415193487841136744
0.176000000000000018,63.877862609212989753
0.177000000000000018,62.359832528555429576
0.178000000000000019,60.860263788163116772
0.179000000000000020,59.378795929679654364
0.180000000000000021,57.915476931664066740
0.181000000000000022,56.470680337077567401
0.182000000000000023,55.045017886964707543
0.183000000000000024,53.639253830857470007
0.184000000000000025,52.254225495724099915
0.185000000000000026,50.890773252005502059
0.186000000000000026,49.549681766395828220
0.187000000000000027,48.231633396691485416
0.188000000000000028,46.937173764297014600
0.189000000000000029,45.666688921660210099
0.190000000000000030,44.420393093886488600
0.191000000000000031,43.198325690908745855
0.192000000000000032,42.000356132495070938
0.193000000000000033,40.826194977378598594
0.194000000000000034,39.675409876131610076
0.195000000000000034,38.547444953923246658
0.196000000000000035,37.441642355794563457
0.197000000000000036,36.357264838351966318
0.198000000000000037,35.293518455496823094
0.199000000000000038,34.249574552306413011
0.200000000000000039,33.224590443144975893
0.201000000000000040,32.217728302231215309
0.202000000000000041,31.228171933654643055
0.203000000000000042,30.255141211054354500
0.204000000000000042,29.297904083807566167
0.205000000000000043,28.355786136455400026
0.206000000000000044,27.428177761699544135
0.207000000000000045,26.514539065591613110
0.208000000000000046,25.614402667771429378
0.209000000000000047,24.727374591249962066
0.210000000000000048,23.853133456824750169
0.211000000000000049,22.991428208327626237
0.212000000000000050,22.142074598055192070
0.213000000000000050,21.304950658367609151
0.214000000000000051,20.479991376886211185
0.215000000000000052,19.667182780183377844
0.216000000000000053,18.866555615404998036
0.217000000000000054,18.078178801828684641
0.218000000000000055,17.302152805736842112
0.219000000000000056,16.538603072843091724
0.220000000000000057,15.787673633399176509
0.221000000000000058,15.049520976477930745
0.222000000000000058,14.324308272108561724
0.223000000000000059,13.612200003203914989
0.224000000000000060,12.913357053739691338
0.225000000000000061,12.227932285547838731
0.226000000000000062,11.556066623434130491
0.227000000000000063,10.897885657144849247
0.228000000000000064,10.253496758975504832
0.229000000000000065,9.622986707489975089
0.230000000000000066,9.006419800839372769
0.231000000000000066,8.403836437450879160
0.232000000000000067,7.815252137308398517
0.233000000000000068,7.240656973566646393
0.234000000000000069,6.680015381726279955
0.235000000000000070,6.133266311944848503
0.236000000000000071,5.600323689165052521
0.237000000000000072,5.081077145506115222
0.238000000000000073,4.575392989694593737
0.239000000000000073,4.083115379116827093
0.240000000000000074,3.604067661271854739
0.241000000000000075,3.138053852919642672
0.242000000000000076,2.684860226981315545
0.243000000000000077,2.244256979195781376
0.244000000000000078,1.815999948615689918
0.245000000000000079,1.399832368185168985
0.246000000000000080,0.995486623841839724
0.247000000000000081,0.602686002787249264
0.248000000000000081,0.221146413745457793
0.249000000000000082,-0.149421935848926962
0.250000000000000111,-0.509312918744689314
0.251000000000000112,-0.858822933904243357
0.252000000000000113,-1.198249428872862454
0.253000000000000114,-1.527889505948724302
0.254000000000000115,-1.848038617997917799
0.255000000000000115,-2.158989358262198177
0.256000000000000116,-2.461030347138494001
0.257000000000000117,-2.754445217665451917
0.258000000000000118,-3.039511700332157673
0.259000000000000119,-3.316500806825729342
0.260000000000000120,-3.585676111452578141
0.261000000000000121,-3.847293128197488699
0.262000000000000122,-4.101598780721334769
0.263000000000000123,-4.348830962033636283
0.264000000000000123,-4.589218180106588107
0.265000000000000124,-4.822979285313351738
0.266000000000000125,-5.050323275270810264
0.267000000000000126,-5.271449172437062458
0.268000000000000127,-5.486545969652005361
0.269000000000000128,-5.695792638706549837
0.270000000000000129,-5.899358196978544910
0.271000000000000130,-6.097401827173717592
0.272000000000000131,-6.290073045252557726
0.273000000000000131,-6.477511911704000980
0.274000000000000132,-6.659849281438456003
0.275000000000000133,-6.837207087711950848
0.276000000000000134,-7.009698655655062893
0.277000000000000135,-7.177429041160526602
0.278000000000000136,-7.340495391079916665
0.279000000000000137,-7.498987320886524977
0.280000000000000138,-7.652987306177713833
0.281000000000000139,-7.802571084611884089
0.282000000000000139,-7.947808065100103292
0.283000000000000140,-8.088761741298709396
0.284000000000000141,-8.225490106674397950
0.285000000000000142,-8.358046068636388881
0.286000000000000143,-8.486477859448804395
0.287000000000000144,-8.610829441849924493
0.288000000000000145,-8.731140907512722649
0.289000000000000146,-8.847448866680256430
0.290000000000000147,-8.959786827502492557
0.291000000000000147,-9.068185563784121328
0.292000000000000148,-9.172673470028097853
0.293000000000000149,-9.273276902824822088
0.294000000000000150,-9.370020507793130449
0.295000000000000151,-9.462927531425750161
0.296000000000000152,-9.552020117328881454
0.297000000000000153,-9.637319586473033439
0.298000000000000154,-9.718846701190397397
0.299000000000000155,-9.796621912762974560
0.300000000000000155,-9.870665592545545763
0.301000000000000156,-9.940998246658875104
0.302000000000000157,-10.007640714371312640
0.303000000000000158,-10.070614350361669409
0.304000000000000159,-10.129941191123272404
0.305000000000000160,-10.185644105828474792
0.306000000000000161,-10.237746932025647340
0.307000000000000162,-10.286274596586491015
0.308000000000000163,-10.331253222360976096
0.309000000000000163,-10.372710221031155697
0.310000000000000164,-10.410674372683171640
0.311000000000000165,-10.445175892639763759
0.312000000000000166,-10.476246486114117573
0.313000000000000167,-10.503919391259419314
0.314000000000000168,-10.528229411198566368
0.315000000000000169,-10.549212935624238341
0.316000000000000170,-10.566907952562443640
0.317000000000000171,-10.581354050891935259
0.318000000000000171,-10.592592414208578333
0.319000000000000172,-10.600665806618188469
0.320000000000000173,-10.605618551032899077
0.321000000000000174,-10.607496500536118589
0.322000000000000175,-10.606347003369387849
0.323000000000000176,-10.602218862080764694
0.324000000000000177,-10.595162287359775277
0.325000000000000178,-10.585228847067707392
0.326000000000000179,-10.572471410955703419
0.327000000000000179,-10.556944091544725239
0.328000000000000180,-10.538702181623566645
0.329000000000000181,-10.517802088802334026
0.330000000000000182,-10.494301267539102085
0.331000000000000183,-10.468258149038828009
0.332000000000000184,-10.439732069403273584
0.333000000000000185,-10.408783196391670600
0.334000000000000186,-10.375472455132131344
0.335000000000000187,-10.339861453104486344
0.336000000000000187,-10.302012404696174741
0.337000000000000188,-10.261988055613718629
0.338000000000000189,-10.219851607414259576
0.339000000000000190,-10.175666642403154327
0.340000000000000191,-10.129497049125927077
0.341000000000000192,-10.081406948666181478
0.342000000000000193,-10.031460621943647737
0.343000000000000194,-9.979722438191236833
0.344000000000000195,-9.926256784773396902
0.345000000000000195,-9.871127998494165112
0.346000000000000196,-9.814400298527793609
0.347000000000000197,-9.756137721091780790
0.348000000000000198,-9.696404055968487867
0.349000000000000199,-9.635262784968947614
0.350000000000000200,-9.572777022420570603
0.351000000000000201,-9.509009457748787142
0.352000000000000202,-9.444022300212019161
0.353000000000000203,-9.377877225838970432
0.354000000000000203,-9.310635326607636486
0.355000000000000204,-9.242357061896191439
0.356000000000000205,-9.173102212227442820
0.357000000000000206,-9.102929835320573204
0.358000000000000207,-9.031898224456085700
0.359000000000000208,-8.960064869153306688
0.360000000000000209,-8.887486418152935386
0.361000000000000210,-8.814218644691342419
0.362000000000000210,-8.740316414047617499
0.363000000000000211,-8.665833653339323206
0.364000000000000212,-8.590823323538323564
0.365000000000000213,-8.515337393673478417
0.366000000000000214,-8.439426817183541374
0.367000000000000215,-8.363141510379666244
0.368000000000000216,-8.286530332974127333
0.369000000000000217,-8.209641070628808990
0.370000000000000218,-8.132520419474690954
0.371000000000000218,-8.055213972551255708
0.372000000000000219,-7.977766208112933910
0.373000000000000220,-7.900220479748123026
0.374000000000000221,-7.822619008254899420
0.375000000000000222,-7.745002875216305149
0.376000000000000223,-7.667412018217596881
0.377000000000000224,-7.589885227646737675
0.378000000000000225,-7.512460145019199231
0.379000000000000226,-7.435173262767778901
0.380000000000000226,-7.358059925438174886
0.381000000000000227,-7.281154332230738824
0.382000000000000228,-7.204489540829548844
0.383000000000000229,-7.128097472459908879
0.384000000000000230,-7.052008918115885372
0.385000000000000231,-6.976253545900351405
0.386000000000000232,-6.900859909420333338
0.387000000000000233,-6.825855457181527086
0.388000000000000234,-6.751266542926499525
0.389000000000000234,-6.677118436862365058
0.390000000000000235,-6.603435337724297582
0.391000000000000236,-6.530240385622830601
0.392000000000000237,-6.457555675623561697
0.393000000000000238,-6.385402272009528701
0.394000000000000239,-6.313800223177318927
0.395000000000000240,-6.242768577119620410
0.396000000000000241,-6.172325397447984585
0.397000000000000242,-6.102487779910931387
0.398000000000000242,-6.033271869364036810
0.399000000000000243,-5.964692877149761152
0.400000000000000244,-5.896765098846234565
0.401000000000000245,-5.829501932345797499
0.402000000000000246,-5.762915896225087486
0.403000000000000247,-5.697018648370120175
0.404000000000000248,-5.631821004821128795
0.405000000000000249,-5.567332958803254961
0.406000000000000250,-5.503563699910520413
0.407000000000000250,-5.440521633411908198
0.408000000000000251,-5.378214399649652755
0.409000000000000252,-5.316648893501223938
0.410000000000000253,-5.255831283877657079
0.411000000000000254,-5.195767033232288057
0.412000000000000255,-5.136460917055074127
0.413000000000000256,-5.077917043329053470
0.414000000000000257,-5.020138871926433488
0.415000000000000258,-4.963129233923377903
0.416000000000000258,-4.906890350813240431
0.417000000000000259,-4.851423853599490243
0.418000000000000260,-4.796730801750468842
0.419000000000000261,-4.742811701999176677
0.420000000000000262,-4.689666526972463778
0.421000000000000263,-4.637294733634833577
0.422000000000000264,-4.585695281533129553
0.423000000000000265,-4.534866650829266987
0.424000000000000266,-4.484806860109243232
0.425000000000000266,-4.435513483957238989
0.426000000000000267,-4.386983670284791970
0.427000000000000268,-4.339214157405663741
0.428000000000000269,-4.292201290847836859
0.429000000000000270,-4.245941039894948865
0.430000000000000271,-4.200429013850020432
0.431000000000000272,-4.155660478015260395
0.432000000000000273,-4.111630369382202943
0.433000000000000274,-4.068333312027268001
0.434000000000000274,-4.025763632208299470
0.435000000000000275,-3.983915373158359419
0.436000000000000276,-3.942782309573567456
0.437000000000000277,-3.902357961792304764
0.438000000000000278,-3.862635609663676917
0.439000000000000279,-3.823608306103618126
0.440000000000000280,-3.785268890337415204
0.441000000000000281,-3.747610000827965138
0.442000000000000282,-3.710624087889544676
0.443000000000000282,-3.674303425987052840
0.444000000000000283,-3.638640125721403162
0.445000000000000284,-3.603626145501821920
0.446000000000000285,-3.569253302906211900
0.447000000000000286,-3.535513285731296751
0.448000000000000287,-3.502397662734110018
0.449000000000000288,-3.469897894067196287
0.450000000000000289,-3.438005341409703597
0.451000000000000290,-3.406711277797094262
0.452000000000000290,-3.376006897152341146
0.453000000000000291,-3.345883323521610553
0.454000000000000292,-3.316331620017793913
0.455000000000000293,-3.287342797475271361
0.456000000000000294,-3.258907822819608668
0.457000000000000295,-3.231017627155936989
0.458000000000000296,-3.203663113579951816
0.459000000000000297,-3.176835164715628324
0.460000000000000298,-3.150524649983810654
0.461000000000000298,-3.124722432605969935
0.462000000000000299,-3.099419376347566590
0.463000000000000300,-3.074606352005401444
0.464000000000000301,-3.050274243643624317
0.465000000000000302,-3.026413954582937382
0.466000000000000303,-3.003016413147691299
0.467000000000000304,-2.980072578175592568
0.468000000000000305,-2.957573444294828935
0.469000000000000306,-2.935510046973309528
0.470000000000000306,-2.913873467344977986
0.471000000000000307,-2.892654836817873942
0.472000000000000308,-2.871845341468932666
0.473000000000000309,-2.851436226230275928
0.474000000000000310,-2.831418798871872422
0.475000000000000311,-2.811784433785396331
0.476000000000000312,-2.792524575574155676
0.477000000000000313,-2.773630742453795595
0.478000000000000314,-2.755094529468627318
0.479000000000000314,-2.736907611528361706
0.480000000000000315,-2.719061746269850310
0.481000000000000316,-2.701548776748672331
0.482000000000000317,-2.684360633965049203
0.483000000000000318,-2.667489339228827028
0.484000000000000319,-2.650927006367960637
0.485000000000000320,-2.634665843785106265
0.486000000000000321,-2.618698156366690899
0.487000000000000322,-2.603016347248898299
0.488000000000000322,-2.587612919444869597
0.489000000000000323,-2.572480477337462101
0.490000000000000324,-2.557611728041719434
0.491000000000000325,-2.542999482641241649
0.492000000000000326,-2.528636657302520963
0.493000000000000327,-2.514516274271300311
0.494000000000000328,-2.500631462754888457
0.495000000000000329,-2.486975459694322765
0.496000000000000330,-2.473541610430201931
0.497000000000000330,-2.460323369265962512
0.498000000000000331,-2.447314299932215942
0.499000000000000332,-2.434508075955841733
0.500000000000000333,-2.421898480937312748
0.501000000000000334,-2.409479408739724882
0.502000000000000335,-2.397244863592957298
0.503000000000000336,-2.385188960116258361
0.504000000000000337,-2.373305923262515549
0.505000000000000338,-2.361590088187388581
0.506000000000000338,-2.350035900046414827
0.507000000000000339,-2.338637913723123241
0.508000000000000340,-2.327390793491098897
0.509000000000000341,-2.316289312612947793
0.510000000000000342,-2.305328352878919240
0.511000000000000343,-2.294502904087979633
0.512000000000000344,-2.283808063474006111
0.513000000000000345,-2.273239035079721138
0.514000000000000346,-2.262791129080933938
0.515000000000000346,-2.252459761063516197
0.516000000000000347,-2.242240451255570033
0.517000000000000348,-2.232128823717161037
0.518000000000000349,-2.222120605489795953
0.519000000000000350,-2.212211625707982687
0.520000000000000351,-2.202397814674954546
0.521000000000000352,-2.192675202904675213
0.522000000000000353,-2.183039920132155309
0.523000000000000353,-2.173488194294024289
0.524000000000000354,-2.164016350481336559
0.525000000000000355,-2.154620809866380604
0.526000000000000356,-2.145298088605328335
0.527000000000000357,-2.136044796718493899
0.528000000000000358,-2.126857636949792241
0.529000000000000359,-2.117733403607146236
0.530000000000000360,-2.108668981385289687
0.531000000000000361,-2.099661344172599975
0.532000000000000361,-2.090707553843349054
0.533000000000000362,-2.081804759036846697
0.534000000000000363,-2.072950193924799844
0.535000000000000364,-2.064141176968254499
0.536000000000000365,-2.055375109665356081
0.537000000000000366,-2.046649475291191678
0.538000000000000367,-2.037961837630839490
0.539000000000000368,-2.029309839706862295
0.540000000000000369,-2.020691202502209016
0.541000000000000369,-2.012103723679711464
0.542000000000000370,-2.003545276299072864
0.543000000000000371,-1.995013807532393768
0.544000000000000372,-1.986507337379141758
0.545000000000000373,-1.978023957381450870
0.546000000000000374,-1.969561829340616743
0.547000000000000375,-1.961119184035594376
0.548000000000000376,-1.952694319944316748
0.549000000000000377,-1.944285601968539057
0.550000000000000377,-1.935891460162941780
0.551000000000000378,-1.927510388469191538
0.552000000000000379,-1.919140943455587278
0.553000000000000380,-1.910781743062932136
0.554000000000000381,-1.902431465357183216
0.555000000000000382,-1.894088847289519650
0.556000000000000383,-1.885752683464245738
0.557000000000000384,-1.877421824915152415
0.558000000000000385,-1.869095177890720993
0.559000000000000385,-1.860771702648690962
0.560000000000000386,-1.852450412260362000
0.561000000000000387,-1.844130371425081183
0.562000000000000388,-1.835810695295252870
0.563000000000000389,-1.827490548312269425
0.564000000000000390,-1.819169143053648297
0.565000000000000391,-1.810845739091734075
0.566000000000000392,-1.802519641864222866
0.567000000000000393,-1.794190201556805864
0.568000000000000393,-1.785856811998159488
0.569000000000000394,-1.777518909567534111
0.570000000000000395,-1.769175972115158313
0.571000000000000396,-1.760827517895622973
0.572000000000000397,-1.752473104514487456
0.573000000000000398,-1.744112327888204250
0.574000000000000399,-1.735744821217561462
0.575000000000000400,-1.727370253974748859
0.576000000000000401,-1.718988330904165807
0.577000000000000401,-1.710598791037118316
0.578000000000000402,-1.702201406720427856
0.579000000000000403,-1.693795982659069166
0.580000000000000404,-1.685382354972934094
0.581000000000000405,-1.676960390267693723
0.582000000000000406,-1.668529984719882009
0.583000000000000407,-1.660091063176177384
0.584000000000000408,-1.651643578266940748
0.585000000000000409,-1.643187509533979407
0.586000000000000409,-1.634722862572585145
0.587000000000000410,-1.626249668187797592
0.588000000000000411,-1.617767981564891544
0.589000000000000412,-1.609277881454077574
0.590000000000000413,-1.600779469369336905
0.591000000000000414,-1.592272868801395402
0.592000000000000415,-1.583758224444776097
0.593000000000000416,-1.575235701438837399
0.594000000000000417,-1.566705484622778810
0.595000000000000417,-1.558167777804547516
0.596000000000000418,-1.549622803043491093
0.597000000000000419,-1.541070799946808734
0.598000000000000420,-1.532512024979565401
0.599000000000000421,-1.523946750788305771
0.600000000000000422,-1.515375265538074778
0.601000000000000423,-1.506797872262806148
0.602000000000000424,-1.498214888228931896
0.603000000000000425,-1.489626644312137538
0.604000000000000425,-1.481033484387108468
0.605000000000000426,-1.472435764730176455
0.606000000000000427,-1.463833853434777676
0.607000000000000428,-1.455228129839469364
0.608000000000000429,-1.446618983968592564
0.609000000000000430,-1.438006815985194198
0.610000000000000431,-1.429392035656325000
0.611000000000000432,-1.420775061830388264
0.612000000000000433,-1.412156321926484104
