# TricalciumSilicate-Wet-010_CS-11227-AC
# h[nm],U(h)[kJ/mol]
0.149999999999999994,100.862225941309375798
0.150999999999999995,99.212858934437491598
0.151999999999999996,97.238105381940556526
0.152999999999999997,95.205267908869160465
0.153999999999999998,93.222227716517792828
0.154999999999999999,91.316466128463588348
0.156000000000000000,89.480145212967983070
0.157000000000000001,87.694259800182649656
0.158000000000000002,85.940317549272663200
0.159000000000000002,84.204931221358990001
0.160000000000000003,82.480662360451859172
0.161000000000000004,80.765116186621611405
0.162000000000000005,79.059427527221274090
0.163000000000000006,77.366739366354565277
0.164000000000000007,75.690950028066254163
0.165000000000000008,74.035817432197816856
0.166000000000000009,72.404408696885724339
0.167000000000000010,70.798836831556201332
0.168000000000000010,69.220211193403201833
0.169000000000000011,67.668730521845390058
0.170000000000000012,66.143857824395084322
0.171000000000000013,64.644529826820559038
0.172000000000000014,63.169367104198940410
0.173000000000000015,61.716862837601709657
0.174000000000000016,60.285537761967063375
0.175000000000000017,58.874056184132896874
0.176000000000000018,57.481303143651260257
0.177000000000000018,56.106426184367876431
0.178000000000000019,54.748847163955574047
0.179000000000000020,53.408250401164096388
0.180000000000000021,52.084553556029028698
0.181000000000000022,50.777867214898904535
0.182000000000000023,49.488448415217618503
0.183000000000000024,48.216652450678381570
0.184000000000000025,46.962886358985542756
0.185000000000000026,45.727566589846901479
0.186000000000000026,44.511082529500150429
0.187000000000000027,43.313766847839005436
0.188000000000000028,42.135873046781725293
0.189000000000000029,40.977560124299593269
0.190000000000000030,39.838883920304780872
0.191000000000000031,38.719794466554922963
0.192000000000000032,37.620138508601748129
0.193000000000000033,36.539666288489591750
0.194000000000000034,35.478041657580746460
0.195000000000000034,34.434854615725711824
0.196000000000000035,33.409635433638214863
0.197000000000000036,32.401869599053846116
0.198000000000000037,31.411012925045177724
0.199000000000000038,30.436506263399763839
0.200000000000000039,29.477789371453649636
0.201000000000000040,28.534313582816810850
0.202000000000000041,27.605553027842926639
0.203000000000000042,26.691014236332932796
0.204000000000000042,25.790244031510344058
0.205000000000000043,24.902835690153175108
0.206000000000000044,24.028433398825903566
0.207000000000000045,23.166735080752509646
0.208000000000000046,22.317493702624581431
0.209000000000000047,21.480517196364299792
0.210000000000000048,20.655667148501326125
0.211000000000000049,19.842856420377174231
0.212000000000000050,19.042045866871468718
0.213000000000000050,18.253240320745742764
0.214000000000000051,17.476484004955928242
0.215000000000000052,16.711855527267907462
0.216000000000000053,15.959462601009917648
0.217000000000000054,15.219436623512255125
0.218000000000000055,14.491927230334074039
0.219000000000000056,13.777096929285885807
0.220000000000000057,13.075115903963162367
0.221000000000000058,12.386157062383089666
0.222000000000000058,11.710391392645510322
0.223000000000000059,11.047983674557107392
0.224000000000000060,10.399088584027513349
0.225000000000000061,9.763847215890306686
0.226000000000000062,9.142384040695331393
0.227000000000000063,8.534804302001010257
0.228000000000000064,7.941191852775681070
0.229000000000000065,7.361607422677487023
0.230000000000000066,6.796087302191274659
0.231000000000000066,6.244642424802345104
0.232000000000000067,5.707257824523875200
0.233000000000000068,5.183892443093093938
0.234000000000000069,4.674479258939192583
0.235000000000000070,4.178925708524369398
0.236000000000000071,3.697114369791778099
0.237000000000000072,3.228903877142282219
0.238000000000000073,2.774130037533280468
0.239000000000000073,2.332607117876661640
0.240000000000000074,1.904129274839519770
0.241000000000000075,1.488472099363657097
0.242000000000000076,1.085394249656702170
0.243000000000000077,0.694639148018924013
0.244000000000000078,0.315936718608935574
0.245000000000000079,-0.050994854924148923
0.246000000000000080,-0.406447371140175484
0.247000000000000081,-0.750720869146890735
0.248000000000000081,-1.084121919004956025
0.249000000000000082,-1.406961957778525729
0.250000000000000111,-1.719555683016919634
0.251000000000000112,-2.022219513727018025
0.252000000000000113,-2.315270127253003185
0.253000000000000114,-2.599023078925716934
0.254000000000000115,-2.873791509890819551
0.255000000000000115,-3.139884947172199681
0.256000000000000116,-3.397608198782171574
0.257000000000000117,-3.647260345551221583
0.258000000000000118,-3.889133830317608620
0.259000000000000119,-4.123513644190455629
0.260000000000000120,-4.350676608775003729
0.261000000000000121,-4.570890752522235978
0.262000000000000122,-4.784414778733835583
0.263000000000000123,-4.991497622210917307
0.264000000000000123,-5.192378091078063918
0.265000000000000124,-5.387284589935519286
0.266000000000000125,-5.576434920188193978
0.267000000000000126,-5.760036153162985784
0.268000000000000127,-5.938284571452181915
0.269000000000000128,-6.111365673802586329
0.270000000000000129,-6.279454238804133226
0.271000000000000130,-6.442714442611574555
0.272000000000000131,-6.601300025953475092
0.273000000000000131,-6.755354505739984639
0.274000000000000132,-6.905011426669136476
0.275000000000000133,-7.050394648347507953
0.276000000000000134,-7.191618663580102933
0.277000000000000135,-7.328788943642477349
0.278000000000000136,-7.462002306523109141
0.279000000000000137,-7.591347304310967381
0.280000000000000138,-7.716904626100363096
0.281000000000000139,-7.838747512989622024
0.282000000000000139,-7.956942181959137272
0.283000000000000140,-8.071548255626094459
0.284000000000000141,-8.182619195085662156
0.285000000000000142,-8.290202733259944168
0.286000000000000143,-8.394341306384932366
0.287000000000000144,-8.495072481470847592
0.288000000000000145,-8.592429377772010213
0.289000000000000146,-8.686441080496193123
0.290000000000000147,-8.777133045172135439
0.291000000000000147,-8.864527491273745952
0.292000000000000148,-8.948643783873155400
0.293000000000000149,-9.029498802258824952
0.294000000000000150,-9.107107294611534343
0.295000000000000151,-9.181482217978606641
0.296000000000000152,-9.252635062925397946
0.297000000000000153,-9.320576162373335194
0.298000000000000154,-9.385314984254838677
0.299000000000000155,-9.446860407728333797
0.300000000000000155,-9.505220982800405949
0.301000000000000156,-9.560405173298143211
0.302000000000000157,-9.612421583222285904
0.303000000000000158,-9.661279166591691947
0.304000000000000159,-9.706987420961956659
0.305000000000000160,-9.749556564865869746
0.306000000000000161,-9.788997699481745585
0.307000000000000162,-9.825322954887024451
0.308000000000000163,-9.858545621299651174
0.309000000000000163,-9.888680265749178133
0.310000000000000164,-9.915742834653205051
0.311000000000000165,-9.939750742803061812
0.312000000000000166,-9.960722949286402894
0.313000000000000167,-9.978680020893126112
0.314000000000000168,-9.993644183565905337
0.315000000000000169,-10.005639362467167786
0.316000000000000170,-10.014691211241903090
0.317000000000000171,-10.020827131058982928
0.318000000000000171,-10.024076280014885043
0.319000000000000172,-10.024469573481546547
0.320000000000000173,-10.022039675975644712
0.321000000000000174,-10.016820985119755605
0.322000000000000175,-10.008849608257266439
0.323000000000000176,-9.998163332272321568
0.324000000000000177,-9.984801587153954827
0.325000000000000178,-9.968805403829918532
0.326000000000000179,-9.950217366781554773
0.327000000000000179,-9.929081561934751221
0.328000000000000180,-9.905443520305826866
0.329000000000000181,-9.879350157864145388
0.330000000000000182,-9.850849712054898788
0.331000000000000183,-9.819991675407983678
0.332000000000000184,-9.786826726639841212
0.333000000000000185,-9.751406659636655760
0.334000000000000186,-9.713784310688595269
0.335000000000000187,-9.674013484325618251
0.336000000000000187,-9.632148878087138044
0.337000000000000188,-9.588246006538614807
0.338000000000000189,-9.542361124830478047
0.339000000000000190,-9.494551152076128986
0.340000000000000191,-9.444873594808164796
0.341000000000000192,-9.393386470754865769
0.342000000000000193,-9.340148233161460922
0.343000000000000194,-9.285217695864764309
0.344000000000000195,-9.228653959313119159
0.345000000000000195,-9.170516337708622956
0.346000000000000196,-9.110864287433102504
0.347000000000000197,-9.049757336905067007
0.348000000000000198,-8.987255018000952944
0.349000000000000199,-8.923416799160357016
0.350000000000000200,-8.858302020282469158
0.351000000000000201,-8.791969829508364143
0.352000000000000202,-8.724479121972290585
0.353000000000000203,-8.655888480593999290
0.354000000000000203,-8.586256118973462748
0.355000000000000204,-8.515639826439404203
0.356000000000000205,-8.444096915293645367
0.357000000000000206,-8.371684170284305893
0.358000000000000207,-8.298457800332380785
0.359000000000000208,-8.224473392528576454
0.360000000000000209,-8.149785868409663792
0.361000000000000210,-8.074449442516872466
0.362000000000000210,-7.998517583232294115
0.363000000000000211,-7.922042975883337945
0.364000000000000212,-7.845077488099901686
0.365000000000000213,-7.767672137403475396
0.366000000000000214,-7.689877061003064007
0.367000000000000215,-7.611741487768272307
0.368000000000000216,-7.533313712346130231
0.369000000000000217,-7.454641071384502382
0.370000000000000218,-7.375769921821967223
0.371000000000000218,-7.296745621200836140
0.372000000000000219,-7.217612509957730182
0.373000000000000220,-7.138413895643663132
0.374000000000000221,-7.059192039023669096
0.375000000000000222,-6.979988142004221352
0.376000000000000223,-6.900842337335336474
0.377000000000000224,-6.821793680032929963
0.378000000000000225,-6.742880140466003702
0.379000000000000226,-6.664138599052463974
0.380000000000000226,-6.585604842506855405
0.381000000000000227,-6.507313561582637185
0.382000000000000228,-6.429298350251753114
0.383000000000000229,-6.351591706263863379
0.384000000000000230,-6.274225033027757803
0.385000000000000231,-6.197228642757888650
0.386000000000000232,-6.120631760828933565
0.387000000000000233,-6.044462531282118967
0.388000000000000234,-5.968748023427304261
0.389000000000000234,-5.893514239485779349
0.390000000000000235,-5.818786123219163997
0.391000000000000236,-5.744587569490997581
0.392000000000000237,-5.670941434708117512
0.393000000000000238,-5.597869548090335101
0.394000000000000239,-5.525392723717528654
0.395000000000000240,-5.453530773304722246
0.396000000000000241,-5.382302519656643192
0.397000000000000242,-5.311725810754413857
0.398000000000000242,-5.241817534428466985
0.399000000000000243,-5.172593633572735605
0.400000000000000244,-5.104069121856511515
0.401000000000000245,-5.036258099891870899
0.402000000000000246,-4.969173771815484031
0.403000000000000247,-4.902828462245182983
0.404000000000000248,-4.837233633572934011
0.405000000000000249,-4.772399903557148271
0.406000000000000250,-4.708337063178505311
0.407000000000000250,-4.645054094724953231
0.408000000000000251,-4.582559190072627686
0.409000000000000252,-4.520859769130970207
0.410000000000000253,-4.459962498421350396
0.411000000000000254,-4.399873309759992246
0.412000000000000255,-4.340597419017113268
0.413000000000000256,-4.282139344925505853
0.414000000000000257,-4.224502927912896055
0.415000000000000258,-4.167691348933789897
0.416000000000000258,-4.111707148277507606
0.417000000000000259,-4.056552244330346113
0.418000000000000260,-4.002227952270990485
0.419000000000000261,-3.948735002679230721
0.420000000000000262,-3.896073560039333472
0.421000000000000263,-3.844243241120297139
0.422000000000000264,-3.793243133216296137
0.423000000000000265,-3.743071812231636208
0.424000000000000266,-3.693727360595565390
0.425000000000000266,-3.645207384993040645
0.426000000000000267,-3.597509033898690145
0.427000000000000268,-3.550629014901944380
0.428000000000000269,-3.504563611812206769
0.429000000000000270,-3.459308701533832853
0.430000000000000271,-3.414859770701327957
0.431000000000000272,-3.371211932066150219
0.432000000000000273,-3.328359940627068081
0.433000000000000274,-3.286298209496890443
0.434000000000000274,-3.245020825498937000
0.435000000000000275,-3.204521564487404994
0.436000000000000276,-3.164793906386402345
0.437000000000000277,-3.125831049942903839
0.438000000000000278,-3.087625927189690422
0.439000000000000279,-3.050171217614717989
0.440000000000000280,-3.013459362033981570
0.441000000000000281,-2.977482576165406236
0.442000000000000282,-2.942232863901901752
0.443000000000000282,-2.907702030281962724
0.444000000000000283,-2.873881694156942057
0.445000000000000284,-2.840763300554261406
0.446000000000000285,-2.808338132736369452
0.447000000000000286,-2.776597323955729557
0.448000000000000287,-2.745531868906186723
0.449000000000000288,-2.715132634871783690
0.450000000000000289,-2.685390372574064433
0.451000000000000290,-2.656295726719472228
0.452000000000000290,-2.627839246248598215
0.453000000000000291,-2.600011394289310829
0.454000000000000292,-2.572802557816137092
0.455000000000000293,-2.546203057018384452
0.456000000000000294,-2.520203154379806243
0.457000000000000295,-2.494793063472773298
0.458000000000000296,-2.469962957470106524
0.459000000000000297,-2.445702977377929521
0.460000000000000298,-2.422003239993023804
0.461000000000000298,-2.398853845588352129
0.462000000000000299,-2.376244885330548229
0.463000000000000300,-2.354166448433257841
0.464000000000000301,-2.332608629050407334
0.465000000000000302,-2.311561532913503303
0.466000000000000303,-2.291015283717202866
0.467000000000000304,-2.270960029257440116
0.468000000000000305,-2.251385947326543846
0.469000000000000306,-2.232283251369728383
0.470000000000000306,-2.213642195907523202
0.471000000000000307,-2.195453081728615530
0.472000000000000308,-2.177706260857778631
0.473000000000000309,-2.160392141303419500
0.474000000000000310,-2.143501191589439969
0.475000000000000311,-2.127023945076046196
0.476000000000000312,-2.110951004074204551
0.477000000000000313,-2.095273043758356213
0.478000000000000314,-2.079980815882112477
0.479000000000000314,-2.065065152301601259
0.480000000000000315,-2.050516968311039356
0.481000000000000316,-2.036327265795288888
0.482000000000000317,-2.022487136203869884
0.483000000000000318,-2.008987763351130162
0.484000000000000319,-1.995820426047048901
0.485000000000000320,-1.982976500563261579
0.486000000000000321,-1.970447462938724525
0.487000000000000322,-1.958224891129520584
0.488000000000000322,-1.946300467007141322
0.489000000000000323,-1.934665978209682224
0.490000000000000324,-1.923313319850173286
0.491000000000000325,-1.912234496086353541
0.492000000000000326,-1.901421621556038222
0.493000000000000327,-1.890866922682266082
0.494000000000000328,-1.880562738852291860
0.495000000000000329,-1.870501523474437322
0.496000000000000330,-1.860675844916768629
0.497000000000000330,-1.851078387331533293
0.498000000000000331,-1.841701951369122181
0.499000000000000332,-1.832539454785414801
0.500000000000000333,-1.823583932946154507
0.501000000000000334,-1.814828539232003823
0.502000000000000335,-1.806266545347875674
0.503000000000000336,-1.797891341540031718
0.504000000000000337,-1.789696436724372841
0.505000000000000338,-1.781675458529317524
0.506000000000000338,-1.773822153256547907
0.507000000000000339,-1.766130385762863186
0.508000000000000340,-1.758594139266293821
0.509000000000000341,-1.751207515079598931
0.510000000000000342,-1.743964732274132290
0.511000000000000343,-1.736860127277060739
0.512000000000000344,-1.729888153404810724
0.513000000000000345,-1.723043380335566255
0.514000000000000346,-1.716320493523594282
0.515000000000000346,-1.709714293558025844
0.516000000000000347,-1.703219695468761730
0.517000000000000348,-1.696831727982065718
0.518000000000000349,-1.690545532728263911
0.519000000000000350,-1.684356363404042600
0.520000000000000351,-1.678259584891671707
0.521000000000000352,-1.672250672337452615
0.522000000000000353,-1.666325210191617501
0.523000000000000353,-1.660478891211847996
0.524000000000000354,-1.654707515432549014
0.525000000000000355,-1.649006989101883702
0.526000000000000356,-1.643373323588578572
0.527000000000000357,-1.637802634260449253
0.528000000000000358,-1.632291139336468744
0.529000000000000359,-1.626835158714252660
0.530000000000000360,-1.621431112774659677
0.531000000000000361,-1.616075521165274198
0.532000000000000361,-1.610765001564360421
0.533000000000000362,-1.605496268426938711
0.534000000000000363,-1.600266131714493723
0.535000000000000364,-1.595071495609813095
0.536000000000000365,-1.589909357218420638
0.537000000000000366,-1.584776805257982257
0.538000000000000367,-1.579671018737011767
0.539000000000000368,-1.574589265624241063
0.540000000000000369,-1.569528901509813501
0.541000000000000369,-1.564487368259601885
0.542000000000000370,-1.559462192663745528
0.543000000000000371,-1.554450985080554570
0.544000000000000372,-1.549451438076869136
0.545000000000000373,-1.544461325065891177
0.546000000000000374,-1.539478498943483320
0.547000000000000375,-1.534500890723900168
0.548000000000000376,-1.529526508175892419
0.549000000000000377,-1.524553434460010459
0.550000000000000377,-1.519579826767994080
0.551000000000000378,-1.514603914965043874
0.552000000000000379,-1.509624000235747499
0.553000000000000380,-1.504638453734401971
0.554000000000000381,-1.499645715240418120
0.555000000000000382,-1.494644291819536175
0.556000000000000383,-1.489632756491411358
0.557000000000000384,-1.484609746904270944
0.558000000000000385,-1.479573964017144139
0.559000000000000385,-1.474524170790296740
0.560000000000000386,-1.469459190884315980
0.561000000000000387,-1.464377907368417997
0.562000000000000388,-1.459279261438391151
0.563000000000000389,-1.454162251144671014
0.564000000000000390,-1.449025930130919626
0.565000000000000391,-1.443869406383553322
0.566000000000000392,-1.438691840992554427
0.567000000000000393,-1.433492446923953612
0.568000000000000393,-1.428270487804271571
0.569000000000000394,-1.423025276717269083
0.570000000000000395,-1.417756175013270559
0.571000000000000396,-1.412462591131314893
0.572000000000000397,-1.407143979434439585
0.573000000000000398,-1.401799839058238017
0.574000000000000399,-1.396429712772997211
0.575000000000000400,-1.391033185859531951
0.576000000000000401,-1.385609884998932895
0.577000000000000401,-1.380159477176403859
0.578000000000000402,-1.374681668599286422
0.579000000000000403,-1.369176203629426380
0.580000000000000404,-1.363642863730029742
0.581000000000000405,-1.358081466427047079
0.582000000000000406,-1.352491864285232603
0.583000000000000407,-1.346873943898904358
0.584000000000000408,-1.341227624897519899
0.585000000000000409,-1.335552858966064127
0.586000000000000409,-1.329849628880335199
0.587000000000000410,-1.324117947557130082
0.588000000000000411,-1.318357857119346388
0.589000000000000412,-1.312569427976033820
0.590000000000000413,-1.306752757917356789
0.591000000000000414,-1.300907971224474435
0.592000000000000415,-1.295035217794343829
0.593000000000000416,-1.289134672279347971
0.594000000000000417,-1.283206533241781910
0.595000000000000417,-1.277251022323129925
0.596000000000000418,-1.271268383428031390
0.597000000000000419,-1.265258881922977308
0.598000000000000420,-1.259222803849556538
0.599000000000000421,-1.253160455152268593
0.600000000000000422,-1.247072160920769557
0.601000000000000423,-1.240958264646492726
0.602000000000000424,-1.234819127493536950
0.603000000000000425,-1.228655127583752726
0.604000000000000425,-1.222466659295876834
0.605000000000000426,-1.216254132578658886
0.606000000000000427,-1.210017972277869447
0.607000000000000428,-1.203758617476986315
0.608000000000000429,-1.197476520851619153
0.609000000000000430,-1.191172148037319634
0.610000000000000431,-1.184845977010882345
0.611000000000000432,-1.178498497484832042
0.612000000000000433,-1.172130210315044607
