# TricalciumSilicate-Wet-010_ADENINE
# h[nm],U(h)[kJ/mol]
0.149999999999999994,144.162840220130306079
0.150999999999999995,141.804793327552744131
0.151999999999999996,138.819650699609439926
0.152999999999999997,135.686166926808311928
0.153999999999999998,132.608410340152289564
0.154999999999999999,129.648668134030685906
0.156000000000000000,126.804061111976380971
0.157000000000000001,124.048317523153585284
0.158000000000000002,121.352644216781342834
0.159000000000000002,118.694580503514956149
0.160000000000000003,116.060363309387980735
0.161000000000000004,113.444135572442704074
0.162000000000000005,110.845918939379018298
0.163000000000000006,108.269386827826309627
0.164000000000000007,105.719935924892610046
0.165000000000000008,103.203241149851834280
0.166000000000000009,100.724308669281896300
0.167000000000000010,98.286958881021632806
0.168000000000000010,95.893640452629298920
0.169000000000000011,93.545474451230589352
0.170000000000000012,91.242439926644493653
0.171000000000000013,88.983630332625452297
0.172000000000000014,86.767528945235227411
0.173000000000000015,84.592268385071704984
0.174000000000000016,82.455853351166538800
0.175000000000000017,80.356336464990704371
0.176000000000000018,78.291944907194448433
0.177000000000000018,76.261160735082640372
0.178000000000000019,74.262760898673519705
0.179000000000000020,72.295824521849937128
0.180000000000000021,70.359715424037389653
0.181000000000000022,68.454047496914327553
0.182000000000000023,66.578639714680136308
0.183000000000000024,64.733466469907256169
0.184000000000000025,62.918607753248195991
0.185000000000000026,61.134202546670906031
0.186000000000000026,59.380407748415549918
0.187000000000000027,57.657364034457586399
0.188000000000000028,55.965169304037928555
0.189000000000000029,54.303859757803664365
0.190000000000000030,52.673398207608933319
0.191000000000000031,51.073668901833329414
0.192000000000000032,49.504477950542110420
0.193000000000000033,47.965558331111630253
0.194000000000000034,46.456578427629061423
0.195000000000000034,44.977153088355827038
0.196000000000000035,43.526856258709287317
0.197000000000000036,42.105234348681790379
0.198000000000000037,40.711819611821724152
0.199000000000000038,39.346142938514233833
0.200000000000000039,38.007745592052998518
0.201000000000000040,36.696189536450823709
0.202000000000000041,35.411066116249898528
0.203000000000000042,34.152002948244771119
0.204000000000000042,32.918668971592822459
0.205000000000000043,31.710777675702399137
0.206000000000000044,30.528088584656551063
0.207000000000000045,29.370407123355626311
0.208000000000000046,28.237583024986413704
0.209000000000000047,27.129507463020757996
0.210000000000000048,26.046109105007825946
0.211000000000000049,24.987349291298894371
0.212000000000000050,23.953216540860445605
0.213000000000000050,22.943720579776666568
0.214000000000000051,21.958886077101176681
0.215000000000000052,20.998746258482793081
0.216000000000000053,20.063336551428285759
0.217000000000000054,19.152688398022529981
0.218000000000000055,18.266823352130437286
0.219000000000000056,17.405747559161827809
0.220000000000000057,16.569446697884405495
0.221000000000000058,15.757881445923931807
0.222000000000000058,14.970983513785830255
0.223000000000000059,14.208652276704190953
0.224000000000000060,13.470752019512341136
0.225000000000000061,12.757109797130871343
0.226000000000000062,12.067513902220090571
0.227000000000000063,11.401712922042582576
0.228000000000000064,10.759415358591017053
0.229000000000000065,10.140289779490863964
0.230000000000000066,9.543965462007488298
0.231000000000000066,8.970033488569095326
0.232000000000000067,8.418048249457648069
0.233000000000000068,7.887529306602834467
0.234000000000000069,7.377963571625507200
0.235000000000000070,6.888807751301674998
0.236000000000000071,6.419491014344482771
0.237000000000000072,5.969417834721281402
0.238000000000000073,5.537970968536944483
0.239000000000000073,5.124514523727471627
0.240000000000000074,4.728397084331360745
0.241000000000000075,4.348954853864986703
0.242000000000000076,3.985514785247852299
0.243000000000000077,3.637397667742542584
0.244000000000000078,3.303921144436965385
0.245000000000000079,2.984402636855035151
0.246000000000000080,2.678162156295321061
0.247000000000000081,2.384524984430202998
0.248000000000000081,2.102824208523824900
0.249000000000000082,1.832403099321656015
0.250000000000000111,1.572617322209853175
0.251000000000000112,1.322836974627151774
0.252000000000000113,1.082448444923439945
0.253000000000000114,0.850856089896608436
0.254000000000000115,0.627483730094037351
0.255000000000000115,0.411775963643198684
0.256000000000000116,0.203199300875047589
0.257000000000000117,0.001243123331099039
0.258000000000000118,-0.194579528094794257
0.259000000000000119,-0.384731330129284121
0.260000000000000120,-0.569650212608857398
0.261000000000000121,-0.749749045182737772
0.262000000000000122,-0.925415467356980104
0.263000000000000123,-1.097011853561533190
0.264000000000000123,-1.264875404592178620
0.265000000000000124,-1.429318356553804126
0.266000000000000125,-1.590628298302491972
0.267000000000000126,-1.749068588340477959
0.268000000000000127,-1.904878862152544539
0.269000000000000128,-2.058275621074487471
0.270000000000000129,-2.209452893946934005
0.271000000000000130,-2.358582963022347379
0.272000000000000131,-2.505817145852026862
0.273000000000000131,-2.651286625176493494
0.274000000000000132,-2.795103319170356482
0.275000000000000133,-2.937360784745472575
0.276000000000000134,-3.078135146988377535
0.277000000000000135,-3.217486048194385440
0.278000000000000136,-3.355457610357613696
0.279000000000000137,-3.492079405378118118
0.280000000000000138,-3.627367427651670084
0.281000000000000139,-3.761325064110866201
0.282000000000000139,-3.893944057185023233
0.283000000000000140,-4.025205456538733628
0.284000000000000141,-4.155080555832283196
0.285000000000000142,-4.283531811120083077
0.286000000000000143,-4.410513737863761996
0.287000000000000144,-4.535973783883397559
0.288000000000000145,-4.659853175903452716
0.289000000000000146,-4.782087737666272709
0.290000000000000147,-4.902608677888020239
0.291000000000000147,-5.021343346616014891
0.292000000000000148,-5.138215958815307793
0.293000000000000149,-5.253148284263141399
0.294000000000000150,-5.366060303065269821
0.295000000000000151,-5.476870826326122099
0.296000000000000152,-5.585498081706797180
0.297000000000000153,-5.691860263791054919
0.298000000000000154,-5.795876049349848458
0.299000000000000155,-5.897465077750475793
0.300000000000000155,-5.996548396897394717
0.301000000000000156,-6.093048875218463500
0.302000000000000157,-6.186891580324322959
0.303000000000000158,-6.278004125068972208
0.304000000000000159,-6.366316981828755495
0.305000000000000160,-6.451763765893689495
0.306000000000000161,-6.534281488931823034
0.307000000000000162,-6.613810783543326188
0.308000000000000163,-6.690296099967635080
0.309000000000000163,-6.763685876044836398
0.310000000000000164,-6.833932681561916134
0.311000000000000165,-6.900993338136247601
0.312000000000000166,-6.964829015803569057
0.313000000000000167,-7.025405307485871553
0.314000000000000168,-7.082692282516852345
0.315000000000000169,-7.136664520399564893
0.316000000000000170,-7.187301125962870962
0.317000000000000171,-7.234585727070770744
0.318000000000000171,-7.278506456022197924
0.319000000000000172,-7.319055915759186348
0.320000000000000173,-7.356231131977864379
0.321000000000000174,-7.390033492211220967
0.322000000000000175,-7.420468672924192433
0.323000000000000176,-7.447546555631644694
0.324000000000000177,-7.471281133017680709
0.325000000000000178,-7.491690406001382030
0.326000000000000179,-7.508796272660012150
0.327000000000000179,-7.522624409884687502
0.328000000000000180,-7.533204148608061423
0.329000000000000181,-7.540568343407019647
0.330000000000000182,-7.544753237246299982
0.331000000000000183,-7.545798322092849730
0.332000000000000184,-7.543746196093474410
0.333000000000000185,-7.538642417972234000
0.334000000000000186,-7.530535359267990891
0.335000000000000187,-7.519476054996765413
0.336000000000000187,-7.505518053288957603
0.337000000000000188,-7.488717264516694172
0.338000000000000189,-7.469131810393667692
0.339000000000000190,-7.446821873496735300
0.340000000000000191,-7.421849547626787391
0.341000000000000192,-7.394278689395998860
0.342000000000000193,-7.364174771398002584
0.343000000000000194,-7.331604737289575624
0.344000000000000195,-7.296636859083685422
0.345000000000000195,-7.259340596927960299
0.346000000000000196,-7.219786461616264361
0.347000000000000197,-7.178045880056866501
0.348000000000000198,-7.134191063897193708
0.349000000000000199,-7.088294881482495313
0.350000000000000200,-7.040430733304853916
0.351000000000000201,-6.990672431078212234
0.352000000000000202,-6.939094080556252209
0.353000000000000203,-6.885769968191596035
0.354000000000000203,-6.830774451717689821
0.355000000000000204,-6.774181854718406726
0.356000000000000205,-6.716066365235421998
0.357000000000000206,-6.656501938449058464
0.358000000000000207,-6.595562203454645278
0.359000000000000208,-6.533320374144537368
0.360000000000000209,-6.469849164193824720
0.361000000000000210,-6.405220706137198405
0.362000000000000210,-6.339506474514474910
0.363000000000000211,-6.272777213052944667
0.364000000000000212,-6.205102865846486182
0.365000000000000213,-6.136552512483225641
0.366000000000000214,-6.067194307066904102
0.367000000000000215,-5.997095421070258503
0.368000000000000216,-5.926321989953286185
0.369000000000000217,-5.854939063473663552
0.370000000000000218,-5.783010559612298707
0.371000000000000218,-5.710599222032489486
0.372000000000000219,-5.637766580987848997
0.373000000000000220,-5.564572917590820289
0.374000000000000221,-5.491077231350966592
0.375000000000000222,-5.417337210889842325
0.376000000000000223,-5.343409207737584765
0.377000000000000224,-5.269348213114585455
0.378000000000000225,-5.195207837600666956
0.379000000000000226,-5.121040293593161152
0.380000000000000226,-5.046896380455040187
0.381000000000000227,-4.972825472253591172
0.382000000000000228,-4.898875507990619660
0.383000000000000229,-4.825092984225080706
0.384000000000000230,-4.751522949989611888
0.385000000000000231,-4.678209003903357477
0.386000000000000232,-4.605193293383990749
0.387000000000000233,-4.532516515863264317
0.388000000000000234,-4.460217921911326933
0.389000000000000234,-4.388335320176795840
0.390000000000000235,-4.316905084050581820
0.391000000000000236,-4.245962159963601934
0.392000000000000237,-4.175540077229782376
0.393000000000000238,-4.105670959347909488
0.394000000000000239,-4.036385536677537189
0.395000000000000240,-3.967713160406286299
0.396000000000000241,-3.899681817727825184
0.397000000000000242,-3.832318148151839576
0.398000000000000242,-3.765647460869615770
0.399000000000000243,-3.699693753100775417
0.400000000000000244,-3.634479729348944144
0.401000000000000245,-3.570026821496601777
0.402000000000000246,-3.506355209671088602
0.403000000000000247,-3.443483843816348866
0.404000000000000248,-3.381430465907101279
0.405000000000000249,-3.320211632744284991
0.406000000000000250,-3.259842739272856615
0.407000000000000250,-3.200338042365281410
0.408000000000000251,-3.141710685016087190
0.409000000000000252,-3.083972720895203246
0.410000000000000253,-3.027135139209690351
0.411000000000000254,-2.971207889825805193
0.412000000000000255,-2.916199908605200175
0.413000000000000256,-2.862119142911302649
0.414000000000000257,-2.808972577243634472
0.415000000000000258,-2.756766258960153149
0.416000000000000258,-2.705505324049258142
0.417000000000000259,-2.655194022915229546
0.418000000000000260,-2.605835746142616483
0.419000000000000261,-2.557433050206820990
0.420000000000000262,-2.509987683100009193
0.421000000000000263,-2.463500609843118916
0.422000000000000264,-2.417972037856273015
0.423000000000000265,-2.373401442161708452
0.424000000000000266,-2.329787590394870378
0.425000000000000266,-2.287128567600619000
0.426000000000000267,-2.245421800793251599
0.427000000000000268,-2.204664083260292617
0.428000000000000269,-2.164851598591424953
0.429000000000000270,-2.125979944415294476
0.430000000000000271,-2.088044155828121085
0.431000000000000272,-2.051038728499411157
0.432000000000000273,-2.014957641441124991
0.433000000000000274,-1.979794379427928686
0.434000000000000274,-1.945541955057140671
0.435000000000000275,-1.912192930438145977
0.436000000000000276,-1.879739438502047166
0.437000000000000277,-1.848173203923197061
0.438000000000000278,-1.817485563645361069
0.439000000000000279,-1.787667487006052935
0.440000000000000280,-1.758709595453412877
0.441000000000000281,-1.730602181850874999
0.442000000000000282,-1.703335229365719572
0.443000000000000282,-1.676898429938092461
0.444000000000000283,-1.651281202328149345
0.445000000000000284,-1.626472709739323008
0.446000000000000285,-1.602461877016482905
0.447000000000000286,-1.579237407418528916
0.448000000000000287,-1.556787798965120651
0.449000000000000288,-1.535101360358274381
0.450000000000000289,-1.514166226479672472
0.451000000000000290,-1.493970373465257628
0.452000000000000290,-1.474501633359040387
0.453000000000000291,-1.455747708348465563
0.454000000000000292,-1.437696184584180248
0.455000000000000293,-1.420334545587256914
0.456000000000000294,-1.403650185247483417
0.457000000000000295,-1.387630420416460675
0.458000000000000296,-1.372262503099696884
0.459000000000000297,-1.357533632252102329
0.460000000000000298,-1.343430965181557024
0.461000000000000298,-1.329941628565481260
0.462000000000000299,-1.317052729085571583
0.463000000000000300,-1.304751363685998644
0.464000000000000301,-1.293024629460666430
0.465000000000000302,-1.281859633175185476
0.466000000000000303,-1.271243500429443563
0.467000000000000304,-1.261163384466722270
0.468000000000000305,-1.251606474635543531
0.469000000000000306,-1.242560004510372629
0.470000000000000306,-1.234011259677586736
0.471000000000000307,-1.225947585192994627
0.472000000000000308,-1.218356392717475867
0.473000000000000309,-1.211225167337170117
0.474000000000000310,-1.204541474074803720
0.475000000000000311,-1.198292964098772506
0.476000000000000312,-1.192467380636578200
0.477000000000000313,-1.187052564599237581
0.478000000000000314,-1.182036459923311966
0.479000000000000314,-1.177407118637245897
0.480000000000000315,-1.173152705658526473
0.481000000000000316,-1.169261503328399954
0.482000000000000317,-1.165721915690621779
0.483000000000000318,-1.162522472520851391
0.484000000000000319,-1.159651833113169994
0.485000000000000320,-1.157098789830213414
0.486000000000000321,-1.154852271423316923
0.487000000000000322,-1.152901346129041382
0.488000000000000322,-1.151235224548357250
0.489000000000000323,-1.149843262314787840
0.490000000000000324,-1.148714962557606079
0.491000000000000325,-1.147839978166246944
0.492000000000000326,-1.147208113861892809
0.493000000000000327,-1.146809328082246004
0.494000000000000328,-1.146633734685292394
0.495000000000000329,-1.146671604477881079
0.496000000000000330,-1.146913366574763726
0.497000000000000330,-1.147349609593761643
0.498000000000000331,-1.147971082692495148
0.499000000000000332,-1.148768696452171056
0.500000000000000333,-1.149733523613720942
0.501000000000000334,-1.150856799671509112
0.502000000000000335,-1.152129923329784145
0.503000000000000336,-1.153544456826892217
0.504000000000000337,-1.155092126132200026
0.505000000000000338,-1.156764821020565215
0.506000000000000338,-1.158554595029122058
0.507000000000000339,-1.160453665301011572
0.508000000000000340,-1.162454412320595765
0.509000000000000341,-1.164549379544647767
0.510000000000000342,-1.166731272933818619
0.511000000000000343,-1.168992960388670399
0.512000000000000344,-1.171327471094407047
0.513000000000000345,-1.173727994778355876
0.514000000000000346,-1.176187880884217662
0.515000000000000346,-1.178700637666840967
0.516000000000000347,-1.181259931211369629
0.517000000000000348,-1.183859584380436702
0.518000000000000349,-1.186493575692907587
0.519000000000000350,-1.189156038137733740
0.520000000000000351,-1.191841257926257169
0.521000000000000352,-1.194543673186305721
0.522000000000000353,-1.197257872601221518
0.523000000000000353,-1.199978593997019560
0.524000000000000354,-1.202700722880643003
0.525000000000000355,-1.205419290932302490
0.526000000000000356,-1.208129474454702423
0.527000000000000357,-1.210826592782000555
0.528000000000000358,-1.213506106651121019
0.529000000000000359,-1.216163616538059822
0.530000000000000360,-1.218794860961702753
0.531000000000000361,-1.221395714757609330
0.532000000000000361,-1.223962187324113771
0.533000000000000362,-1.226490420843058926
0.534000000000000363,-1.228976688477346757
0.535000000000000364,-1.231417392547490497
0.536000000000000365,-1.233809062689196878
0.537000000000000366,-1.236148353994015237
0.538000000000000367,-1.238432045134933102
0.539000000000000368,-1.240657036478863606
0.540000000000000369,-1.242820348187713364
0.541000000000000369,-1.244919118309860462
0.542000000000000370,-1.246950600863639069
0.543000000000000371,-1.248912163914457363
0.544000000000000372,-1.250801287647118398
0.545000000000000373,-1.252615562434772789
0.546000000000000374,-1.254352686905975567
0.547000000000000375,-1.256010466011177051
0.548000000000000376,-1.257586809090012858
0.549000000000000377,-1.259079727940579874
0.550000000000000377,-1.260487334891967182
0.551000000000000378,-1.261807840881155274
0.552000000000000379,-1.263039553535412640
0.553000000000000380,-1.264180875261228687
0.554000000000000381,-1.265230301340785291
0.555000000000000382,-1.266186418036972405
0.556000000000000383,-1.267047900707776842
0.557000000000000384,-1.267813511931024539
0.558000000000000385,-1.268482099640201977
0.559000000000000385,-1.269052595272233575
0.560000000000000386,-1.269524011927886331
0.561000000000000387,-1.269895442545576403
0.562000000000000388,-1.270166058089194028
0.563000000000000389,-1.270335105750628468
0.564000000000000390,-1.270401907167541200
0.565000000000000391,-1.270365856657004411
0.566000000000000392,-1.270226419465479095
0.567000000000000393,-1.269983130035696295
0.568000000000000393,-1.269635590290822957
0.569000000000000394,-1.269183467936432219
0.570000000000000395,-1.268626494780638492
0.571000000000000396,-1.267964465072755953
0.572000000000000397,-1.267197233860900552
0.573000000000000398,-1.266324715368774223
0.574000000000000399,-1.265346881391994138
0.575000000000000400,-1.264263759714203239
0.576000000000000401,-1.263075432543202981
0.577000000000000401,-1.261782034967394717
0.578000000000000402,-1.260383753432645637
0.579000000000000403,-1.258880824239806850
0.580000000000000404,-1.257273532063066579
0.581000000000000405,-1.255562208489218401
0.582000000000000406,-1.253747230578015959
0.583000000000000407,-1.251829019443687852
0.584000000000000408,-1.249808038857711967
0.585000000000000409,-1.247684793872908315
0.586000000000000409,-1.245459829468892332
0.587000000000000410,-1.243133729218964145
0.588000000000000411,-1.240707113978381404
0.589000000000000412,-1.238180640594104931
0.590000000000000413,-1.235555000635929934
0.591000000000000414,-1.232830919149037641
0.592000000000000415,-1.230009153427905622
0.593000000000000416,-1.227090491811532180
0.594000000000000417,-1.224075752499910852
0.595000000000000417,-1.220965782391723931
0.596000000000000418,-1.217761455943085602
0.597000000000000419,-1.214463674047373543
0.598000000000000420,-1.211073362935899844
0.599000000000000421,-1.207591473099449475
0.600000000000000422,-1.204018978230471326
0.601000000000000423,-1.200356874185833700
0.602000000000000424,-1.196606177970009011
0.603000000000000425,-1.192767926738560247
0.604000000000000425,-1.188843176821720915
0.605000000000000426,-1.184833002767984533
0.606000000000000427,-1.180738496407526261
0.607000000000000428,-1.176560765935203978
0.608000000000000429,-1.172300935013142809
0.609000000000000430,-1.167960141892497417
0.610000000000000431,-1.163539538554433372
0.611000000000000432,-1.159040289869972096
0.612000000000000433,-1.154463572778575475
0.613000000000000433,-1.149810575485305186
