# TricalciumSilicate-Wet-010_BSAI10
# h[nm],U(h)[kJ/mol]
0.149999999999999994,110.768413859783549924
0.150999999999999995,108.010829017766695870
0.151999999999999996,105.848365953036520182
0.152999999999999997,103.815269748755937940
0.153999999999999998,101.761331364049937065
0.154999999999999999,99.673019149381275383
0.156000000000000000,97.582013219570711726
0.157000000000000001,95.523254705441956958
0.158000000000000002,93.519547583304458271
0.159000000000000002,91.579227404630970000
0.160000000000000003,89.699311608178206257
0.161000000000000004,87.870129337136120284
0.162000000000000005,86.079533952591731349
0.163000000000000006,84.315982193704996916
0.164000000000000007,82.570380704472569278
0.165000000000000008,80.836884724912636102
0.166000000000000009,79.112930734046287284
0.167000000000000010,77.398784175500409788
0.168000000000000010,75.696838258863323290
0.169000000000000011,74.010840361570615187
0.170000000000000012,72.345164642401599053
0.171000000000000013,70.704200433146738192
0.172000000000000014,69.091888187785372111
0.173000000000000015,67.511407983001419097
0.174000000000000016,65.965008270183204786
0.175000000000000017,64.453952825357262668
0.176000000000000018,62.978559682702190514
0.177000000000000018,61.538305548047489424
0.178000000000000019,60.131971362032842876
0.179000000000000020,58.757808232088436284
0.180000000000000021,57.413707085692536225
0.181000000000000022,56.097359569911454003
0.182000000000000023,54.806401587140179288
0.183000000000000024,53.538534217618995115
0.184000000000000025,52.291619548127798112
0.185000000000000026,51.063751090809745392
0.186000000000000026,49.853300072344929106
0.187000000000000027,48.658939965927011428
0.188000000000000028,47.479652304519596839
0.189000000000000029,46.314717134909656693
0.190000000000000030,45.163691526058599379
0.191000000000000031,44.026379402775098981
0.192000000000000032,42.902795697953258980
0.193000000000000033,41.793127454506830531
0.194000000000000034,40.697694102637996139
0.195000000000000034,39.616908720868863725
0.196000000000000035,38.551241683763777246
0.197000000000000036,37.501187721868660674
0.198000000000000037,36.467237080642078695
0.199000000000000038,35.449851170934735478
0.200000000000000039,34.449442856138290381
0.201000000000000040,33.466361320006953406
0.202000000000000041,32.500881301960070857
0.203000000000000042,31.553196369708871316
0.204000000000000042,30.623415817852684739
0.205000000000000043,29.711564730821258706
0.206000000000000044,28.817586724296454292
0.207000000000000045,27.941348876283512936
0.208000000000000046,27.082648372879514653
0.209000000000000047,26.241220420474469677
0.210000000000000048,25.416747012050709742
0.211000000000000049,24.608866177333009517
0.212000000000000050,23.817181392175964305
0.213000000000000050,23.041270869612077377
0.214000000000000051,22.280696501692780487
0.215000000000000052,21.535012266298203087
0.216000000000000053,20.803771955465705901
0.217000000000000054,20.086536120784163728
0.218000000000000055,19.382878166562939271
0.219000000000000056,18.692389552561841981
0.220000000000000057,18.014684094976914253
0.221000000000000058,17.349401377175677652
0.222000000000000058,16.696209300512485640
0.223000000000000059,16.054805820671074201
0.224000000000000060,15.424919926656595948
0.225000000000000061,14.806311928115979626
0.226000000000000062,14.198773122441632921
0.227000000000000063,13.602124916450307524
0.228000000000000064,13.016217478667268637
0.229000000000000065,12.440927997707756703
0.230000000000000066,11.876158620244575914
0.231000000000000066,11.321834138862868713
0.232000000000000067,10.777899495994628154
0.233000000000000068,10.244317165327242236
0.234000000000000069,9.721064466801546899
0.235000000000000070,9.208130865735395076
0.236000000000000071,8.705515300885616981
0.237000000000000072,8.213223580524269707
0.238000000000000073,7.731265879966056964
0.239000000000000073,7.259654368530881641
0.240000000000000074,6.798400988727003380
0.241000000000000075,6.347515405553972201
0.242000000000000076,5.907003139285797566
0.243000000000000077,5.476863890931395140
0.244000000000000078,5.057090065796490563
0.245000000000000079,4.647665497193787409
0.246000000000000080,4.248564369365450233
0.247000000000000081,3.859750336082936606
0.248000000000000081,3.481175829163290381
0.249000000000000082,3.112781549267876535
0.250000000000000111,2.754496129809289151
0.251000000000000112,2.406235963562569857
0.252000000000000113,2.067905180631330886
0.253000000000000114,1.739395765736845734
0.254000000000000115,1.420587802347700990
0.255000000000000115,1.111349830929966087
0.256000000000000116,0.811539308543764548
0.257000000000000117,0.521003157120990101
0.258000000000000118,0.239578388007336690
0.259000000000000119,-0.032907209282038344
0.260000000000000120,-0.296634325679109967
0.261000000000000121,-0.551791349592168134
0.262000000000000122,-0.798573552780069695
0.263000000000000123,-1.037182254846909402
0.264000000000000123,-1.267823975442186057
0.265000000000000124,-1.490709582538266798
0.266000000000000125,-1.706053444433423660
0.267000000000000126,-1.914072592402857209
0.268000000000000127,-2.114985900201914681
0.269000000000000128,-2.309013285920210823
0.270000000000000129,-2.496374941000494285
0.271000000000000130,-2.677290590575667206
0.272000000000000131,-2.851978788645374685
0.273000000000000131,-3.020656251013833948
0.274000000000000132,-3.183537228344735404
0.275000000000000133,-3.340832921159464064
0.276000000000000134,-3.492750938112094250
0.277000000000000135,-3.639494798419322219
0.278000000000000136,-3.781263478906280451
0.279000000000000137,-3.918251005748879745
0.280000000000000138,-4.050646090649842712
0.281000000000000139,-4.178631810878042252
0.282000000000000139,-4.302385332327456346
0.283000000000000140,-4.422077674512144618
0.284000000000000141,-4.537873516205273461
0.285000000000000142,-4.649931040251903624
0.286000000000000143,-4.758401815935133783
0.287000000000000144,-4.863430717151482341
0.288000000000000145,-4.965155874552749538
0.289000000000000146,-5.063708659734910356
0.290000000000000147,-5.159213699500185157
0.291000000000000147,-5.251788918181906851
0.292000000000000148,-5.341545606004038049
0.293000000000000149,-5.428588511444260689
0.294000000000000150,-5.513015955581383132
0.295000000000000151,-5.594919966432197356
0.296000000000000152,-5.674386431318183988
0.297000000000000153,-5.751495265347799091
0.298000000000000154,-5.826320594153758137
0.299000000000000155,-5.898930949085356090
0.300000000000000155,-5.969389473123017709
0.301000000000000156,-6.037754135853704796
0.302000000000000157,-6.104077955922011078
0.303000000000000158,-6.168409229450210418
0.304000000000000159,-6.230791763001904293
0.305000000000000160,-6.291265109746154494
0.306000000000000161,-6.349864807562424218
0.307000000000000162,-6.406622617910107564
0.308000000000000163,-6.461566764369356619
0.309000000000000163,-6.514722169842121602
0.310000000000000164,-6.566110691483265427
0.311000000000000165,-6.615751352510558903
0.312000000000000166,-6.663660570119747995
0.313000000000000167,-6.709852378805559070
0.314000000000000168,-6.754338648461873262
0.315000000000000169,-6.797129296703955603
0.316000000000000170,-6.838232494922435123
0.317000000000000171,-6.877654867642361225
0.318000000000000171,-6.915401684821378403
0.319000000000000172,-6.951477046778885338
0.320000000000000173,-6.985884061502082076
0.321000000000000174,-7.018625014126277151
0.322000000000000175,-7.049701528434857423
0.323000000000000176,-7.079114720269278571
0.324000000000000177,-7.106865342781203410
0.325000000000000178,-7.132953923497763249
0.326000000000000179,-7.157380893206915395
0.327000000000000179,-7.180146706702567272
0.328000000000000180,-7.201251955459473386
0.329000000000000181,-7.220697472335535494
0.330000000000000182,-7.238484428423572759
0.331000000000000183,-7.254614422197559698
0.332000000000000184,-7.269089561117860754
0.333000000000000185,-7.281912535878028336
0.334000000000000186,-7.293086687491191711
0.335000000000000187,-7.302616067427484481
0.336000000000000187,-7.310505491025907077
0.337000000000000188,-7.316760584413225743
0.338000000000000189,-7.321387825171217223
0.339000000000000190,-7.324394576999567974
0.340000000000000191,-7.325789118626831353
0.341000000000000192,-7.325580667225674247
0.342000000000000193,-7.323779396590518687
0.343000000000000194,-7.320396450337284477
0.344000000000000195,-7.315443950384465488
0.345000000000000195,-7.308935000974317475
0.346000000000000196,-7.300883688490570123
0.347000000000000197,-7.291305077326702744
0.348000000000000198,-7.280215202055197565
0.349000000000000199,-7.267631056144040258
0.350000000000000200,-7.253570577462130409
0.351000000000000201,-7.238052630809820975
0.352000000000000202,-7.221096987705176495
0.353000000000000203,-7.202724303650408721
0.354000000000000203,-7.182956093096447781
0.355000000000000204,-7.161814702316652514
0.356000000000000205,-7.139323280393973903
0.357000000000000206,-7.115505748518407003
0.358000000000000207,-7.090386767784120359
0.359000000000000208,-7.063991705668461130
0.360000000000000209,-7.036346601367219122
0.361000000000000210,-7.007478130152915874
0.362000000000000210,-6.977413566915423360
0.363000000000000211,-6.946180749036443558
0.364000000000000212,-6.913808038741946049
0.365000000000000213,-6.880324285069036705
0.366000000000000214,-6.845758785576445682
0.367000000000000215,-6.810141247920417307
0.368000000000000216,-6.773501751410753613
0.369000000000000217,-6.735870708654490890
0.370000000000000218,-6.697278827388151612
0.371000000000000218,-6.657757072592431768
0.372000000000000219,-6.617336628976905111
0.373000000000000220,-6.576048863915938902
0.374000000000000221,-6.533925290910746142
0.375000000000000222,-6.490997533646549300
0.376000000000000223,-6.447297290708266182
0.377000000000000224,-6.402856301012311846
0.378000000000000225,-6.357706310006888017
0.379000000000000226,-6.311879036687987998
0.380000000000000226,-6.265406141473483181
0.381000000000000227,-6.218319194972681707
0.382000000000000228,-6.170649647684630423
0.383000000000000229,-6.122428800653790582
0.384000000000000230,-6.073687777107720009
0.385000000000000231,-6.024457495097686355
0.386000000000000232,-5.974768641159101001
0.387000000000000233,-5.924651645005498679
0.388000000000000234,-5.874136655266182672
0.389000000000000234,-5.823253516274862207
0.390000000000000235,-5.772031745913322354
0.391000000000000236,-5.720500514511728696
0.392000000000000237,-5.668688624804334886
0.393000000000000238,-5.616624492937184243
0.394000000000000239,-5.564336130521858159
0.395000000000000240,-5.511851127727570798
0.396000000000000241,-5.459196637401704244
0.397000000000000242,-5.406399360207160498
0.398000000000000242,-5.353485530763384403
0.399000000000000243,-5.300480904776227575
0.400000000000000244,-5.247410747140442311
0.401000000000000245,-5.194299820997623662
0.402000000000000246,-5.141172377730840459
0.403000000000000247,-5.088052147876507725
0.404000000000000248,-5.034962332933060836
0.405000000000000249,-4.981925598045113368
0.406000000000000250,-4.928964065541132200
0.407000000000000250,-4.876099309302067475
0.408000000000000251,-4.823352349937771066
0.409000000000000252,-4.770743650747725439
0.410000000000000253,-4.718293114442084324
0.411000000000000254,-4.666020080598904940
0.412000000000000255,-4.613943323833103349
0.413000000000000256,-4.562081052652650293
0.414000000000000257,-4.510450908977236217
0.415000000000000258,-4.459069968294908648
0.416000000000000258,-4.407954740431907048
0.417000000000000259,-4.357121170911197439
0.418000000000000260,-4.306584642875301405
0.419000000000000261,-4.256359979549084294
0.420000000000000262,-4.206461447218536875
0.421000000000000263,-4.156902758701734868
0.422000000000000264,-4.107697077288425369
0.423000000000000265,-4.058857021125056086
0.424000000000000266,-4.010394668022489562
0.425000000000000266,-3.962321560663755182
0.426000000000000267,-3.914648712189911173
0.427000000000000268,-3.867386612142227786
0.428000000000000269,-3.820545232739515740
0.429000000000000270,-3.774134035469833837
0.430000000000000271,-3.728161977976158337
0.431000000000000272,-3.682637521216279630
0.432000000000000273,-3.637568636877497763
0.433000000000000274,-3.592962815027316736
0.434000000000000274,-3.548827071981714987
0.435000000000000275,-3.505167958373217374
0.436000000000000276,-3.461991567401454972
0.437000000000000277,-3.419303543249304855
0.438000000000000278,-3.377109089648450357
0.439000000000000279,-3.335412978578563781
0.440000000000000280,-3.294219559084800242
0.441000000000000281,-3.253532766198975246
0.442000000000000282,-3.213356129950214246
0.443000000000000282,-3.173692784451294546
0.444000000000000283,-3.134545477047629980
0.445000000000000284,-3.095916577516157897
0.446000000000000285,-3.057808087301890687
0.447000000000000286,-3.020221648780649470
0.448000000000000287,-2.983158554536539331
0.449000000000000288,-2.946619756643673149
0.450000000000000289,-2.910605875941758569
0.451000000000000290,-2.875117211295827868
0.452000000000000290,-2.840153748830819502
0.453000000000000291,-2.805715171132045160
0.454000000000000292,-2.771800866403226316
0.455000000000000293,-2.738409937573972108
0.456000000000000294,-2.705541211349194786
0.457000000000000295,-2.673193247193242694
0.458000000000000296,-2.641364346241959371
0.459000000000000297,-2.610052560136306266
0.460000000000000298,-2.579255699771480614
0.461000000000000298,-2.548971343955940494
0.462000000000000299,-2.519196847975005760
0.463000000000000300,-2.489929352054065070
0.464000000000000301,-2.461165789716859731
0.465000000000000302,-2.432902896034495832
0.466000000000000303,-2.405137215761241176
0.467000000000000304,-2.377865111353439698
0.468000000000000305,-2.351082770868218486
0.469000000000000306,-2.324786215738838369
0.470000000000000306,-2.298971308423992888
0.471000000000000307,-2.273633759928395115
0.472000000000000308,-2.248769137192491385
0.473000000000000309,-2.224372870349200060
0.474000000000000310,-2.200440259845900748
0.475000000000000311,-2.176966483430107679
0.476000000000000312,-2.153946602997529602
0.477000000000000313,-2.131375571301282967
0.478000000000000314,-2.109248238521395979
0.479000000000000314,-2.087559358693888090
0.480000000000000315,-2.066303595998759679
0.481000000000000316,-2.045475530906646355
0.482000000000000317,-2.025069666183811457
0.483000000000000318,-2.005080432755506070
0.484000000000000319,-1.985502195427730765
0.485000000000000320,-1.966329258467721219
0.486000000000000321,-1.947555871043466835
0.487000000000000322,-1.929176232522835210
0.488000000000000322,-1.911184497632864687
0.489000000000000323,-1.893574781480107605
0.490000000000000324,-1.876341164432745234
0.491000000000000325,-1.859477696865563301
0.492000000000000326,-1.842978403768758877
0.493000000000000327,-1.826837289221827421
0.494000000000000328,-1.811048340733710571
0.495000000000000329,-1.795605533450581159
0.496000000000000330,-1.780502834232615683
0.497000000000000330,-1.765734205601296125
0.498000000000000331,-1.751293609558700837
0.499000000000000332,-1.737175011280460923
0.500000000000000333,-1.723372382683997284
0.501000000000000334,-1.709879705873724731
0.502000000000000335,-1.696690976465028644
0.503000000000000336,-1.683800206788781839
0.504000000000000337,-1.671201428978224879
0.505000000000000338,-1.658888697940108070
0.506000000000000338,-1.646856094211978982
0.507000000000000339,-1.635097726707546384
0.508000000000000340,-1.623607735352068815
0.509000000000000341,-1.612380293609775972
0.510000000000000342,-1.601409610905258463
0.511000000000000343,-1.590689934940887618
0.512000000000000344,-1.580215553912241999
0.513000000000000345,-1.569980798623595630
0.514000000000000346,-1.559980044505519636
0.515000000000000346,-1.550207713536577270
0.516000000000000347,-1.540658276071213084
0.517000000000000348,-1.531326252575872626
0.518000000000000349,-1.522206215275349717
0.519000000000000350,-1.513292789711443653
0.520000000000000351,-1.504580656215934731
0.521000000000000352,-1.496064551299907341
0.522000000000000353,-1.487739268961425498
0.523000000000000353,-1.479599661913557851
0.524000000000000354,-1.471640642734768800
0.525000000000000355,-1.463857184943608170
0.526000000000000356,-1.456244323999683843
0.527000000000000357,-1.448797158232874249
0.528000000000000358,-1.441510849702649200
0.529000000000000359,-1.434380624989480824
0.530000000000000360,-1.427401775920153826
0.531000000000000361,-1.420569660228904851
0.532000000000000361,-1.413879702156179086
0.533000000000000362,-1.407327392986873260
0.534000000000000363,-1.400908291529819660
0.535000000000000364,-1.394618024540316359
0.536000000000000365,-1.388452287087427628
0.537000000000000366,-1.382406842867806018
0.538000000000000367,-1.376477524467685898
0.539000000000000368,-1.370660233574798603
0.540000000000000369,-1.364950941141756413
0.541000000000000369,-1.359345687502621747
0.542000000000000370,-1.353840582444172824
0.543000000000000371,-1.348431805233474279
0.544000000000000372,-1.343115604603289270
0.545000000000000373,-1.337888298696819911
0.546000000000000374,-1.332746274973266809
0.547000000000000375,-1.327685990075661682
0.548000000000000376,-1.322703969662415879
0.549000000000000377,-1.317796808203941961
0.550000000000000377,-1.312961168745744533
0.551000000000000378,-1.308193782639320402
0.552000000000000379,-1.303491449242170974
0.553000000000000380,-1.298851035588217240
0.554000000000000381,-1.294269476029853649
0.555000000000000382,-1.289743771852929211
0.556000000000000383,-1.285270990865759799
0.557000000000000384,-1.280848266963447113
0.558000000000000385,-1.276472799668568747
0.559000000000000385,-1.272141853649419341
0.560000000000000386,-1.267852758216847286
0.561000000000000387,-1.263602906800784575
0.562000000000000388,-1.259389756407494509
0.563000000000000389,-1.255210827058555800
0.564000000000000390,-1.251063701212560275
0.565000000000000391,-1.246946023170502293
0.566000000000000392,-1.242855498465775144
0.567000000000000393,-1.238789893239713669
0.568000000000000393,-1.234747033603530664
0.569000000000000394,-1.230724804987545884
0.570000000000000395,-1.226721151478532779
0.571000000000000396,-1.222734075145976540
0.572000000000000397,-1.218761635358083906
0.573000000000000398,-1.214801948088247263
0.574000000000000399,-1.210853185212777294
0.575000000000000400,-1.206913573800563411
0.576000000000000401,-1.202981395395407826
0.577000000000000401,-1.199054985291706732
0.578000000000000402,-1.195132731804112947
0.579000000000000403,-1.191213075531827092
0.580000000000000404,-1.187294508618172761
0.581000000000000405,-1.183375574005984587
0.582000000000000406,-1.179454864689447380
0.583000000000000407,-1.175531022962905459
0.584000000000000408,-1.171602739667207072
0.585000000000000409,-1.167668753434083051
0.586000000000000409,-1.163727849929077074
0.587000000000000410,-1.159778861093515578
0.588000000000000411,-1.155820664385956764
0.589000000000000412,-1.151852182023614946
0.590000000000000413,-1.147872380224142841
0.591000000000000414,-1.143880268448222326
0.592000000000000415,-1.139874898643369772
0.593000000000000416,-1.135855364489298358
0.594000000000000417,-1.131820800645256142
0.595000000000000417,-1.127770381999686045
0.596000000000000418,-1.123703322922494197
0.597000000000000419,-1.119618876520355411
0.598000000000000420,-1.115516333895254064
0.599000000000000421,-1.111395023406653859
0.600000000000000422,-1.107254309937524939
0.601000000000000423,-1.103093594164514135
0.602000000000000424,-1.098912311832539013
0.603000000000000425,-1.094709933034033744
0.604000000000000425,-1.090485961493075751
0.605000000000000426,-1.086239933854634021
0.606000000000000427,-1.081971418979182697
0.607000000000000428,-1.077680017242759858
0.608000000000000429,-1.073365359842871403
0.609000000000000430,-1.069027108110174762
0.610000000000000431,-1.064664952826342326
0.611000000000000432,-1.060278613548101712
0.612000000000000433,-1.055867837937671583
0.613000000000000433,-1.051432401099755776
