# hydroxyapatite-010-ph10_DMEP-AC
# h[nm],U(h)[kJ/mol]
0.149999999999999994,127.186684133903554539
0.150999999999999995,124.275857038843156488
0.151999999999999996,121.619371224253242758
0.152999999999999997,119.039953925538085855
0.153999999999999998,116.480562394433576401
0.154999999999999999,113.937590926450255324
0.156000000000000000,111.425838835021338014
0.157000000000000001,108.961829745515572654
0.158000000000000002,106.557235279277819018
0.159000000000000002,104.217470012801712187
0.160000000000000003,101.942614930113819582
0.161000000000000004,99.729116605513269178
0.162000000000000005,97.571483114059518016
0.163000000000000006,95.463644067047795261
0.164000000000000007,93.399885439161764111
0.165000000000000008,91.375390604693592422
0.166000000000000009,89.386468682763776883
0.167000000000000010,87.430562064733507555
0.168000000000000010,85.506116418170705629
0.169000000000000011,83.612379983869971056
0.170000000000000012,81.749180948607289565
0.171000000000000013,79.916715289452767479
0.172000000000000014,78.115364085683012263
0.173000000000000015,76.345549172252219705
0.174000000000000016,74.607628911339816113
0.175000000000000017,72.901831293586653260
0.176000000000000018,71.228218992324045189
0.177000000000000018,69.586679856351253193
0.178000000000000019,67.976936187293517833
0.179000000000000020,66.398566642102579749
0.180000000000000021,64.851035452074484056
0.181000000000000022,63.333724655601130848
0.182000000000000023,61.845966064995899103
0.183000000000000024,60.387070640481418593
0.184000000000000025,58.956353776955531032
0.185000000000000026,57.553155698917336736
0.186000000000000026,56.176856702144561950
0.187000000000000027,54.826887385647729900
0.188000000000000028,53.502734299405631191
0.189000000000000029,52.203941611149332402
0.190000000000000030,50.930109488629391024
0.191000000000000031,49.680889921239959506
0.192000000000000032,48.455980683693510969
0.193000000000000033,47.255118089469853260
0.194000000000000034,46.078069105381700865
0.195000000000000034,44.924623310747691107
0.196000000000000035,43.794585093044752000
0.197000000000000036,42.687766382234293872
0.198000000000000037,41.603980142220528649
0.199000000000000038,40.543034762700372653
0.200000000000000039,39.504729429466735269
0.201000000000000040,38.488850496613423502
0.202000000000000041,37.495168839994349241
0.203000000000000042,36.523438137175546103
0.204000000000000042,35.573393994135450669
0.205000000000000043,34.644753822087295703
0.206000000000000044,33.737217357886564173
0.207000000000000045,32.850467717412087154
0.208000000000000046,31.984172871963295393
0.209000000000000047,31.137987442071914046
0.210000000000000048,30.311554710249243527
0.211000000000000049,29.504508763261167559
0.212000000000000050,28.716476684830389843
0.213000000000000050,27.947080730620154299
0.214000000000000051,27.195940428466297334
0.215000000000000052,26.462674557712126955
0.216000000000000053,25.746902971867136500
0.217000000000000054,25.048248238440702806
0.218000000000000055,24.366337078546997930
0.219000000000000056,23.700801596651380976
0.220000000000000057,23.051280297584309409
0.221000000000000058,22.417418893690431503
0.222000000000000058,21.798870909726520750
0.223000000000000059,21.195298096930383025
0.224000000000000060,20.606370670613308960
0.225000000000000061,20.031767387761910015
0.226000000000000062,19.471175482554048841
0.227000000000000063,18.924290478483651867
0.228000000000000064,18.390815896038681387
0.229000000000000065,17.870462874666884545
0.230000000000000066,17.362949727177884540
0.231000000000000066,16.868001443839251152
0.232000000000000067,16.385349162299316816
0.233000000000000068,15.914729618170042613
0.234000000000000069,15.455884589685606301
0.235000000000000070,15.008560348363525705
0.236000000000000071,14.572507126076818196
0.237000000000000072,14.147478607431906994
0.238000000000000073,13.733231454867546262
0.239000000000000073,13.329524872468550001
0.240000000000000074,12.936120213140464230
0.241000000000000075,12.552780632535391447
0.242000000000000076,12.179270791961249287
0.243000000000000077,11.815356611454944868
0.244000000000000078,11.460805073257755993
0.245000000000000079,11.115384075098614147
0.246000000000000080,10.778862331967959065
0.247000000000000081,10.451009324446806303
0.248000000000000081,10.131595291139969817
0.249000000000000082,9.820391262342699434
0.250000000000000111,9.517169131739672494
0.251000000000000112,9.221701762689146875
0.252000000000000113,8.933763125473344502
0.253000000000000114,8.653128461795509097
0.254000000000000115,8.379574472762310933
0.255000000000000115,8.112879526605038194
0.256000000000000116,7.852823882453549231
0.257000000000000117,7.599189926578596044
0.258000000000000118,7.351762417654692960
0.259000000000000119,7.110328737759436635
0.260000000000000120,6.874679146012215192
0.261000000000000121,6.644607031960541477
0.262000000000000122,6.419909166039285076
0.263000000000000123,6.200385944655527837
0.264000000000000123,5.985841627682791710
0.265000000000000124,5.776084566382587049
0.266000000000000125,5.570927420003149777
0.267000000000000126,5.370187359534563498
0.268000000000000127,5.173686257321927329
0.269000000000000128,4.981250861454217471
0.270000000000000129,4.792712954052644747
0.271000000000000130,4.607909492778364147
0.272000000000000131,4.426682735064580321
0.273000000000000131,4.248880344751007065
0.274000000000000132,4.074355480959651388
0.275000000000000133,3.902966869198734035
0.276000000000000134,3.734578854817258708
0.277000000000000135,3.569061439055567497
0.278000000000000136,3.406290298047257359
0.279000000000000137,3.246146785226045495
0.280000000000000138,3.088517917677378932
0.281000000000000139,2.933296347049159980
0.282000000000000139,2.780380315699997329
0.283000000000000140,2.629673598816575808
0.284000000000000141,2.481085433275645347
0.285000000000000142,2.334530434060354764
0.286000000000000143,2.189928499066581491
0.287000000000000144,2.047204703153005845
0.288000000000000145,1.906289182298892770
0.289000000000000146,1.767117008738013251
0.290000000000000147,1.629628057934404906
0.291000000000000147,1.493766868258563196
0.292000000000000148,1.359482494209562464
0.293000000000000149,1.226728354012228683
0.294000000000000150,1.095462072397374254
0.295000000000000151,0.965645319349163200
0.296000000000000152,0.837243645576866591
0.297000000000000153,0.710226315438828415
0.298000000000000154,0.584566138015268022
0.299000000000000155,0.460239296993618485
0.300000000000000155,0.337225179995970459
0.301000000000000156,0.215506207943352290
0.302000000000000157,0.095067665015629021
0.303000000000000158,-0.024102470269754851
0.304000000000000159,-0.142013692373276157
0.305000000000000160,-0.258673133991790372
0.306000000000000161,-0.374085728844277710
0.307000000000000162,-0.488254371604186388
0.308000000000000163,-0.601180074631839756
0.309000000000000163,-0.712862121193896581
0.310000000000000164,-0.823298214889352176
0.311000000000000165,-0.932484625032967029
0.312000000000000166,-1.040416327777404337
0.313000000000000167,-1.147087142784397829
0.314000000000000168,-1.252489865283182180
0.315000000000000169,-1.356616393381007368
0.316000000000000170,-1.459457850515821331
0.317000000000000171,-1.561004702965098634
0.318000000000000171,-1.661246872347262649
0.319000000000000172,-1.760173843073671973
0.320000000000000173,-1.857774764728610917
0.321000000000000174,-1.954038549373549261
0.322000000000000175,-2.048953963789101884
0.323000000000000176,-2.142509716684016574
0.324000000000000177,-2.234694540915310945
0.325000000000000178,-2.325497270777044712
0.326000000000000179,-2.414906914427708884
0.327000000000000179,-2.502912721537126295
0.328000000000000180,-2.589504246244054286
0.329000000000000181,-2.674671405524581491
0.330000000000000182,-2.758404533079372722
0.331000000000000183,-2.840694428855049303
0.332000000000000184,-2.921532404320887455
0.333000000000000185,-3.000910323627438814
0.334000000000000186,-3.078820640778106021
0.335000000000000187,-3.155256432948273737
0.336000000000000187,-3.230211430089787505
0.337000000000000188,-3.303680040960421227
0.338000000000000189,-3.375657375720089615
0.339000000000000190,-3.446139265236305871
0.340000000000000191,-3.515122277241775173
0.341000000000000192,-3.582603729487418232
0.342000000000000193,-3.648581700033133757
0.343000000000000194,-3.713055034818123268
0.344000000000000195,-3.776023352650814680
0.345000000000000195,-3.837487047757382808
0.346000000000000196,-3.897447290025184863
0.347000000000000197,-3.955906023075665079
0.348000000000000198,-4.012865960298506174
0.349000000000000199,-4.068330578975994705
0.350000000000000200,-4.122304112623768724
0.351000000000000201,-4.174791541670808570
0.352000000000000202,-4.225798582598186748
0.353000000000000203,-4.275331675652855878
0.354000000000000203,-4.323397971249027805
0.355000000000000204,-4.370005315166025639
0.356000000000000205,-4.415162232647980467
0.357000000000000206,-4.458877911506900382
0.358000000000000207,-4.501162184326652493
0.359000000000000208,-4.542025509861916888
0.360000000000000209,-4.581478953722209368
0.361000000000000210,-4.619534168427070320
0.362000000000000210,-4.656203372915113547
0.363000000000000211,-4.691499331585481158
0.364000000000000212,-4.725435332946831046
0.365000000000000213,-4.758025167945058698
0.366000000000000214,-4.789283108037539094
0.367000000000000215,-4.819223883077919268
0.368000000000000216,-4.847862659072258218
0.369000000000000217,-4.875215015863554768
0.370000000000000218,-4.901296924798722365
0.371000000000000218,-4.926124726428500189
0.372000000000000219,-4.949715108287842114
0.373000000000000220,-4.972085082801202205
0.374000000000000221,-4.993251965354025046
0.375000000000000222,-5.013233352568930101
0.376000000000000223,-5.032047100822454766
0.377000000000000224,-5.049711305035153863
0.378000000000000225,-5.066244277765596493
0.379000000000000226,-5.081664528636023803
0.380000000000000226,-5.095990744115312054
0.381000000000000227,-5.109241767682165758
0.382000000000000228,-5.121436580389717719
0.383000000000000229,-5.132594281850186846
0.384000000000000230,-5.142734071656407835
0.385000000000000231,-5.151875231255187870
0.386000000000000232,-5.160037106285307651
0.387000000000000233,-5.167239089391613582
0.388000000000000234,-5.173500603524574970
0.389000000000000234,-5.178841085733502325
0.390000000000000235,-5.183279971459761271
0.391000000000000236,-5.186836679335159239
0.392000000000000237,-5.189530596489190017
0.393000000000000238,-5.191381064367706522
0.394000000000000239,-5.192407365064183544
0.395000000000000240,-5.192628708163911533
0.396000000000000241,-5.192064218100189699
0.397000000000000242,-5.190732922020663054
0.398000000000000242,-5.188653738161220552
0.399000000000000243,-5.185845464723678688
0.400000000000000244,-5.182326769253076115
0.401000000000000245,-5.178116178509429623
0.402000000000000246,-5.173232068828198749
0.403000000000000247,-5.167692656963117415
0.404000000000000248,-5.161515991404513670
0.405000000000000249,-5.154719944165651491
0.406000000000000250,-5.147322203029204069
0.407000000000000250,-5.139340264245597645
0.408000000000000251,-5.130791425674490647
0.409000000000000252,-5.121692780360410424
0.410000000000000253,-5.112061210533227928
0.411000000000000254,-5.101913382023887777
0.412000000000000255,-5.091265739085602426
0.413000000000000256,-5.080134499610595711
0.414000000000000257,-5.068535650732104436
0.415000000000000258,-5.056484944801554526
0.416000000000000258,-5.043997895730397474
0.417000000000000259,-5.031089775686244714
0.418000000000000260,-5.017775612132751917
0.419000000000000261,-5.004070185202790455
0.420000000000000262,-4.989988025394304749
0.421000000000000263,-4.975543411578459363
0.422000000000000264,-4.960750369309446128
0.423000000000000265,-4.945622669425631557
0.424000000000000266,-4.930173826931723902
0.425000000000000266,-4.914417100151528217
0.426000000000000267,-4.898365490141277867
0.427000000000000268,-4.882031740353374616
0.428000000000000269,-4.865428336540617238
0.429000000000000270,-4.848567506891130030
0.430000000000000271,-4.831461222384260346
0.431000000000000272,-4.814121197358000259
0.432000000000000273,-4.796558890278483034
0.433000000000000274,-4.778785504702433684
0.434000000000000274,-4.760811990423507112
0.435000000000000275,-4.742649044793659563
0.436000000000000276,-4.724307114210949621
0.437000000000000277,-4.705796395765188045
0.438000000000000278,-4.687126839033251890
0.439000000000000279,-4.668308148015933412
0.440000000000000280,-4.649349783208394982
0.441000000000000281,-4.630260963796557050
0.442000000000000282,-4.611050669971980653
0.443000000000000282,-4.591727645357811305
0.444000000000000283,-4.572300399538830717
0.445000000000000284,-4.552777210688634391
0.446000000000000285,-4.533166128287229313
0.447000000000000286,-4.513474975922676435
0.448000000000000287,-4.493711354170311090
0.449000000000000288,-4.473882643543613646
0.450000000000000289,-4.453996007510701460
0.451000000000000290,-4.434058395570806610
0.452000000000000290,-4.414076546385262034
0.453000000000000291,-4.394056990957553310
0.454000000000000292,-4.374006055857472042
0.455000000000000293,-4.353929866484270939
0.456000000000000294,-4.333834350364178079
0.457000000000000295,-4.313725240477633172
0.458000000000000296,-4.293608078611844014
0.459000000000000297,-4.273488218734474486
0.460000000000000298,-4.253370830384351819
0.461000000000000298,-4.233260902075360654
0.462000000000000299,-4.213163244709772215
0.463000000000000300,-4.193082494997426579
0.464000000000000301,-4.173023118877415172
0.465000000000000302,-4.152989414938970114
0.466000000000000303,-4.132985517838469569
0.467000000000000304,-4.113015401709617436
0.468000000000000305,-4.093082883563964103
0.469000000000000306,-4.073191626679109056
0.470000000000000306,-4.053345143972100217
0.471000000000000307,-4.033546801355478273
0.472000000000000308,-4.013799821073880558
0.473000000000000309,-3.994107285018925868
0.474000000000000310,-3.974472138020368028
0.475000000000000311,-3.954897191111651722
0.476000000000000312,-3.935385124768047582
0.477000000000000313,-3.915938492115655922
0.478000000000000314,-3.896559722109725676
0.479000000000000314,-3.877251122680825723
0.480000000000000315,-3.858014883847432852
0.481000000000000316,-3.838853080793739991
0.482000000000000317,-3.819767676911403065
0.483000000000000318,-3.800760526804219275
0.484000000000000319,-3.781833379254651906
0.485000000000000320,-3.762987880151338338
0.486000000000000321,-3.744225575376686432
0.487000000000000322,-3.725547913653836751
0.488000000000000322,-3.706956249352206356
0.489000000000000323,-3.688451845251154104
0.490000000000000324,-3.670035875261047131
0.491000000000000325,-3.651709427101353267
0.492000000000000326,-3.633473504935256670
0.493000000000000327,-3.615329031960532014
0.494000000000000328,-3.597276852956255766
0.495000000000000329,-3.579317736785235127
0.496000000000000330,-3.561452378851806877
0.497000000000000330,-3.543681403515054118
0.498000000000000331,-3.526005366457108714
0.499000000000000332,-3.508424757006743278
0.500000000000000333,-3.490940000418052414
0.501000000000000334,-3.473551460104329802
0.502000000000000335,-3.456259439827243707
0.503000000000000336,-3.439064185841382848
0.504000000000000337,-3.421965888994339622
0.505000000000000338,-3.404964686782513184
0.506000000000000338,-3.388060665362840673
0.507000000000000339,-3.371253861520718598
0.508000000000000340,-3.354544264594342629
0.509000000000000341,-3.337931818355872160
0.510000000000000342,-3.321416422849590155
0.511000000000000343,-3.304997936187571206
0.512000000000000344,-3.288676176303091836
0.513000000000000345,-3.272450922662259565
0.514000000000000346,-3.256321917934275056
0.515000000000000346,-3.240288869620694179
0.516000000000000347,-3.224351451644183353
0.517000000000000348,-3.208509305897252695
0.518000000000000349,-3.192762043751367518
0.519000000000000350,-3.177109247527024394
0.520000000000000351,-3.161550471925185235
0.521000000000000352,-3.146085245420713328
0.522000000000000353,-3.130713071618188792
0.523000000000000353,-3.115433430570747397
0.524000000000000354,-3.100245780062451217
0.525000000000000355,-3.085149556854692943
0.526000000000000356,-3.070144177897248916
0.527000000000000357,-3.055229041504513354
0.528000000000000358,-3.040403528497455543
0.529000000000000359,-3.025667003311919068
0.530000000000000360,-3.011018815073758681
0.531000000000000361,-2.996458298641480056
0.532000000000000361,-2.981984775616857153
0.533000000000000362,-2.967597555324187120
0.534000000000000363,-2.953295935758700086
0.535000000000000364,-2.939079204504740694
0.536000000000000365,-2.924946639624253386
0.537000000000000366,-2.910897510516204711
0.538000000000000367,-2.896931078747431165
0.539000000000000368,-2.883046598855597775
0.540000000000000369,-2.869243319124702207
0.541000000000000369,-2.855520482333824717
0.542000000000000370,-2.841877326479563148
0.543000000000000371,-2.828313085472808019
0.544000000000000372,-2.814826989810353730
0.545000000000000373,-2.801418267221936098
0.546000000000000374,-2.788086143293204255
0.547000000000000375,-2.774829842065186458
0.548000000000000376,-2.761648586610809808
0.549000000000000377,-2.748541599588969042
0.550000000000000377,-2.735508103776684408
0.551000000000000378,-2.722547322579861095
0.552000000000000379,-2.709658480523196911
0.553000000000000380,-2.696840803719702695
0.554000000000000381,-2.684093520320342652
0.555000000000000382,-2.671415860944359899
0.556000000000000383,-2.658807059090642078
0.557000000000000384,-2.646266351530770944
0.558000000000000385,-2.633792978684076136
0.559000000000000385,-2.621386184975288636
0.560000000000000386,-2.609045219175180730
0.561000000000000387,-2.596769334724672973
0.562000000000000388,-2.584557790042850023
0.563000000000000389,-2.572409848819340539
0.564000000000000390,-2.560324780291476809
0.565000000000000391,-2.548301859506671097
0.566000000000000392,-2.536340367570416365
0.567000000000000393,-2.524439591880365263
0.568000000000000393,-2.512598826346819969
0.569000000000000394,-2.500817371600086769
0.570000000000000395,-2.489094535185100376
0.571000000000000396,-2.477429631743611971
0.572000000000000397,-2.465821983184441013
0.573000000000000398,-2.454270918842051508
0.574000000000000399,-2.442775775623882151
0.575000000000000400,-2.431335898146758545
0.576000000000000401,-2.419950638862715664
0.577000000000000401,-2.408619358174649339
0.578000000000000402,-2.397341424542022814
0.579000000000000403,-2.386116214577018280
0.580000000000000404,-2.374943113131478434
0.581000000000000405,-2.363821513374867678
0.582000000000000406,-2.352750816863645511
0.583000000000000407,-2.341730433602286610
0.584000000000000408,-2.330759782096283317
0.585000000000000409,-2.319838289397397890
0.586000000000000409,-2.308965391141430956
0.587000000000000410,-2.298140531578833468
0.588000000000000411,-2.287363163598333582
0.589000000000000412,-2.276632748743964818
0.590000000000000413,-2.265948757225615395
0.591000000000000414,-2.255310667923458912
0.592000000000000415,-2.244717968386450657
0.593000000000000416,-2.234170154825124488
0.594000000000000417,-2.223666732098936727
0.595000000000000417,-2.213207213698422660
0.596000000000000418,-2.202791121722253997
0.597000000000000419,-2.192417986849596989
0.598000000000000420,-2.182087348307788055
0.599000000000000421,-2.171798753835695539
0.600000000000000422,-2.161551759642839965
0.601000000000000423,-2.151345930364528591
0.602000000000000424,-2.141180839013181902
0.603000000000000425,-2.131056066926033665
0.604000000000000425,-2.120971203709340891
0.605000000000000426,-2.110925847179342618
0.606000000000000427,-2.100919603300113625
0.607000000000000428,-2.090952086118378794
0.608000000000000429,-2.081022917695658059
0.609000000000000430,-2.071131728037629571
0.610000000000000431,-2.061278155021102787
0.611000000000000432,-2.051461844318573924
0.612000000000000433,-2.041682449320576076
0.613000000000000433,-2.031939631055972750
