# hydroxyapatite-010-ph10_NC4-AC
# h[nm],U(h)[kJ/mol]
0.149999999999999994,187.665987785370191432
0.150999999999999995,184.669154557508392145
0.151999999999999996,181.696598556642243238
0.152999999999999997,178.769523160646599536
0.153999999999999998,175.893235561251884747
0.154999999999999999,173.066251185174081684
0.156000000000000000,170.284976437762168189
0.157000000000000001,167.545862681844255349
0.158000000000000002,164.846191643197869325
0.159000000000000002,162.184181420954956820
0.160000000000000003,159.558805265938559614
0.161000000000000004,156.969532527669031197
0.162000000000000005,154.416092304142864577
0.163000000000000006,151.898298363649985276
0.164000000000000007,149.415941001374392272
0.165000000000000008,146.968736018830838930
0.166000000000000009,144.556315530260519608
0.167000000000000010,142.178245152810887930
0.168000000000000010,139.834054503677919001
0.169000000000000011,137.523271167740659848
0.170000000000000012,135.245451522582186499
0.171000000000000013,133.000204583696728378
0.172000000000000014,130.787207203042100900
0.173000000000000015,128.606210512628450715
0.174000000000000016,126.457038521752991755
0.175000000000000017,124.339580353031507798
0.176000000000000018,122.253777844660106666
0.177000000000000018,120.199610251576132214
0.178000000000000019,118.177077628456345337
0.179000000000000020,116.186184237989706958
0.180000000000000021,114.226923047681083290
0.181000000000000022,112.299262092534490876
0.182000000000000023,110.403133212615244929
0.183000000000000024,108.538423437769253610
0.184000000000000025,106.704969093831167015
0.185000000000000026,104.902552547610213196
0.186000000000000026,103.130901390527128569
0.187000000000000027,101.389689779544468706
0.188000000000000028,99.678541604327378423
0.189000000000000029,97.997035126213745571
0.190000000000000030,96.344708732346987290
0.191000000000000031,94.721067462304674223
0.192000000000000032,93.125589990296433029
0.193000000000000033,91.557735779638278473
0.194000000000000034,90.016952164503749145
0.195000000000000034,88.502681154259462915
0.196000000000000035,87.014365795953011684
0.197000000000000036,85.551455969177041538
0.198000000000000037,84.113413523465027311
0.199000000000000038,82.699716700848014739
0.200000000000000039,81.309863814784051783
0.201000000000000040,79.943376181175509032
0.202000000000000041,78.599800317625891921
0.203000000000000042,77.278709443602821239
0.204000000000000042,75.979704327017856258
0.205000000000000043,74.702413532232895932
0.206000000000000044,73.446493131004274346
0.207000000000000045,72.211625941768190273
0.208000000000000046,70.997520364324898878
0.209000000000000047,69.803908876760985436
0.210000000000000048,68.630546259707230661
0.211000000000000049,67.477207610077996947
0.212000000000000050,66.343686202565990584
0.213000000000000050,65.229791252629041765
0.214000000000000051,64.135345629723829575
0.215000000000000052,63.060183564305454240
0.216000000000000053,62.004148386784336822
0.217000000000000054,60.967090331339548470
0.218000000000000055,59.948864432340791097
0.219000000000000056,58.949328536212213692
0.220000000000000057,57.968341446936747730
0.221000000000000058,57.005761219105295368
0.222000000000000058,56.061443608476551503
0.223000000000000059,55.135240686459020765
0.224000000000000060,54.226999621754202963
0.225000000000000061,53.336561629610358182
0.226000000000000062,52.463761086716921511
0.227000000000000063,51.608424807706434478
0.228000000000000064,50.770371477504944835
0.229000000000000065,49.949411232356439427
0.230000000000000066,49.145345381225340020
0.231000000000000066,48.357966258418478844
0.232000000000000067,47.587057197647524731
0.233000000000000068,46.832392617342364360
0.234000000000000069,46.093738206803678281
0.235000000000000070,45.370851202725226869
0.236000000000000071,44.663480745697874852
0.237000000000000072,43.971368306510008495
0.238000000000000073,43.294248172359935722
0.239000000000000073,42.631847983480874120
0.240000000000000074,41.983889311125651034
0.241000000000000075,41.350088268359186827
0.242000000000000076,40.730156145641139176
0.243000000000000077,40.123800063743026101
0.244000000000000078,39.530723637119457692
0.245000000000000079,38.950627641434486748
0.246000000000000080,38.383210679524900399
0.247000000000000081,37.828169840651966638
0.248000000000000081,37.285201348452211789
0.249000000000000082,36.754001193535685843
0.250000000000000111,36.234265747198456609
0.251000000000000112,35.725692353207975316
0.252000000000000113,35.227979895085589135
0.253000000000000114,34.740829336748845435
0.254000000000000115,34.263944234783636489
0.255000000000000115,33.797031220995492617
0.256000000000000116,33.339800454238073257
0.257000000000000117,32.891966040836315699
0.258000000000000118,32.453246423212952720
0.259000000000000119,32.023364736589179813
0.260000000000000120,31.602049133865847352
0.261000000000000121,31.189033079001681870
0.262000000000000122,30.784055609389167074
0.263000000000000123,30.386861567891095603
0.264000000000000123,29.997201805339567926
0.265000000000000124,29.614833354418884426
0.266000000000000125,29.239519575953135444
0.267000000000000126,28.871030278701891092
0.268000000000000127,28.509141813832620471
0.269000000000000128,28.153637145290048238
0.270000000000000129,27.804305897319387952
0.271000000000000130,27.460944380425452493
0.272000000000000131,27.123355597063557809
0.273000000000000131,26.791349228361866608
0.274000000000000132,26.464741603169862572
0.275000000000000133,26.143355650714816818
0.276000000000000134,25.827020838128312619
0.277000000000000135,25.515573094079826433
0.278000000000000136,25.208854719722957327
0.279000000000000137,24.906714288125478163
0.280000000000000138,24.609006533315646692
0.281000000000000139,24.315592230035640853
0.282000000000000139,24.026338065249287723
0.283000000000000140,23.741116502405553490
0.284000000000000141,23.459805639412383726
0.285000000000000142,23.182289061227699278
0.286000000000000143,22.908455687926153388
0.287000000000000144,22.638199619052024048
0.288000000000000145,22.371419975020209847
0.289000000000000146,22.108020736280149521
0.290000000000000147,21.847910580909985612
0.291000000000000147,21.591002721262938735
0.292000000000000148,21.337214740242330890
0.293000000000000149,21.086468427738516596
0.294000000000000150,20.838689617718603841
0.295000000000000151,20.593808026418798818
0.296000000000000152,20.351757092050199560
0.297000000000000153,20.112473816391162273
0.298000000000000154,19.875898608603172590
0.299000000000000155,19.641975131573083502
0.300000000000000155,19.410650151051545009
0.301000000000000156,19.181873387827046429
0.302000000000000157,18.955597373144989604
0.303000000000000158,18.731777307554345668
0.304000000000000159,18.510370923337802651
0.305000000000000160,18.291338350657483147
0.306000000000000161,18.074641987525158271
0.307000000000000162,17.860246373684766752
0.308000000000000163,17.648118068475220355
0.309000000000000163,17.438225532723215849
0.310000000000000164,17.230539014698603495
0.311000000000000165,17.025030440149500066
0.312000000000000166,16.821673306419647531
0.313000000000000167,16.620442580637615038
0.314000000000000168,16.421314601955376844
0.315000000000000169,16.224266987802778317
0.316000000000000170,16.029278544114756500
0.317000000000000171,15.836329179479111673
0.318000000000000171,15.645399823144959583
0.319000000000000172,15.456472346824650543
0.320000000000000173,15.269529490215944634
0.321000000000000174,15.084554790165828564
0.322000000000000175,14.901532513392378831
0.323000000000000176,14.720447592677402326
0.324000000000000177,14.541285566438920895
0.325000000000000178,14.364032521589942704
0.326000000000000179,14.188675039587502980
0.327000000000000179,14.015200145574535640
0.328000000000000180,13.843595260515428436
0.329000000000000181,13.673848156225645312
0.330000000000000182,13.505946913195078452
0.331000000000000183,13.339879881104838688
0.332000000000000184,13.175635641937242681
0.333000000000000185,13.013202975579597265
0.334000000000000186,12.852570827822763277
0.335000000000000187,12.693728280656845442
0.336000000000000187,12.536664524767342499
0.337000000000000188,12.381368834136917911
0.338000000000000189,12.227830542659015478
0.339000000000000190,12.076039022671796630
0.340000000000000191,11.925983665322574367
0.341000000000000192,11.777653862674846152
0.342000000000000193,11.631038991472355093
0.343000000000000194,11.486128398476463275
0.344000000000000195,11.342911387295878001
0.345000000000000195,11.201377206629434369
0.346000000000000196,11.061515039845561503
0.347000000000000197,10.923313995824129208
0.348000000000000198,10.786763100988776998
0.349000000000000199,10.651851292460401410
0.350000000000000200,10.518567412264681948
0.351000000000000201,10.386900202529066206
0.352000000000000202,10.256838301606999053
0.353000000000000203,10.128370241069491797
0.354000000000000203,10.001484443506516442
0.355000000000000204,9.876169221083079819
0.356000000000000205,9.752412774797010186
0.357000000000000206,9.630203194387700449
0.358000000000000207,9.509528458847494647
0.359000000000000208,9.390376437489290851
0.360000000000000209,9.272734891526059897
0.361000000000000210,9.156591476120322426
0.362000000000000210,9.041933742863246692
0.363000000000000211,8.928749142645250103
0.364000000000000212,8.817025028881786852
0.365000000000000213,8.706748661059837247
0.366000000000000214,8.597907208572483029
0.367000000000000215,8.490487754810601473
0.368000000000000216,8.384477301482309741
0.369000000000000217,8.279862773132750320
0.370000000000000218,8.176631021837863500
0.371000000000000218,8.074768832047805489
0.372000000000000219,7.974262925556726778
0.373000000000000220,7.875099966577224109
0.374000000000000221,7.777266566899124101
0.375000000000000222,7.680749291113508903
0.376000000000000223,7.585534661884002716
0.377000000000000224,7.491609165248794611
0.378000000000000225,7.398959255937766599
0.379000000000000226,7.307571362690360672
0.380000000000000226,7.217431893560600997
0.381000000000000227,7.128527241197086362
0.382000000000000228,7.040843788086266208
0.383000000000000229,6.954367911748510878
0.384000000000000230,6.869085989877325105
0.385000000000000231,6.784984405412584962
0.386000000000000232,6.702049551539983163
0.387000000000000233,6.620267836608951129
0.388000000000000234,6.539625688962655836
0.389000000000000234,6.460109561673827550
0.390000000000000235,6.381705937181147092
0.391000000000000236,6.304401331821289922
0.392000000000000237,6.228182300252425918
0.393000000000000238,6.153035439765390358
0.394000000000000239,6.078947394479368604
0.395000000000000240,6.005904859419239017
0.396000000000000241,5.933894584472312772
0.397000000000000242,5.862903378222539708
0.398000000000000242,5.792918111660607217
0.399000000000000243,5.723925721768854835
0.400000000000000244,5.655913214980099468
0.401000000000000245,5.588867670509837460
0.402000000000000246,5.522776243561734688
0.403000000000000247,5.457626168406309652
0.404000000000000248,5.393404761333187025
0.405000000000000249,5.330099423477447473
0.406000000000000250,5.267697643520879325
0.407000000000000250,5.206187000269002496
0.408000000000000251,5.145555165105074380
0.409000000000000252,5.085789904322377986
0.410000000000000253,5.026879081336220523
0.411000000000000254,4.968810658777305100
0.412000000000000255,4.911572700468179953
0.413000000000000256,4.855153373284566420
0.414000000000000257,4.799540948903643134
0.415000000000000258,4.744723805441147135
0.416000000000000258,4.690690428979615412
0.417000000000000259,4.637429414989790999
0.418000000000000260,4.584929469647589961
0.419000000000000261,4.533179411048815055
0.420000000000000262,4.482168170324118961
0.421000000000000263,4.431884792656449967
0.422000000000000264,4.382318438203593125
0.423000000000000265,4.333458382928103703
0.424000000000000266,4.285294019337165139
0.425000000000000266,4.237814857134905466
0.426000000000000267,4.191010523789564957
0.427000000000000268,4.144870765018076497
0.428000000000000269,4.099385445190563360
0.429000000000000270,4.054544547657135567
0.430000000000000271,4.010338174999606764
0.431000000000000272,3.966756549210431526
0.432000000000000273,3.923790011801441047
0.433000000000000274,3.881429023844691351
0.434000000000000274,3.839664165947858088
0.435000000000000275,3.798486138166563109
0.436000000000000276,3.757885759855914110
0.437000000000000277,3.717853969463607910
0.438000000000000278,3.678381824266865774
0.439000000000000279,3.639460500055380354
0.440000000000000280,3.601081290762540910
0.441000000000000281,3.563235608047092828
0.442000000000000282,3.525914980827242751
0.443000000000000282,3.489111054769477249
0.444000000000000283,3.452815591733929157
0.445000000000000284,3.417020469178452480
0.446000000000000285,3.381717679523273290
0.447000000000000286,3.346899329478094209
0.448000000000000287,3.312557639333648218
0.449000000000000288,3.278684942219348475
0.450000000000000289,3.245273683328959269
0.451000000000000290,3.212316419115954780
0.452000000000000290,3.179805816460198109
0.453000000000000291,3.147734651807719164
0.454000000000000292,3.116095810285052004
0.455000000000000293,3.084882284789757900
0.456000000000000294,3.054087175058644021
0.457000000000000295,3.023703686715086381
0.458000000000000296,2.993725130296962522
0.459000000000000297,2.964144920266496896
0.460000000000000298,2.934956574003394714
0.461000000000000298,2.906153710782563682
0.462000000000000299,2.877730050737630663
0.463000000000000300,2.849679413811545992
0.464000000000000301,2.821995718695345268
0.465000000000000302,2.794672981756298302
0.466000000000000303,2.767705315956475509
0.467000000000000304,2.741086929762790003
0.468000000000000305,2.714812126049584329
0.469000000000000306,2.688875300994680195
0.470000000000000306,2.663270942969842459
0.471000000000000307,2.637993631426629015
0.472000000000000308,2.613038035778426860
0.473000000000000309,2.588398914279522955
0.474000000000000310,2.564071112902077232
0.475000000000000311,2.540049564211686484
0.476000000000000312,2.516329286242362073
0.477000000000000313,2.492905381371536944
0.478000000000000314,2.469773035195911515
0.479000000000000314,2.446927515408644727
0.480000000000000315,2.424364170678638963
0.481000000000000316,2.402078429532415349
0.482000000000000317,2.380065799239228674
0.483000000000000318,2.358321864699884252
0.484000000000000319,2.336842287339837121
0.485000000000000320,2.315622804007039459
0.486000000000000321,2.294659225874963404
0.487000000000000322,2.273947437351300671
0.488000000000000322,2.253483394992752409
0.489000000000000323,2.233263126426238809
0.490000000000000324,2.213282729276980554
0.491000000000000325,2.193538370103763846
0.492000000000000326,2.174026283341755406
0.493000000000000327,2.154742770253112560
0.494000000000000328,2.135684197885793001
0.495000000000000329,2.116846998040716077
0.496000000000000330,2.098227666247665990
0.497000000000000330,2.079822760750011934
0.498000000000000331,2.061628901498687050
0.499000000000000332,2.043642769155428862
0.500000000000000333,2.025861104105568078
0.501000000000000334,2.008280705480598449
0.502000000000000335,1.990898430190564117
0.503000000000000336,1.973711191966530665
0.504000000000000337,1.956715960413192290
0.505000000000000338,1.939909760071811373
0.506000000000000338,1.923289669493551513
0.507000000000000339,1.906852820323305497
0.508000000000000340,1.890596396394175205
0.509000000000000341,1.874517632832552128
0.510000000000000342,1.858613815174026573
0.511000000000000343,1.842882278490022729
0.512000000000000344,1.827320406525344110
0.513000000000000345,1.811925630846593194
0.514000000000000346,1.796695430001471250
0.515000000000000346,1.781627328689071366
0.516000000000000347,1.766718896941117833
0.517000000000000348,1.751967749314120137
0.518000000000000349,1.737371544092548792
0.519000000000000350,1.722927982502894695
0.520000000000000351,1.708634807938741673
0.521000000000000352,1.694489805196649046
0.522000000000000353,1.680490799723025175
0.523000000000000353,1.666635656871766624
0.524000000000000354,1.652922281172750640
0.525000000000000355,1.639348615611081028
0.526000000000000356,1.625912640917063667
0.527000000000000357,1.612612374866821074
0.528000000000000358,1.599445871593530244
0.529000000000000359,1.586411220909190067
0.530000000000000360,1.573506547636884800
0.531000000000000361,1.560730010953422120
0.532000000000000361,1.548079803742324456
0.533000000000000362,1.535554151957058355
0.534000000000000363,1.523151313994466793
0.535000000000000364,1.510869580078239904
0.536000000000000365,1.498707271652451878
0.537000000000000366,1.486662740784956416
0.538000000000000367,1.474734369580676274
0.539000000000000368,1.462920569604544196
0.540000000000000369,1.451219781314165402
0.541000000000000369,1.439630473501942287
0.542000000000000370,1.428151142746729274
0.543000000000000371,1.416780312874758696
0.544000000000000372,1.405516534429853914
0.545000000000000373,1.394358384152770025
0.546000000000000374,1.383304464469564676
0.547000000000000375,1.372353402988931936
0.548000000000000376,1.361503852008322912
0.549000000000000377,1.350754488028837574
0.550000000000000377,1.340104011278675289
0.551000000000000378,1.329551145245156052
0.552000000000000379,1.319094636215088601
0.553000000000000380,1.308733252823467197
0.554000000000000381,1.298465785610345646
0.555000000000000382,1.288291046585758659
0.556000000000000383,1.278207868802672120
0.557000000000000384,1.268215105937704035
0.558000000000000385,1.258311631879694081
0.559000000000000385,1.248496340325836895
0.560000000000000386,1.238768144385383296
0.561000000000000387,1.229125976190755143
0.562000000000000388,1.219568786516002534
0.563000000000000389,1.210095544402420842
0.564000000000000390,1.200705236791325792
0.565000000000000391,1.191396868163778766
0.566000000000000392,1.182169460187245225
0.567000000000000393,1.173022051368986407
0.568000000000000393,1.163953696716188535
0.569000000000000394,1.154963467402615906
0.570000000000000395,1.146050450441767676
0.571000000000000396,1.137213748366409982
0.572000000000000397,1.128452478914330426
0.573000000000000398,1.119765774720317353
0.574000000000000399,1.111152783014160317
0.575000000000000400,1.102612665324635088
0.576000000000000401,1.094144597189377954
0.577000000000000401,1.085747767870470337
0.578000000000000402,1.077421380075753277
0.579000000000000403,1.069164649685714563
0.580000000000000404,1.060976805485806196
0.581000000000000405,1.052857088904224359
0.582000000000000406,1.044804753754920990
0.583000000000000407,1.036819065985860711
0.584000000000000408,1.028899303432371459
0.585000000000000409,1.021044755575517327
0.586000000000000409,1.013254723305427651
0.587000000000000410,1.005528518689421613
0.588000000000000411,0.997865464744975172
0.589000000000000412,0.990264895217255692
0.590000000000000413,0.982726154361348803
0.591000000000000414,0.975248596728923056
0.592000000000000415,0.967831586959340129
0.593000000000000416,0.960474499575114771
0.594000000000000417,0.953176718781633903
0.595000000000000417,0.945937638271028725
0.596000000000000418,0.938756661030209827
0.597000000000000419,0.931633199152864910
0.598000000000000420,0.924566673655468518
0.599000000000000421,0.917556514297118708
0.600000000000000422,0.910602159403198663
0.601000000000000423,0.903703055692794743
0.602000000000000424,0.896858658109721651
0.603000000000000425,0.890068429657157822
0.604000000000000425,0.883331841235830972
0.605000000000000426,0.876648371485615030
0.606000000000000427,0.870017506630498483
0.607000000000000428,0.863438740326951781
0.608000000000000429,0.856911573515418690
0.609000000000000430,0.850435514275130755
0.610000000000000431,0.844010077681938808
0.611000000000000432,0.837634785669263637
0.612000000000000433,0.831309166892044482
0.613000000000000433,0.825032756593599204
0.614000000000000434,0.818805096475393790
0.615000000000000435,0.812625734569623837
0.616000000000000436,0.806494225114587793
0.617000000000000437,0.800410128432710644
0.618000000000000438,0.794373010811282421
