# hydroxyapatite-010-ph10_THRSCA-AC
# h[nm],U(h)[kJ/mol]
0.149999999999999994,68.248311699125665086
0.150999999999999995,66.890831657248355668
0.151999999999999996,65.738643196329647367
0.152999999999999997,64.666678779030803526
0.153999999999999998,63.616145715956335494
0.154999999999999999,62.565154289900839046
0.156000000000000000,61.510519817788711805
0.157000000000000001,60.456997112365755243
0.158000000000000002,59.411330104124111529
0.159000000000000002,58.379316835839730970
0.160000000000000003,57.364676934732187874
0.161000000000000004,56.368924200464945784
0.162000000000000005,55.391736539740790590
0.163000000000000006,54.431513600427571475
0.164000000000000007,53.485944995077034037
0.165000000000000008,52.552498186794494472
0.166000000000000009,51.628789070198102706
0.167000000000000010,50.712830277183229555
0.168000000000000010,49.803169625754591721
0.169000000000000011,48.898939105003044858
0.170000000000000012,47.999836957495830347
0.171000000000000013,47.106064235575573207
0.172000000000000014,46.218234296693189833
0.173000000000000015,45.337270106601884834
0.174000000000000016,44.464300573529250471
0.175000000000000017,43.600563800550133919
0.176000000000000018,42.747322293569894214
0.177000000000000018,41.905792857940511453
0.178000000000000019,41.077092146187581534
0.179000000000000020,40.262197531423787211
0.180000000000000021,39.461922105765786739
0.181000000000000022,38.676902064934303382
0.182000000000000023,37.907594466261357979
0.183000000000000024,37.154283271683269163
0.184000000000000025,36.417091653290626141
0.185000000000000026,35.695998699749750926
0.186000000000000026,34.990858879953684379
0.187000000000000027,34.301422866717842908
0.188000000000000028,33.627358576751227304
0.189000000000000029,32.968271528287985461
0.190000000000000030,32.323723844501657254
0.191000000000000031,31.693251432989853811
0.192000000000000032,31.076379046120081284
0.193000000000000033,30.472633073043205343
0.194000000000000034,29.881552032499001825
0.195000000000000034,29.302694828026631058
0.196000000000000035,28.735646896389518190
0.197000000000000036,28.180024428813378989
0.198000000000000037,27.635476876016848991
0.199000000000000038,27.101687964930459174
0.200000000000000039,26.578375460225650784
0.201000000000000040,26.065289899842731813
0.202000000000000041,25.562212522866843756
0.203000000000000042,25.068952592306423810
0.204000000000000042,24.585344296235426498
0.205000000000000043,24.111243389744476673
0.206000000000000044,23.646523718317780549
0.207000000000000045,23.191073741490562554
0.208000000000000046,22.744793154615738473
0.209000000000000047,22.307589686767478554
0.210000000000000048,21.879376134574105350
0.211000000000000049,21.460067675314338231
0.212000000000000050,21.049579488040372155
0.213000000000000050,20.647824698837354163
0.214000000000000051,20.254712655557465695
0.215000000000000052,19.870147528395470715
0.216000000000000053,19.494027225388414593
0.217000000000000054,19.126242606184653994
0.218000000000000055,18.766676973088344482
0.219000000000000056,18.415205815286469715
0.220000000000000057,18.071696780148506889
0.221000000000000058,17.736009844404136970
0.222000000000000058,17.407997657701695715
0.223000000000000059,17.087506031397801110
0.224000000000000060,16.774374546299121391
0.225000000000000061,16.468437254359038491
0.226000000000000062,16.169523450923520613
0.227000000000000063,15.877458495935110605
0.228000000000000064,15.592064664462819579
0.229000000000000065,15.313162008965218064
0.230000000000000066,15.040569217759067300
0.231000000000000066,14.774104456210007896
0.232000000000000067,14.513586179150445687
0.233000000000000068,14.258833904932117775
0.234000000000000069,14.009668943317041823
0.235000000000000070,13.765915071082805099
0.236000000000000071,13.527399150757901225
0.237000000000000072,13.293951689301930941
0.238000000000000073,13.065407334802827677
0.239000000000000073,12.841605310379119231
0.240000000000000074,12.622389785451847644
0.241000000000000075,12.407610185394412738
0.242000000000000076,12.197121441284949128
0.243000000000000077,11.990784182082714793
0.244000000000000078,11.788464872035699926
0.245000000000000079,11.590035896510624269
0.246000000000000080,11.395375599727062266
0.247000000000000081,11.204368278084162469
0.248000000000000081,11.016904132900407376
0.249000000000000082,10.832879186452831988
0.250000000000000111,10.652195165209963790
0.251000000000000112,10.474759354111556675
0.252000000000000113,10.300484425663814392
0.253000000000000114,10.129288247500165099
0.254000000000000115,9.961093671909102554
0.255000000000000115,9.795828310659739913
0.256000000000000116,9.633424298266445973
0.257000000000000117,9.473818046632009882
0.258000000000000118,9.316949993797823737
0.259000000000000119,9.162764349313519574
0.260000000000000120,9.011208838520376574
0.261000000000000121,8.862234447825963812
0.262000000000000122,8.715795172833386673
0.263000000000000123,8.571847770980323133
0.264000000000000123,8.430351520141007526
0.265000000000000124,8.291267984451399897
0.266000000000000125,8.154560788433391494
0.267000000000000126,8.020195400320243806
0.268000000000000127,7.888138925321994677
0.269000000000000128,7.758359909417494649
0.270000000000000129,7.630828154118778350
0.271000000000000130,7.505514542523647137
0.272000000000000131,7.382390876853963668
0.273000000000000131,7.261429727569610471
0.274000000000000132,7.142604294051281499
0.275000000000000133,7.025888276758800899
0.276000000000000134,6.911255760695124373
0.277000000000000135,6.798681109939233025
0.278000000000000136,6.688138872952859693
0.279000000000000137,6.579603698316432769
0.280000000000000138,6.473050260507834608
0.281000000000000139,6.368453195303085401
0.282000000000000139,6.265787044350541457
0.283000000000000140,6.165026208448638023
0.284000000000000141,6.066144909041789823
0.285000000000000142,5.969117157438397214
0.286000000000000143,5.873916731249283707
0.287000000000000144,5.780517157543364704
0.288000000000000145,5.688891702219452284
0.289000000000000146,5.599013365098906903
0.290000000000000147,5.510854880252074040
0.291000000000000147,5.424388721082653575
0.292000000000000148,5.339587109707200518
0.293000000000000149,5.256422030182064553
0.294000000000000150,5.174865245146575532
0.295000000000000151,5.094888315469063400
0.296000000000000152,5.016462622501051349
0.297000000000000153,4.939559392564519591
0.298000000000000154,4.864149723317055418
0.299000000000000155,4.790204611660124456
0.300000000000000155,4.717694982876145637
0.301000000000000156,4.646591720700625316
0.302000000000000157,4.576865698055803122
0.303000000000000158,4.508487808192517932
0.304000000000000159,4.441428996006566265
0.305000000000000160,4.375660289315224105
0.306000000000000161,4.311152829898167838
0.307000000000000162,4.247877904125263449
0.308000000000000163,4.185806973011120036
0.309000000000000163,4.124911701553037879
0.310000000000000164,4.065163987225034248
0.311000000000000165,4.006535987515924546
0.312000000000000166,3.949000146413914614
0.313000000000000167,3.892529219753852576
0.314000000000000168,3.837096299356324014
0.315000000000000169,3.782674835899803689
0.316000000000000170,3.729238660478511491
0.317000000000000171,3.676762004809237538
0.318000000000000171,3.625219520060229961
0.319000000000000172,3.574586294284340937
0.320000000000000173,3.524837868447061595
0.321000000000000174,3.475950251047815520
0.322000000000000175,3.427899931339818629
0.323000000000000176,3.380663891160348378
0.324000000000000177,3.334219615388960278
0.325000000000000178,3.288545101056439712
0.326000000000000179,3.243618865131867146
0.327000000000000179,3.199419951019375041
0.328000000000000180,3.155927933799683949
0.329000000000000181,3.113122924254689838
0.330000000000000182,3.070985571716116524
0.331000000000000183,3.029497065781384002
0.332000000000000184,2.988639136941865448
0.333000000000000185,2.948394056170174249
0.334000000000000186,2.908744633514265043
0.335000000000000187,2.869674215747065826
0.336000000000000187,2.831166683120884819
0.337000000000000188,2.793206445276230188
0.338000000000000189,2.755778436354655803
0.339000000000000190,2.718868109365140562
0.340000000000000191,2.682461429853250312
0.341000000000000192,2.646544868921626659
0.342000000000000193,2.611105395649820693
0.343000000000000194,2.576130468960529551
0.344000000000000195,2.541608028978476597
0.345000000000000195,2.507526487926896142
0.346000000000000196,2.473874720605615529
0.347000000000000197,2.440642054493326718
0.348000000000000198,2.407818259515365433
0.349000000000000199,2.375393537516926390
0.350000000000000200,2.343358511480166495
0.351000000000000201,2.311704214522206424
0.352000000000000202,2.280422078709529732
0.353000000000000203,2.249503923722705245
0.354000000000000203,2.218941945403867244
0.355000000000000204,2.188728704217840271
0.356000000000000205,2.158857113656209581
0.357000000000000206,2.129320428612090144
0.358000000000000207,2.100112233751941559
0.359000000000000208,2.071226431909108712
0.360000000000000209,2.042657232522345989
0.361000000000000210,2.014399140141214239
0.362000000000000210,1.986446943018623346
0.363000000000000211,1.958795701809581402
0.364000000000000212,1.931440738393726209
0.365000000000000213,1.904377624837928495
0.366000000000000214,1.877602172513996637
0.367000000000000215,1.851110421385238514
0.368000000000000216,1.824898629474382306
0.369000000000000217,1.798963262524353457
0.370000000000000218,1.773300983862074132
0.371000000000000218,1.747908644474584161
0.372000000000000219,1.722783273305602325
0.373000000000000220,1.697922067779722655
0.374000000000000221,1.673322384560526288
0.375000000000000222,1.648981730547966817
0.376000000000000223,1.624897754119476456
0.377000000000000224,1.601068236618564455
0.378000000000000225,1.577491084093771700
0.379000000000000226,1.554164319290254337
0.380000000000000226,1.531086073895426836
0.381000000000000227,1.508254581039644382
0.382000000000000228,1.485668168052105553
0.383000000000000229,1.463325249471749245
0.384000000000000230,1.441224320312296747
0.385000000000000231,1.419363949580105144
0.386000000000000232,1.397742774043107428
0.387000000000000233,1.376359492248575567
0.388000000000000234,1.355212858787194774
0.389000000000000234,1.334301678800405844
0.390000000000000235,1.313624802727814123
0.391000000000000236,1.293181121291022917
0.392000000000000237,1.272969560710060177
0.393000000000000238,1.252989078148265767
0.394000000000000239,1.233238657381338310
0.395000000000000240,1.213717304685973719
0.396000000000000241,1.194424044943408703
0.397000000000000242,1.175357917953012477
0.398000000000000242,1.156517974950894034
0.399000000000000243,1.137903275328471464
0.400000000000000244,1.119512883545747295
0.401000000000000245,1.101345866234009874
0.402000000000000246,1.083401289482662122
0.403000000000000247,1.065678216304721371
0.404000000000000248,1.048175704275607689
0.405000000000000249,1.030892803339756192
0.406000000000000250,1.013828553779632546
0.407000000000000250,0.996981984341673289
0.408000000000000251,0.980352110513763031
0.409000000000000252,0.963937932948828013
0.410000000000000253,0.947738436029202602
0.411000000000000254,0.931752586566443997
0.412000000000000255,0.915979332631365550
0.413000000000000256,0.900417602509040238
0.414000000000000257,0.885066303773719754
0.415000000000000258,0.869924322478532908
0.416000000000000258,0.854990522455075785
0.417000000000000259,0.840263744717933747
0.418000000000000260,0.825742806969389287
0.419000000000000261,0.811426503199576876
0.420000000000000262,0.797313603377514668
0.421000000000000263,0.783402853228448159
0.422000000000000264,0.769692974093186821
0.423000000000000265,0.756182662865058974
0.424000000000000266,0.742870592000323460
0.425000000000000266,0.729755409597975246
0.426000000000000267,0.716835739544938066
0.427000000000000268,0.704110181722801487
0.428000000000000269,0.691577312272356859
0.429000000000000270,0.679235683912273513
0.430000000000000271,0.667083826308411565
0.431000000000000272,0.655120246490329627
0.432000000000000273,0.643343429311716397
0.433000000000000274,0.631751837951516126
0.434000000000000274,0.620343914452686884
0.435000000000000275,0.609118080295613762
0.436000000000000276,0.598072737003298549
0.437000000000000277,0.587206266775572194
0.438000000000000278,0.576517033149682390
0.439000000000000279,0.566003381684676343
0.440000000000000280,0.555663640667158121
0.441000000000000281,0.545496121836062775
0.442000000000000282,0.535499121124163202
0.443000000000000282,0.525670919414211957
0.444000000000000283,0.516009783307601388
0.445000000000000284,0.506513965903606200
0.446000000000000285,0.497181707587335264
0.447000000000000286,0.488011236824553385
0.448000000000000287,0.479000770961751310
0.449000000000000288,0.470148517029766011
0.450000000000000289,0.461452672549465592
0.451000000000000290,0.452911426338028833
0.452000000000000290,0.444522959314418986
0.453000000000000291,0.436285445302790176
0.454000000000000292,0.428197051832552966
0.455000000000000293,0.420255940933971117
0.456000000000000294,0.412460269928185130
0.457000000000000295,0.404808192210637130
0.458000000000000296,0.397297858026949835
0.459000000000000297,0.389927415240351571
0.460000000000000298,0.382695010089813548
0.461000000000000298,0.375598787938132228
0.462000000000000299,0.368636894009211957
0.463000000000000300,0.361807474113911343
0.464000000000000301,0.355108675363806026
0.465000000000000302,0.348538646872322944
0.466000000000000303,0.342095540442727719
0.467000000000000304,0.335777511242478011
0.468000000000000305,0.329582718463536650
0.469000000000000306,0.323509325968255879
0.470000000000000306,0.317555502920461197
0.471000000000000307,0.311719424401487033
0.472000000000000308,0.305999272010842760
0.473000000000000309,0.300393234451302393
0.474000000000000310,0.294899508098230290
0.475000000000000311,0.289516297552950941
0.476000000000000312,0.284241816180058560
0.477000000000000313,0.279074286628531121
0.478000000000000314,0.274011941336613662
0.479000000000000314,0.269053023020370152
0.480000000000000315,0.264195785145926787
0.481000000000000316,0.259438492385373365
0.482000000000000317,0.254779421056361255
0.483000000000000318,0.250216859545432935
0.484000000000000319,0.245749108715151626
0.485000000000000320,0.241374482295111381
0.486000000000000321,0.237091307256920431
0.487000000000000322,0.232897924173280924
0.488000000000000322,0.228792687561310604
0.489000000000000323,0.224773966210216836
0.490000000000000324,0.220840143493518631
0.491000000000000325,0.216989617665971413
0.492000000000000326,0.213220802145389771
0.493000000000000327,0.209532125779544304
0.494000000000000328,0.205922033098369983
0.495000000000000329,0.202388984551660045
0.496000000000000330,0.198931456732518330
0.497000000000000330,0.195547942586736190
0.498000000000000331,0.192236951608414225
0.499000000000000332,0.188997010021991901
0.500000000000000333,0.185826660950979605
0.501000000000000334,0.182724464573658818
0.502000000000000335,0.179688998265963296
0.503000000000000336,0.176718856731851781
0.504000000000000337,0.173812652121408562
0.505000000000000338,0.170969014136957531
0.506000000000000338,0.168186590127454239
0.507000000000000339,0.165464045171425267
0.508000000000000340,0.162800062148754199
0.509000000000000341,0.160193341801543265
0.510000000000000342,0.157642602784387298
0.511000000000000343,0.155146581704278363
0.512000000000000344,0.152704033150466628
0.513000000000000345,0.150313729714523864
0.514000000000000346,0.147974462000883322
0.515000000000000346,0.145685038628160790
0.516000000000000347,0.143444286221498907
0.517000000000000348,0.141251049396209749
0.518000000000000349,0.139104190733011834
0.519000000000000350,0.137002590745086278
0.520000000000000351,0.134945147837266771
0.521000000000000352,0.132930778257568327
0.522000000000000353,0.130958416041381254
0.523000000000000353,0.129027012948521203
0.524000000000000354,0.127135538393438524
0.525000000000000355,0.125282979368808695
0.526000000000000356,0.123468340362775944
0.527000000000000357,0.121690643270059073
0.528000000000000358,0.119948927297198610
0.529000000000000359,0.118242248862149443
0.530000000000000360,0.116569681488481749
0.531000000000000361,0.114930315694385304
0.532000000000000361,0.113323258876734737
0.533000000000000362,0.111747635190412115
0.534000000000000363,0.110202585423125596
0.535000000000000364,0.108687266865909418
0.536000000000000365,0.107200853179547154
0.537000000000000366,0.105742534257087906
0.538000000000000367,0.104311516082699215
0.539000000000000368,0.102907020586990999
0.540000000000000369,0.101528285499078524
0.541000000000000369,0.100174564195492394
0.542000000000000370,0.098845125546194360
0.543000000000000371,0.097539253757817843
0.544000000000000372,0.096256248214343088
0.545000000000000373,0.094995423315364286
0.546000000000000374,0.093756108312113451
0.547000000000000375,0.092537647141422125
0.548000000000000376,0.091339398257742038
0.549000000000000377,0.090160734463421960
0.550000000000000377,0.089001042737351252
0.551000000000000378,0.087859724062151562
0.552000000000000379,0.086736193250022159
0.553000000000000380,0.085629878767409462
0.554000000000000381,0.084540222558616332
0.555000000000000382,0.083466679868468924
0.556000000000000383,0.082408719064214500
0.557000000000000384,0.081365821456698045
0.558000000000000385,0.080337481121016602
0.559000000000000385,0.079323204716700069
0.560000000000000386,0.078322511307566817
0.561000000000000387,0.077334932181346100
0.562000000000000388,0.076360010669182674
0.563000000000000389,0.075397301965099972
0.564000000000000390,0.074446372945551273
0.565000000000000391,0.073506801989122877
0.566000000000000392,0.072578178796501233
0.567000000000000393,0.071660104210762854
0.568000000000000393,0.070752190038112173
0.569000000000000394,0.069854058869102786
0.570000000000000395,0.068965343900445841
0.571000000000000396,0.068085688757483304
0.572000000000000397,0.067214747317364293
0.573000000000000398,0.066352183533042175
0.574000000000000399,0.065497671258105045
0.575000000000000400,0.064650894072548398
0.576000000000000401,0.063811545109522222
0.577000000000000401,0.062979326883105327
0.578000000000000402,0.062153951117188203
0.579000000000000403,0.061335138575498861
0.580000000000000404,0.060522618892806301
0.581000000000000405,0.059716130407389101
0.582000000000000406,0.058915419994766974
0.583000000000000407,0.058120242902779042
0.584000000000000408,0.057330362588015424
0.585000000000000409,0.056545550553662879
0.586000000000000409,0.055765586188794722
0.587000000000000410,0.054990256609119159
0.588000000000000411,0.054219356499261684
0.589000000000000412,0.053452687956553849
0.590000000000000413,0.052690060336408842
0.591000000000000414,0.051931290099278347
0.592000000000000415,0.051176200659218997
0.593000000000000416,0.050424622234103024
0.594000000000000417,0.049676391697487943
0.595000000000000417,0.048931352432142014
0.596000000000000418,0.048189354185294554
0.597000000000000419,0.047450252925562306
0.598000000000000420,0.046713910701628267
0.599000000000000421,0.045980195502632618
0.600000000000000422,0.045248981120322787
0.601000000000000423,0.044520147012966339
0.602000000000000424,0.043793578171015944
0.603000000000000425,0.043069164984552086
0.604000000000000425,0.042346803112517060
0.605000000000000426,0.041626393353720162
0.606000000000000427,0.040907841519628743
0.607000000000000428,0.040191058308977026
0.608000000000000429,0.039475959184122146
0.609000000000000430,0.038762464249247786
0.610000000000000431,0.038050498130312894
0.611000000000000432,0.037339989856822721
0.612000000000000433,0.036630872745382528
0.613000000000000433,0.035923084285027926
0.614000000000000434,0.035216566024350235
0.615000000000000435,0.034511263460394348
0.616000000000000436,0.033807125929336698
0.617000000000000437,0.033104106498911226
0.618000000000000438,0.032402161862612425
0.619000000000000439,0.031701252235646571
0.620000000000000440,0.031001341252619198
0.621000000000000441,0.030302395866961818
