# hydroxyapatite-010-ph10_PHESCA-JS
# h[nm],U(h)[kJ/mol]
0.149999999999999994,129.629921661563514590
0.150999999999999995,127.798739032386293957
0.151999999999999996,125.770910854432827364
0.152999999999999997,123.758635930873126085
0.153999999999999998,121.833048188323530781
0.154999999999999999,120.000987915504126136
0.156000000000000000,118.245798336876262624
0.157000000000000001,116.547108350378380237
0.158000000000000002,114.888905604777477265
0.159000000000000002,113.261530993913495990
0.160000000000000003,111.660880506159472247
0.161000000000000004,110.086634505441878673
0.162000000000000005,108.540443153510253183
0.163000000000000006,107.024474589494005272
0.164000000000000007,105.540442910065323190
0.165000000000000008,104.089085952695882042
0.166000000000000009,102.670000064989309863
0.167000000000000010,101.281723387857709895
0.168000000000000010,99.921967726901641527
0.169000000000000011,98.587918087193529004
0.170000000000000012,97.276540572360232773
0.171000000000000013,95.984859484192412538
0.172000000000000014,94.710181248452187219
0.173000000000000015,93.450255695611147644
0.174000000000000016,92.203374415436684330
0.175000000000000017,90.968411897076833839
0.176000000000000018,89.744818597108661606
0.177000000000000018,88.532576577858364431
0.178000000000000019,87.332128489843185548
0.179000000000000020,86.144289903513211470
0.180000000000000021,84.970153695484214040
0.181000000000000022,83.810993639967861668
0.182000000000000023,82.668172744536548180
0.183000000000000024,81.543060333113288607
0.184000000000000025,80.436960499616262155
0.185000000000000026,79.351053376128717787
0.186000000000000026,78.286349695267489324
0.187000000000000027,77.243658374057105220
0.188000000000000028,76.223566290379551447
0.189000000000000029,75.226429040232204670
0.190000000000000030,74.252371228606250497
0.191000000000000031,73.301294732203672311
0.192000000000000032,72.372893353002822892
0.193000000000000033,71.466672334660245269
0.194000000000000034,70.581971318532040982
0.195000000000000034,69.717989455393734488
0.196000000000000035,68.873811548461972620
0.197000000000000036,68.048434271665513506
0.198000000000000037,67.240791675453152720
0.199000000000000038,66.449779354217980654
0.200000000000000039,65.674276800042406421
0.201000000000000040,64.913167603914118331
0.202000000000000041,64.165357286122571168
0.203000000000000042,63.429788641523565218
0.204000000000000042,62.705454572848907446
0.205000000000000043,61.991408456901027080
0.206000000000000044,61.286772145371401166
0.207000000000000045,60.590741745476236702
0.208000000000000046,59.902591357080169132
0.209000000000000047,59.221674963999795693
0.210000000000000048,58.547426689255473775
0.211000000000000049,57.879359628626978918
0.212000000000000050,57.217063475322731847
0.213000000000000050,56.560201142144286734
0.214000000000000051,55.908504577330269569
0.215000000000000052,55.261769957286603017
0.216000000000000053,54.619852424507925548
0.217000000000000054,53.982660522893560540
0.218000000000000055,53.350150465973058544
0.219000000000000056,52.722320356779334816
0.220000000000000057,52.099204461639985198
0.221000000000000058,51.480867624316871911
0.222000000000000058,50.867399891939328427
0.223000000000000059,50.258911410220292737
0.224000000000000060,49.655527632625513945
0.225000000000000061,49.057384876549768649
0.226000000000000062,48.464626249163721639
0.227000000000000063,47.877397956424601944
0.228000000000000064,47.295846000762480799
0.229000000000000065,46.720113266108263872
0.230000000000000066,46.150336983158226190
0.231000000000000066,45.586646562994893372
0.232000000000000067,45.029161783327900537
0.233000000000000068,44.477991308594354791
0.234000000000000069,43.933231522883332332
0.235000000000000070,43.394965653039299980
0.236000000000000071,42.863263158272239650
0.237000000000000072,42.338179362083295132
0.238000000000000073,41.819755302226987226
0.239000000000000073,41.308017774712567416
0.240000000000000074,40.802979548427728673
0.241000000000000075,40.304639727799418836
0.242000000000000076,39.812984241930237772
0.243000000000000077,39.327986439824407228
0.244000000000000078,38.849607772600919020
0.245000000000000079,38.377798544949008885
0.246000000000000080,37.912498719482719878
0.247000000000000081,37.453638759068127229
0.248000000000000081,37.001140493609838700
0.249000000000000082,36.554917999171358645
0.250000000000000111,36.114878478653800187
0.251000000000000112,35.680923134555214915
0.252000000000000113,35.252948025570468360
0.253000000000000114,34.830844899961995509
0.254000000000000115,34.414501999727917791
0.255000000000000115,34.003804830616324750
0.256000000000000116,33.598636893976632223
0.257000000000000117,33.198880377305371780
0.258000000000000118,32.804416801130940939
0.259000000000000119,32.415127620594390123
0.260000000000000120,32.030894780721510529
0.261000000000000121,31.651601224949928337
0.262000000000000122,31.277131356975058196
0.263000000000000123,30.907371456416381506
0.264000000000000123,30.542210049182521914
0.265000000000000124,30.181538233735427212
0.266000000000000125,29.825249964723781204
0.267000000000000126,29.473242295678698355
0.268000000000000127,29.125415582643050527
0.269000000000000128,28.781673650746011361
0.270000000000000129,28.441923925837585330
0.271000000000000130,28.106077533369706600
0.272000000000000131,27.774049366753580159
0.273000000000000131,27.445758127440853968
0.274000000000000132,27.121126338971571101
0.275000000000000133,26.800080337208520120
0.276000000000000134,26.482550238937285769
0.277000000000000135,26.168469890957009483
0.278000000000000136,25.857776801721126247
0.279000000000000137,25.550412057510918373
0.280000000000000138,25.246320225042261143
0.281000000000000139,24.945449242315305582
0.282000000000000139,24.647750299423471176
0.283000000000000140,24.353177710940478562
0.284000000000000141,24.061688781405155879
0.285000000000000142,23.773243665323747109
0.286000000000000143,23.487805223009349476
0.287000000000000144,23.205338873479526285
0.288000000000000145,22.925812445535132866
0.289000000000000146,22.649196028049111362
0.290000000000000147,22.375461820400762036
0.291000000000000147,22.104583983902266198
0.292000000000000148,21.836538494978046998
0.293000000000000149,21.571303000775838399
0.294000000000000150,21.308856677809650648
0.295000000000000151,21.049180094161137333
0.296000000000000152,20.792255075695464939
0.297000000000000153,20.538064576682408813
0.298000000000000154,20.286592555151237605
0.299000000000000155,20.037823853251005346
0.300000000000000155,19.791744082833940155
0.301000000000000156,19.548339516430935703
0.302000000000000157,19.307596983741785124
0.303000000000000158,19.069503773722079387
0.304000000000000159,18.834047542309928502
0.305000000000000160,18.601216225801568527
0.306000000000000161,18.370997959853532677
0.307000000000000162,18.143381004061218675
0.308000000000000163,17.918353672038669799
0.309000000000000163,17.695904266902381607
0.310000000000000164,17.476021022042385056
0.311000000000000165,17.258692047047247797
0.312000000000000166,17.043905278634881029
0.313000000000000167,16.831648436428956472
0.314000000000000168,16.621908983410410343
0.315000000000000169,16.414674090864984635
0.316000000000000170,16.209930607641631184
0.317000000000000171,16.007665033530919629
0.318000000000000171,15.807863496569762418
0.319000000000000172,15.610511734075904755
0.320000000000000173,15.415595077215181519
0.321000000000000174,15.223098438904344221
0.322000000000000175,15.033006304853353541
0.323000000000000176,14.845302727553113087
0.324000000000000177,14.659971323017291667
0.325000000000000178,14.476995270090284862
0.326000000000000179,14.296357312137402573
0.327000000000000179,14.118039760937890037
0.328000000000000180,13.942024502606390257
0.329000000000000181,13.768293005373802629
0.330000000000000182,13.596826329064152006
0.331000000000000183,13.427605136109864503
0.332000000000000184,13.260609703954159500
0.333000000000000185,13.095819938695408169
0.334000000000000186,12.933215389834586517
0.335000000000000187,12.772775265993454141
0.336000000000000187,12.614478451477436849
0.337000000000000188,12.458303523563808213
0.338000000000000189,12.304228770401802961
0.339000000000000190,12.152232209417899611
0.340000000000000191,12.002291606125613299
0.341000000000000192,11.854384493245305521
0.342000000000000193,11.708488190045414967
0.343000000000000194,11.564579821822352557
0.344000000000000195,11.422636339442277631
0.345000000000000195,11.282634538872926555
0.346000000000000196,11.144551080639645946
0.347000000000000197,11.008362509144452801
0.348000000000000198,10.874045271792166290
0.349000000000000199,10.741575737872384622
0.350000000000000200,10.610930217150615462
0.351000000000000201,10.482084978126314567
0.352000000000000202,10.355016265919733343
0.353000000000000203,10.229700319753488813
0.354000000000000203,10.106113389998558461
0.355000000000000204,9.984231754757988853
0.356000000000000205,9.864031735965061998
0.357000000000000206,9.745489714975771989
0.358000000000000207,9.628582147638644173
0.359000000000000208,9.513285578827716193
0.360000000000000209,9.399576656427093724
0.361000000000000210,9.287432144758195562
0.362000000000000210,9.176828937442948586
0.363000000000000211,9.067744069698530751
0.364000000000000212,8.960154730061159256
0.365000000000000213,8.854038271538419380
0.366000000000000214,8.749372222191279747
0.367000000000000215,8.646134295148589999
0.368000000000000216,8.544302398058274406
0.369000000000000217,8.443854641980854225
0.370000000000000218,8.344769349732050756
0.371000000000000218,8.247025063682496437
0.372000000000000219,8.150600553023334527
0.373000000000000220,8.055474820507621203
0.374000000000000221,7.961627108678106524
0.375000000000000222,7.869036905592831310
0.376000000000000223,7.777683950060259477
0.377000000000000224,7.687548236396667178
0.378000000000000225,7.598610018718625625
0.379000000000000226,7.510849814783957967
0.380000000000000226,7.424248409394768267
0.381000000000000227,7.338786857376578432
0.382000000000000228,7.254446486147598350
0.383000000000000229,7.171208897892458189
0.384000000000000230,7.089055971354764729
0.385000000000000231,7.007969863262833776
0.386000000000000232,6.927933009403159481
0.387000000000000233,6.848928125355810081
0.388000000000000234,6.770938206906230050
0.389000000000000234,6.693946530147582230
0.390000000000000235,6.617936651287678274
0.391000000000000236,6.542892406174456887
0.392000000000000237,6.468797909553676284
0.393000000000000238,6.395637554072340691
0.394000000000000239,6.323396009041151622
0.395000000000000240,6.252058218968945980
0.396000000000000241,6.181609401881931198
0.397000000000000242,6.112035047440160795
0.398000000000000242,6.043320914863392623
0.399000000000000243,5.975453030678304245
0.400000000000000244,5.908417686298508720
0.401000000000000245,5.842201435448652447
0.402000000000000246,5.776791091443621795
0.403000000000000247,5.712173724333231561
0.404000000000000248,5.648336657922853554
0.405000000000000249,5.585267466679783688
0.406000000000000250,5.522953972535011857
0.407000000000000250,5.461384241589565036
0.408000000000000251,5.400546580734399527
0.409000000000000252,5.340429534192418615
0.410000000000000253,5.281021879990808188
0.411000000000000254,5.222312626371701683
0.412000000000000255,5.164291008148714113
0.413000000000000256,5.106946483016610472
0.414000000000000257,5.050268727821153547
0.415000000000000258,4.994247634795661916
0.416000000000000258,4.938873307770757393
0.417000000000000259,4.884136058363248267
0.418000000000000260,4.830026402149982800
0.419000000000000261,4.776535054832059757
0.420000000000000262,4.723652928394700190
0.421000000000000263,4.671371127267581080
0.422000000000000264,4.619680944490399455
0.423000000000000265,4.568573857887971990
0.424000000000000266,4.518041526259059637
0.425000000000000266,4.468075785582840354
0.426000000000000267,4.418668645246639493
0.427000000000000268,4.369812284298400407
0.428000000000000269,4.321499047727112242
0.429000000000000270,4.273721442774160550
0.430000000000000271,4.226472135278457110
0.431000000000000272,4.179743946057864257
0.432000000000000273,4.133529847329413975
0.433000000000000274,4.087822959170472004
0.434000000000000274,4.042616546022896884
0.435000000000000275,3.997904013242123078
0.436000000000000276,3.953678903692806390
0.437000000000000277,3.909934894392601556
0.438000000000000278,3.866665793205518842
0.439000000000000279,3.823865535586057351
0.440000000000000280,3.781528181375249265
0.441000000000000281,3.739647911649648826
0.442000000000000282,3.698219025624036593
0.443000000000000282,3.657235937608691589
0.444000000000000283,3.616693174021757606
0.445000000000000284,3.576585370457309843
0.446000000000000285,3.536907268809488691
0.447000000000000286,3.497653714453021312
0.448000000000000287,3.458819653480412093
0.449000000000000288,3.420400129995867733
0.450000000000000289,3.382390283466091496
0.451000000000000290,3.344785346127882697
0.452000000000000290,3.307580640452444154
0.453000000000000291,3.270771576666296365
0.454000000000000292,3.234353650328491536
0.455000000000000293,3.198322439963916963
0.456000000000000294,3.162673604752312073
0.457000000000000295,3.127402882272579454
0.458000000000000296,3.092506086302019064
0.459000000000000297,3.057979104669926507
0.460000000000000298,3.023817897165058444
0.461000000000000298,2.990018493496388707
0.462000000000000299,2.956576991306540503
0.463000000000000300,2.923489554237285404
0.464000000000000301,2.890752410046382614
0.465000000000000302,2.858361848775128777
0.466000000000000303,2.826314220965846502
0.467000000000000304,2.794605935928564655
0.468000000000000305,2.763233460056190527
0.469000000000000306,2.732193315187296356
0.470000000000000306,2.701482077015783911
0.471000000000000307,2.671096373546606006
0.472000000000000308,2.641032883596714953
0.473000000000000309,2.611288335340367084
0.474000000000000310,2.581859504898019075
0.475000000000000311,2.552743214967873264
0.476000000000000312,2.523936333499310791
0.477000000000000313,2.495435772407247121
0.478000000000000314,2.467238486326662095
0.479000000000000314,2.439341471406340389
0.480000000000000315,2.411741764141033695
0.481000000000000316,2.384436440241132438
0.482000000000000317,2.357422613539029044
0.483000000000000318,2.330697434931274792
0.484000000000000319,2.304258091355708693
0.485000000000000320,2.278101804802724395
0.486000000000000321,2.252225831359770503
0.487000000000000322,2.226627460288321370
0.488000000000000322,2.201304013132475035
0.489000000000000323,2.176252842858313663
0.490000000000000324,2.151471333023274646
0.491000000000000325,2.126956896974712574
0.492000000000000326,2.102706977076844730
0.493000000000000327,2.078719043965310043
0.494000000000000328,2.054990595828596334
0.495000000000000329,2.031519157715518276
0.496000000000000330,2.008302280868087486
0.497000000000000330,1.985337542078909889
0.498000000000000331,1.962622543072544135
0.499000000000000332,1.940154909909975744
0.500000000000000333,1.917932292415553519
0.501000000000000334,1.895952363625757586
0.502000000000000335,1.874212819259006624
0.503000000000000336,1.852711377205971788
0.504000000000000337,1.831445777039631739
0.505000000000000338,1.810413779544530311
0.506000000000000338,1.789613166264548694
0.507000000000000339,1.769041739068601071
0.508000000000000340,1.748697319733693245
0.509000000000000341,1.728577749544675912
0.510000000000000342,1.708680888910239393
0.511000000000000343,1.689004616994458363
0.512000000000000344,1.669546831363476702
0.513000000000000345,1.650305447646701396
0.514000000000000346,1.631278399212015007
0.515000000000000346,1.612463636854532201
0.516000000000000347,1.593859128498372746
0.517000000000000348,1.575462858910968711
0.518000000000000349,1.557272829429467764
0.519000000000000350,1.539287057698726091
0.520000000000000351,1.521503577420534770
0.521000000000000352,1.503920438113506952
0.522000000000000353,1.486535704883383824
0.523000000000000353,1.469347458203171808
0.524000000000000354,1.452353793702856999
0.525000000000000355,1.435552821968212767
0.526000000000000356,1.418942668348400327
0.527000000000000357,1.402521472771933286
0.528000000000000358,1.386287389570703299
0.529000000000000359,1.370238587311677581
0.530000000000000360,1.354373248636011828
0.531000000000000361,1.338689570105157545
0.532000000000000361,1.323185762053726844
0.533000000000000362,1.307860048448784118
0.534000000000000363,1.292710666755294557
0.535000000000000364,1.277735867807379133
0.536000000000000365,1.262933915685218622
0.537000000000000366,1.248303087597216754
0.538000000000000367,1.233841673767273939
0.539000000000000368,1.219547977326833621
0.540000000000000369,1.205420314211542721
0.541000000000000369,1.191457013062212189
0.542000000000000370,1.177656415129970657
0.543000000000000371,1.164016874185251904
0.544000000000000372,1.150536756430543539
0.545000000000000373,1.137214440416605354
0.546000000000000374,1.124048316962011018
0.547000000000000375,1.111036789075822373
0.548000000000000376,1.098178271883202273
0.549000000000000377,1.085471192553825404
0.550000000000000377,1.072913990232859494
0.551000000000000378,1.060505115974467172
0.552000000000000379,1.048243032677547815
0.553000000000000380,1.036126215023679631
0.554000000000000381,1.024153149417077024
0.555000000000000382,1.012322333926396478
0.556000000000000383,1.000632278228358762
0.557000000000000384,0.989081503552932895
0.558000000000000385,0.977668542630106607
0.559000000000000385,0.966391939638007735
0.560000000000000386,0.955250250152336000
0.561000000000000387,0.944242041096990059
0.562000000000000388,0.933365890695800005
0.563000000000000389,0.922620388425220428
0.564000000000000390,0.912004134967971836
0.565000000000000391,0.901515742167488199
0.566000000000000392,0.891153832983121008
0.567000000000000393,0.880917041445979487
0.568000000000000393,0.870804012615404410
0.569000000000000394,0.860813402535933081
0.570000000000000395,0.850943878194732939
0.571000000000000396,0.841194117479439951
0.572000000000000397,0.831562809136301540
0.573000000000000398,0.822048652728633811
0.574000000000000399,0.812650358595476519
0.575000000000000400,0.803366647810436207
0.576000000000000401,0.794196252140672465
0.577000000000000401,0.785137914005926252
0.578000000000000402,0.776190386437627056
0.579000000000000403,0.767352433038011372
0.580000000000000404,0.758622827939153255
0.581000000000000405,0.750000355762000526
0.582000000000000406,0.741483811575248342
0.583000000000000407,0.733072000854125272
0.584000000000000408,0.724763739439003962
0.585000000000000409,0.716557853493829167
0.586000000000000409,0.708453179464364924
0.587000000000000410,0.700448564036161736
0.588000000000000411,0.692542864092352328
0.589000000000000412,0.684734946671098799
0.590000000000000413,0.677023688922830047
0.591000000000000414,0.669407978067142251
0.592000000000000415,0.661886711349394696
0.593000000000000416,0.654458795997000076
0.594000000000000417,0.647123149175373724
0.595000000000000417,0.639878697943523478
0.596000000000000418,0.632724379209329890
0.597000000000000419,0.625659139684428212
0.598000000000000420,0.618681935838766073
0.599000000000000421,0.611791733854766262
0.600000000000000422,0.604987509581129013
0.601000000000000423,0.598268248486288456
0.602000000000000424,0.591632945611449967
0.603000000000000425,0.585080605523277453
0.604000000000000425,0.578610242266224595
0.605000000000000426,0.572220879314464859
0.606000000000000427,0.565911549523447799
0.607000000000000428,0.559681295081141394
0.608000000000000429,0.553529167458812088
0.609000000000000430,0.547454227361557577
0.610000000000000431,0.541455544678385303
0.611000000000000432,0.535532198431997841
0.612000000000000433,0.529683276728215691
0.613000000000000433,0.523907876705049569
0.614000000000000434,0.518205104481450407
0.615000000000000435,0.512574075105728388
0.616000000000000436,0.507013912503672892
0.617000000000000437,0.501523749426309395
0.618000000000000438,0.496102727397401910
