# hydroxyapatite-010-ph10_ILESCA-AC
# h[nm],U(h)[kJ/mol]
0.149999999999999994,145.881199753400721875
0.150999999999999995,143.680894965440131728
0.151999999999999996,141.647098970992459499
0.152999999999999997,139.675050495549811558
0.153999999999999998,137.727575837927446400
0.154999999999999999,135.799309295472255599
0.156000000000000000,133.896980123014770925
0.157000000000000001,132.029395101997863549
0.158000000000000002,130.203047631670727924
0.159000000000000002,128.420810654122391270
0.160000000000000003,126.682169428919223719
0.161000000000000004,124.984092896799822370
0.162000000000000005,123.322047433925121140
0.163000000000000006,121.690905166263476644
0.164000000000000007,120.085645650977539844
0.165000000000000008,118.501831594130024428
0.166000000000000009,116.935880926202955266
0.167000000000000010,115.385175098742251976
0.168000000000000010,113.848047264442428173
0.169000000000000011,112.323690584786533009
0.170000000000000012,110.812020256938836837
0.171000000000000013,109.313515291463687618
0.172000000000000014,107.829058873388930806
0.173000000000000015,106.359789912280419344
0.174000000000000016,104.906973349466127843
0.175000000000000017,103.471892936224691084
0.176000000000000018,102.055767404345289151
0.177000000000000018,100.659689049903988689
0.178000000000000019,99.284582562482455614
0.179000000000000020,97.931181286965355071
0.180000000000000021,96.600017856827165019
0.181000000000000022,95.291426165062787845
0.182000000000000023,94.005551845199420313
0.183000000000000024,92.742368746320352102
0.184000000000000025,91.501699248281695986
0.185000000000000026,90.283236637763678800
0.186000000000000026,89.086568126571137327
0.187000000000000027,87.911197424498112696
0.188000000000000028,86.756566071171718590
0.189000000000000029,85.622072980888134452
0.190000000000000030,84.507091861450746251
0.191000000000000031,83.410986334693987487
0.192000000000000032,82.333122716420604092
0.193000000000000033,81.272880511326235364
0.194000000000000034,80.229660748814836779
0.195000000000000034,79.202892333019249804
0.196000000000000035,78.192036609135783465
0.197000000000000036,77.196590362245885331
0.198000000000000037,76.216087467540731382
0.199000000000000038,75.250099405200643332
0.200000000000000039,74.298234841552840635
0.201000000000000040,73.360138462531821801
0.202000000000000041,72.435489227496049125
0.203000000000000042,71.523998192362881809
0.204000000000000042,70.625406031755488812
0.205000000000000043,69.739480371114595414
0.206000000000000044,68.866013021997872556
0.207000000000000045,68.004817197401195017
0.208000000000000046,67.155724769070644697
0.209000000000000047,66.318583615528169162
0.210000000000000048,65.493255097910278550
0.211000000000000049,64.679611690678086688
0.212000000000000050,63.877534785707339893
0.213000000000000050,63.086912681102681688
0.214000000000000051,62.307638760172174841
0.215000000000000052,61.539609861213321551
0.216000000000000053,60.782724834969428684
0.217000000000000054,60.036883283682342949
0.218000000000000055,59.301984473475862103
0.219000000000000056,58.577926410235548360
0.220000000000000057,57.864605068106584440
0.221000000000000058,57.161913759116700362
0.222000000000000058,56.469742632163182350
0.223000000000000059,55.787978289614969185
0.224000000000000060,55.116503510004989153
0.225000000000000061,54.455197065677154455
0.226000000000000062,53.803933624760034604
0.227000000000000063,53.162583727428071256
0.228000000000000064,52.531013827055048182
0.229000000000000065,51.909086387532553886
0.230000000000000066,51.296660028706369872
0.231000000000000066,50.693589712556203608
0.232000000000000067,50.099726963398964585
0.233000000000000068,49.514920116025379571
0.234000000000000069,48.939014586277167496
0.235000000000000070,48.371853159134602151
0.236000000000000071,47.813276289908294814
0.237000000000000072,47.263122414615750699
0.238000000000000073,46.721228266070042423
0.239000000000000073,46.187429192620214735
0.240000000000000074,45.661559476854996831
0.241000000000000075,45.143452651924000918
0.242000000000000076,44.632941813437142287
0.243000000000000077,44.129859925182657321
0.244000000000000078,43.634040117154100358
0.245000000000000079,43.145315974602695519
0.246000000000000080,42.663521817034215644
0.247000000000000081,42.188492966250215943
0.248000000000000081,41.720066002696938767
0.249000000000000082,41.258079009529872394
0.250000000000000111,40.802371803932445005
0.251000000000000112,40.352786155342961649
0.252000000000000113,39.909165990347666764
0.253000000000000114,39.471357584090441151
0.254000000000000115,39.039209738131788185
0.255000000000000115,38.612573944763312284
0.256000000000000116,38.191304537849298129
0.257000000000000117,37.775258830324595749
0.258000000000000118,37.364297238530255640
0.259000000000000119,36.958283393612859413
0.260000000000000120,36.557084240254724250
0.261000000000000121,36.160570123036279711
0.262000000000000122,35.768614860763349839
0.263000000000000123,35.381095809118789930
0.264000000000000123,34.997893912020039409
0.265000000000000124,34.618893742084623000
0.266000000000000125,34.243983530621065370
0.267000000000000126,33.873055187576447622
0.268000000000000127,33.506004311882207958
0.269000000000000128,33.142730192648016896
0.270000000000000129,32.783135801659213371
0.271000000000000130,32.427127777636776784
0.272000000000000131,32.074616402720515396
0.273000000000000131,31.725515571635789058
0.274000000000000132,31.379742754002052152
0.275000000000000133,31.037218950237949855
0.276000000000000134,30.697868641512560117
0.277000000000000135,30.361619734186252373
0.278000000000000136,30.028403499176732794
0.279000000000000137,29.698154506677251874
0.280000000000000138,29.370810556644602940
0.281000000000000139,29.046312605463292300
0.282000000000000139,28.724604689181809647
0.283000000000000140,28.405633843703959940
0.284000000000000141,28.089350022306472709
0.285000000000000142,27.775706010840242044
0.286000000000000143,27.464657340959455212
0.287000000000000144,27.156162201708930581
0.288000000000000145,26.850181349785380291
0.289000000000000146,26.546678018774816366
0.290000000000000147,26.245617827652857557
0.291000000000000147,25.946968688820938098
0.292000000000000148,25.650700715936416429
0.293000000000000149,25.356786131780303606
0.294000000000000150,25.065199176391924851
0.295000000000000151,24.775916015685535143
0.296000000000000152,24.488914650749812552
0.297000000000000153,24.204174828017681165
0.298000000000000154,23.921677950479882213
0.299000000000000155,23.641406990102968422
0.300000000000000155,23.363346401599081048
0.301000000000000156,23.087482037682775626
0.302000000000000157,22.813801065937418855
0.303000000000000158,22.542291887402569728
0.304000000000000159,22.272944056981739180
0.305000000000000160,22.005748205759545044
0.306000000000000161,21.740695965306368720
0.307000000000000162,21.477779894038775410
0.308000000000000163,21.216993405694161368
0.309000000000000163,20.958330699969181410
0.310000000000000164,20.701786695362464741
0.311000000000000165,20.447356964254005618
0.312000000000000166,20.195037670245856276
0.313000000000000167,19.944825507781146712
0.314000000000000168,19.696717644051709328
0.315000000000000169,19.450711663197818524
0.316000000000000170,19.206805512797664903
0.317000000000000171,18.964997452638311159
0.318000000000000171,18.725286005754700369
0.319000000000000172,18.487669911718143112
0.320000000000000173,18.252148082151524733
0.321000000000000174,18.018719558443908824
0.322000000000000175,17.787383471633688714
0.323000000000000176,17.558139004425818541
0.324000000000000177,17.330985355305415396
0.325000000000000178,17.105921704707505171
0.326000000000000179,16.882947183199675578
0.327000000000000179,16.662060841632559516
0.328000000000000180,16.443261623210879918
0.329000000000000181,16.226548337436099700
0.330000000000000182,16.011919635870235368
0.331000000000000183,15.799373989669238227
0.332000000000000184,15.588909668833162314
0.333000000000000185,15.380524723119739505
0.334000000000000186,15.174216964567142085
0.335000000000000187,14.969983951571489200
0.336000000000000187,14.767822974464156260
0.337000000000000188,14.567731042534109775
0.338000000000000189,14.369704872440362209
0.339000000000000190,14.173740877959772888
0.340000000000000191,13.979835161015984113
0.341000000000000192,13.787983503935432594
0.342000000000000193,13.598181362877109990
0.343000000000000194,13.410423862383193949
0.344000000000000195,13.224705790998703137
0.345000000000000195,13.041021597908713403
0.346000000000000196,12.859365390542986773
0.347000000000000197,12.679730933098422696
0.348000000000000198,12.502111645931091033
0.349000000000000199,12.326500605770386088
0.350000000000000200,12.152890546709089747
0.351000000000000201,11.981273861924218949
0.352000000000000202,11.811642606084733487
0.353000000000000203,11.643988498403349041
0.354000000000000203,11.478302926290925967
0.355000000000000204,11.314576949573160292
0.356000000000000205,11.152801305230564566
0.357000000000000206,10.992966412623857764
0.358000000000000207,10.835062379168380886
0.359000000000000208,10.679079006422284692
0.360000000000000209,10.525005796554300019
0.361000000000000210,10.372831959158686388
0.362000000000000210,10.222546418385597633
0.363000000000000211,10.074137820356771300
0.364000000000000212,9.927594540837494819
0.365000000000000213,9.782904693137005836
0.366000000000000214,9.640056136210782611
0.367000000000000215,9.499036482939224868
0.368000000000000216,9.359833108558438752
0.369000000000000217,9.222433159220056353
0.370000000000000218,9.086823560657897758
0.371000000000000218,8.952991026940688712
0.372000000000000219,8.820922069290801915
0.373000000000000220,8.690603004950169463
0.374000000000000221,8.562019966075562039
0.375000000000000222,8.435158908646394949
0.376000000000000223,8.310005621368935280
0.377000000000000224,8.186545734562152177
0.378000000000000225,8.064764729010907018
0.379000000000000226,7.944647944773455706
0.380000000000000226,7.826180589930592291
0.381000000000000227,7.709347749265153205
0.382000000000000228,7.594134392860835803
0.383000000000000229,7.480525384610457351
0.384000000000000230,7.368505490624260190
0.385000000000000231,7.258059387529655737
0.386000000000000232,7.149171670654548727
0.387000000000000233,7.041826862086812966
0.388000000000000234,6.936009418603417132
0.389000000000000234,6.831703739463028668
0.390000000000000235,6.728894174056581967
0.391000000000000236,6.627565029410978248
0.392000000000000237,6.527700577541327043
0.393000000000000238,6.429285062647926097
0.394000000000000239,6.332302708154449178
0.395000000000000240,6.236737723584355741
0.396000000000000241,6.142574311272926302
0.397000000000000242,6.049796672912798989
0.398000000000000242,5.958389015931132349
0.399000000000000243,5.868335559697116288
0.400000000000000244,5.779620541558585955
0.401000000000000245,5.692228222707126584
0.402000000000000246,5.606142893871241206
0.403000000000000247,5.521348880837289030
0.404000000000000248,5.437830549798513324
0.405000000000000249,5.355572312532403068
0.406000000000000250,5.274558631407129106
0.407000000000000250,5.194774024217808872
0.408000000000000251,5.116203068853722336
0.409000000000000252,5.038830407797767919
0.410000000000000253,4.962640752459502202
0.411000000000000254,4.887618887343485596
0.412000000000000255,4.813749674054677463
0.413000000000000256,4.741018055142707688
0.414000000000000257,4.669409057787245132
0.415000000000000258,4.598907797326416969
0.416000000000000258,4.529499480630784447
0.417000000000000259,4.461169409325060009
0.418000000000000260,4.393902982860192097
0.419000000000000261,4.327685701438239718
0.420000000000000262,4.262503168792799002
0.421000000000000263,4.198341094827521935
0.422000000000000264,4.135185298115646724
0.423000000000000265,4.073021708263188323
0.424000000000000266,4.011836368138689046
0.425000000000000266,3.951615435972460233
0.426000000000000267,3.892345187328086986
0.427000000000000268,3.834012016949260637
0.428000000000000269,3.776602440484787770
0.429000000000000270,3.720103096094771189
0.430000000000000271,3.664500745940932891
0.431000000000000272,3.609782277563985620
0.432000000000000273,3.555934705151113207
0.433000000000000274,3.502945170696404098
0.434000000000000274,3.450800945057247215
0.435000000000000275,3.399489428909627353
0.436000000000000276,3.348998153605170280
0.437000000000000277,3.299314781932882745
0.438000000000000278,3.250427108788443320
0.439000000000000279,3.202323061753849398
0.440000000000000280,3.154990701590270508
0.441000000000000281,3.108418222646884832
0.442000000000000282,3.062593953188377238
0.443000000000000282,3.017506355643930327
0.444000000000000283,2.973144026780244253
0.445000000000000284,2.929495697801324905
0.446000000000000285,2.886550234377593949
0.447000000000000286,2.844296636606813422
0.448000000000000287,2.802724038909472526
0.449000000000000288,2.761821709860937890
0.450000000000000289,2.721579051962913276
0.451000000000000290,2.681985601356536186
0.452000000000000290,2.643031027479392669
0.453000000000000291,2.604705132668834633
0.454000000000000292,2.566997851713733070
0.455000000000000293,2.529899251356917400
0.456000000000000294,2.493399529750424115
0.457000000000000295,2.457489015865611304
0.458000000000000296,2.422158168860252925
0.459000000000000297,2.387397577404540172
0.460000000000000298,2.353197958967971903
0.461000000000000298,2.319550159069022843
0.462000000000000299,2.286445150489444078
0.463000000000000300,2.253874032455021048
0.464000000000000301,2.221828029784485015
0.465000000000000302,2.190298492008371678
0.466000000000000303,2.159276892459434105
0.467000000000000304,2.128754827336217126
0.468000000000000305,2.098724014741437660
0.469000000000000306,2.069176293696636471
0.470000000000000306,2.040103623134565058
0.471000000000000307,2.011498080870843808
0.472000000000000308,1.983351862556205436
0.473000000000000309,1.955657280610656912
0.474000000000000310,1.928406763140986913
0.475000000000000311,1.901592852842749481
0.476000000000000312,1.875208205888085233
0.477000000000000313,1.849245590800415950
0.478000000000000314,1.823697887317348387
0.479000000000000314,1.798558085242720095
0.480000000000000315,1.773819283288991189
0.481000000000000316,1.749474687910938853
0.482000000000000317,1.725517612131701739
0.483000000000000318,1.701941474362107742
0.484000000000000319,1.678739797214224172
0.485000000000000320,1.655906206310058026
0.486000000000000321,1.633434429086186412
0.487000000000000322,1.611318293595225937
0.488000000000000322,1.589551727304931550
0.489000000000000323,1.568128755895614956
0.490000000000000324,1.547043502056702824
0.491000000000000325,1.526290184283106699
0.492000000000000326,1.505863115672075647
0.493000000000000327,1.485756702721175770
0.494000000000000328,1.465965444128054518
0.495000000000000329,1.446483929592504936
0.496000000000000330,1.427306838621534180
0.497000000000000330,1.408428939337760255
0.498000000000000331,1.389845087291944115
0.499000000000000332,1.371550224279862507
0.500000000000000333,1.353539377164165725
0.501000000000000334,1.335807656701661461
0.502000000000000335,1.318350256376339624
0.503000000000000336,1.301162451238673246
0.504000000000000337,1.284239596751473700
0.505000000000000338,1.267577127642742330
0.506000000000000338,1.251170556765799358
0.507000000000000339,1.235015473967046695
0.508000000000000340,1.219107544961689271
0.509000000000000341,1.203442510217627159
0.510000000000000342,1.188016183847905083
0.511000000000000343,1.172824452511833648
0.512000000000000344,1.157863274325165559
0.513000000000000345,1.143128677779446267
0.514000000000000346,1.128616760670754671
0.515000000000000346,1.114323689038099641
0.516000000000000347,1.100245696111572080
0.517000000000000348,1.086379081270451685
0.518000000000000349,1.072720209011419179
0.519000000000000350,1.059265507927002803
0.520000000000000351,1.046011469694429152
0.521000000000000352,1.032954648074888127
0.522000000000000353,1.020091657923481776
0.523000000000000353,1.007419174209766233
0.524000000000000354,0.994933931049127196
0.525000000000000355,0.982632720744949006
0.526000000000000356,0.970512392841729743
0.527000000000000357,0.958569853189112031
0.528000000000000358,0.946802063016949136
0.529000000000000359,0.935206038021380359
0.530000000000000360,0.923778847462014552
0.531000000000000361,0.912517613270164896
0.532000000000000361,0.901419509168209565
0.533000000000000362,0.890481759800040407
0.534000000000000363,0.879701639872662478
0.535000000000000364,0.869076473308824093
0.536000000000000365,0.858603632410811834
0.537000000000000366,0.848280537035246973
0.538000000000000367,0.838104653778990238
0.539000000000000368,0.828073495175986940
0.540000000000000369,0.818184618905155814
0.541000000000000369,0.808435627009145841
0.542000000000000370,0.798824165124066510
0.543000000000000371,0.789347921719975587
0.544000000000000372,0.780004627352214763
0.545000000000000373,0.770792053923437970
0.546000000000000374,0.761708013956321595
0.547000000000000375,0.752750359876877106
0.548000000000000376,0.743916983308294921
0.549000000000000377,0.735205814375256894
0.550000000000000377,0.726614821018599755
0.551000000000000378,0.718142008320357794
0.552000000000000379,0.709785417838955324
0.553000000000000380,0.701543126954600638
0.554000000000000381,0.693413248224735268
0.555000000000000382,0.685393928749413073
0.556000000000000383,0.677483349546641578
0.557000000000000384,0.669679724937426002
0.558000000000000385,0.661981301940604894
0.559000000000000385,0.654386359677239016
0.560000000000000386,0.646893208784510954
0.561000000000000387,0.639500190839067839
0.562000000000000388,0.632205677789684062
0.563000000000000389,0.625008071399093756
0.564000000000000390,0.617905802694999395
0.565000000000000391,0.610897331430059864
0.566000000000000392,0.603981145550828491
0.567000000000000393,0.597155760675444958
0.568000000000000393,0.590419719580109192
0.569000000000000394,0.583771591694116854
0.570000000000000395,0.577209972603397681
0.571000000000000396,0.570733483562489319
0.572000000000000397,0.564340771014753662
0.573000000000000398,0.558030506120829384
0.574000000000000399,0.551801384295133923
0.575000000000000400,0.545652124750376721
0.576000000000000401,0.539581470049941614
0.577000000000000401,0.533588185668009474
0.578000000000000402,0.527671059557388800
0.579000000000000403,0.521828901724915917
0.580000000000000404,0.516060543814248707
0.581000000000000405,0.510364838696110601
0.582000000000000406,0.504740660065704061
0.583000000000000407,0.499186902047336456
0.584000000000000408,0.493702478806055833
0.585000000000000409,0.488286324166251007
0.586000000000000409,0.482937391237111435
0.587000000000000410,0.477654652044781636
0.588000000000000411,0.472437097171242992
0.589000000000000412,0.467283735399653621
0.590000000000000413,0.462193593366209576
0.591000000000000414,0.457165715218313173
0.592000000000000415,0.452199162279007194
0.593000000000000416,0.447293012717575433
0.594000000000000417,0.442446361226203788
0.595000000000000417,0.437658318702574434
0.596000000000000418,0.432928011938398416
0.597000000000000419,0.428254583313660731
0.598000000000000420,0.423637190496609695
0.599000000000000421,0.419075006149301821
0.600000000000000422,0.414567217638669216
0.601000000000000423,0.410113026753032517
0.602000000000000424,0.405711649423888265
0.603000000000000425,0.401362315452967966
0.604000000000000425,0.397064268244470664
0.605000000000000426,0.392816764542331831
0.606000000000000427,0.388619074172475543
0.607000000000000428,0.384470479790025244
0.608000000000000429,0.380370276631231463
0.609000000000000430,0.376317772270249096
0.610000000000000431,0.372312286380481250
0.611000000000000432,0.368353150500547233
0.612000000000000433,0.364439707804738500
0.613000000000000433,0.360571312877884687
0.614000000000000434,0.356747331494568498
0.615000000000000435,0.352967140402608515
0.616000000000000436,0.349230127110755906
0.617000000000000437,0.345535689680453006
0.618000000000000438,0.341883236521691114
