# hydroxyapatite-010-ph10_CS-11227-AC
# h[nm],U(h)[kJ/mol]
0.149999999999999994,93.047216137378867984
0.150999999999999995,91.305926781712258844
0.151999999999999996,89.808471313976582451
0.152999999999999997,88.393419509933579548
0.153999999999999998,86.993005625308470030
0.154999999999999999,85.587388210509374176
0.156000000000000000,84.178378327558618821
0.157000000000000001,82.775183155600174700
0.158000000000000002,81.387342352767319653
0.159000000000000002,80.021792850683823417
0.160000000000000003,78.682159522816505159
0.161000000000000004,77.369126034084800381
0.162000000000000005,76.081224730577247328
0.163000000000000006,74.815687822211287994
0.164000000000000007,73.569186571814128683
0.165000000000000008,72.338392847421388865
0.166000000000000009,71.120356440979520585
0.167000000000000010,69.912720687120625485
0.168000000000000010,68.713810312929112456
0.169000000000000011,67.522626909910769655
0.170000000000000012,66.338783810585951528
0.171000000000000013,65.162406413245108183
0.172000000000000014,63.994017819142833048
0.173000000000000015,62.834423924720852028
0.174000000000000016,61.684607257931006075
0.175000000000000017,60.545634985103035319
0.176000000000000018,59.418583606240950701
0.177000000000000018,58.304480786290639571
0.178000000000000019,57.204263391737967481
0.179000000000000020,56.118749967736597739
0.180000000000000021,55.048625465555929281
0.181000000000000022,53.994435897783851885
0.182000000000000023,52.956590665126512363
0.183000000000000024,51.935370490011280253
0.184000000000000025,50.930939152885983390
0.185000000000000026,49.943357516800929830
0.186000000000000026,48.972598616661557003
0.187000000000000027,48.018562863264683926
0.188000000000000028,47.081092658067916545
0.189000000000000029,46.159985927183491583
0.190000000000000030,45.255008260740986259
0.191000000000000031,44.365903487502372116
0.192000000000000032,43.492402627028567963
0.193000000000000033,42.634231246278787353
0.194000000000000034,41.791115308171221443
0.195000000000000034,40.962785640277729726
0.196000000000000035,40.148981176223557554
0.197000000000000036,39.349451133940632985
0.198000000000000037,38.563956296705335092
0.199000000000000038,37.792269557479222897
0.200000000000000039,37.034175876638528280
0.201000000000000040,36.289471789500360899
0.202000000000000041,35.557964584548884091
0.203000000000000042,34.839471257028442608
0.204000000000000042,34.133817326425230476
0.205000000000000043,33.440835590903404295
0.206000000000000044,32.760364877394934524
0.207000000000000045,32.092248833024584087
0.208000000000000046,31.436334792013248318
0.209000000000000047,30.792472742189129775
0.210000000000000048,30.160514406723269332
0.211000000000000049,29.540312449620820701
0.212000000000000050,28.931719807737316330
0.213000000000000050,28.334589147526788366
0.214000000000000051,27.748772441230926233
0.215000000000000052,27.174120654648419304
0.216000000000000053,26.610483536848573038
0.217000000000000054,26.057709501085252413
0.218000000000000055,25.515645585608570656
0.219000000000000056,24.984137482957027743
0.220000000000000057,24.463029626544205541
0.221000000000000058,23.952165323852348422
0.222000000000000058,23.451386926233698915
0.223000000000000059,22.960536026142666088
0.224000000000000060,22.479453673524151469
0.225000000000000061,22.007980604025327409
0.226000000000000062,21.545957472646023234
0.227000000000000063,21.093225087370921500
0.228000000000000064,20.649624638215129835
0.229000000000000065,20.214997917947957973
0.230000000000000066,19.789187531530085806
0.231000000000000066,19.372037091998254965
0.232000000000000067,18.963391401158276039
0.233000000000000068,18.563096613999089612
0.234000000000000069,18.171000386220793388
0.235000000000000070,17.786952004679683625
0.236000000000000071,17.410802500898160616
0.237000000000000072,17.042404748070641318
0.238000000000000073,16.681613542224276614
0.239000000000000073,16.328285668370934758
0.240000000000000074,15.982279952618005936
0.241000000000000075,15.643457301298827389
0.242000000000000076,15.311680728240821381
0.243000000000000077,14.986815371317893764
0.244000000000000078,14.668728499436777923
0.245000000000000079,14.357289511089501133
0.246000000000000080,14.052369925570136644
0.247000000000000081,13.753843367905844275
0.248000000000000081,13.461585548494658937
0.249000000000000082,13.175474238377001157
0.250000000000000111,12.895389240997364055
0.251000000000000112,12.621212361239320998
0.252000000000000113,12.352827372441668174
0.253000000000000114,12.090119982029754908
0.254000000000000115,11.832977796322136754
0.255000000000000115,11.581290285002234342
0.256000000000000116,11.334948745676902249
0.257000000000000117,11.093846268879701711
0.258000000000000118,10.857877703817077730
0.259000000000000119,10.626939625100087383
0.260000000000000120,10.400930300653346450
0.261000000000000121,10.179749660947006618
0.262000000000000122,9.963299269655589541
0.263000000000000123,9.751482295810831147
0.264000000000000123,9.544203487482754156
0.265000000000000124,9.341369146994917827
0.266000000000000125,9.142887107655120360
0.267000000000000126,8.948666711962349751
0.268000000000000127,8.758618791233098833
0.269000000000000128,8.572655646576494703
0.270000000000000129,8.390691031136285005
0.271000000000000130,8.212640133509239604
0.272000000000000131,8.038419562243500849
0.273000000000000131,7.867947331316369919
0.274000000000000132,7.701142846488941984
0.275000000000000133,7.537926892434532178
0.276000000000000134,7.378221620538672809
0.277000000000000135,7.221950537270960702
0.278000000000000136,7.069038493031823300
0.279000000000000137,6.919411671381540785
0.280000000000000138,6.772997578563609622
0.281000000000000139,6.629725033239549425
0.282000000000000139,6.489524156358172036
0.283000000000000140,6.352326361088044493
0.284000000000000141,6.218064342748103712
0.285000000000000142,6.086672068677501102
0.286000000000000143,5.958084767991938868
0.287000000000000144,5.832238921179973445
0.288000000000000145,5.709072249498531981
0.289000000000000146,5.588523704133042891
0.290000000000000147,5.470533455092767561
0.291000000000000147,5.355042879817707657
0.292000000000000148,5.241994551478095232
0.293000000000000149,5.131332226952616260
0.294000000000000150,5.023000834475778831
0.295000000000000151,4.916946460949022324
0.296000000000000152,4.813116338914033676
0.297000000000000153,4.711458833190188322
0.298000000000000154,4.611923427181240598
0.299000000000000155,4.514460708859263427
0.300000000000000155,4.419022356436308030
0.301000000000000156,4.325561123736704872
0.302000000000000157,4.234030825284661681
0.303000000000000158,4.144386321123709749
0.304000000000000159,4.056583501385860657
0.305000000000000160,3.970579270629663426
0.306000000000000161,3.886331531967166963
0.307000000000000162,3.803799171000663559
0.308000000000000163,3.722942039590593222
0.309000000000000163,3.643720939476369214
0.310000000000000164,3.566097605772087231
0.311000000000000165,3.490034690359101521
0.312000000000000166,3.415495745197389077
0.313000000000000167,3.342445205577389000
0.314000000000000168,3.270848373333676840
0.315000000000000169,3.200671400041394943
0.316000000000000170,3.131881270215808311
0.317000000000000171,3.064445784534826078
0.318000000000000171,2.998333543103634646
0.319000000000000172,2.933513928779794444
0.320000000000000173,2.869957090576512382
0.321000000000000174,2.807633927160945397
0.322000000000000175,2.746516070463489889
0.323000000000000176,2.686575869413296402
0.324000000000000177,2.627786373814227971
0.325000000000000178,2.570121318374763764
0.326000000000000179,2.513555106904282077
0.327000000000000179,2.458062796687471963
0.328000000000000180,2.403620083047610656
0.329000000000000181,2.350203284108604240
0.330000000000000182,2.297789325764961088
0.331000000000000183,2.246355726867823144
0.332000000000000184,2.195880584634576582
0.333000000000000185,2.146342560288677426
0.334000000000000186,2.097720864935540330
0.335000000000000187,2.049995245679721023
0.336000000000000187,2.003145971987703167
0.337000000000000188,1.957153822300242707
0.338000000000000189,1.912000070897203585
0.339000000000000190,1.867666475017459859
0.340000000000000191,1.824135262235810462
0.341000000000000192,1.781389118098157143
0.342000000000000193,1.739411174015843331
0.343000000000000194,1.698184995419385501
0.344000000000000195,1.657694570171592385
0.345000000000000195,1.617924297239288434
0.346000000000000196,1.578858975622815297
0.347000000000000197,1.540483793541833624
0.348000000000000198,1.502784317875717424
0.349000000000000199,1.465746483856508187
0.350000000000000200,1.429356585012007352
0.351000000000000201,1.393601263356421871
0.352000000000000202,1.358467499825675606
0.353000000000000203,1.323942604954223778
0.354000000000000203,1.290014209790082855
0.355000000000000204,1.256670257044591565
0.356000000000000205,1.223898992473194891
0.357000000000000206,1.191688956483412110
0.358000000000000207,1.160028975966142850
0.359000000000000208,1.128908156346177805
0.360000000000000209,1.098315873847765411
0.361000000000000210,1.068241767971103817
0.362000000000000210,1.038675734175369181
0.363000000000000211,1.009607916764033275
0.364000000000000212,0.981028701968042371
0.365000000000000213,0.952928711222511327
0.366000000000000214,0.925298794632502974
0.367000000000000215,0.898130024623518208
0.368000000000000216,0.871413689772218780
0.369000000000000217,0.845141288813125668
0.370000000000000218,0.819304524816794832
0.371000000000000218,0.793895299535256838
0.372000000000000219,0.768905707910358505
0.373000000000000220,0.744328032740770640
0.374000000000000221,0.720154739503472086
0.375000000000000222,0.696378471325613702
0.376000000000000223,0.672992044102554976
0.377000000000000224,0.649988441758183599
0.378000000000000225,0.627360811643471905
0.379000000000000226,0.605102460069460002
0.380000000000000226,0.583206847970741959
0.381000000000000227,0.561667586695849597
0.382000000000000228,0.540478433920755008
0.383000000000000229,0.519633289681965982
0.384000000000000230,0.499126192525718715
0.385000000000000231,0.478951315769758967
0.386000000000000232,0.459102963874485792
0.387000000000000233,0.439575568920060777
0.388000000000000234,0.420363687186427026
0.389000000000000234,0.401461995833017782
0.390000000000000235,0.382865289675214604
0.391000000000000236,0.364568478054569711
0.392000000000000237,0.346566581799944318
0.393000000000000238,0.328854730276768148
0.394000000000000239,0.311428158521740550
0.395000000000000240,0.294282204460305619
0.396000000000000241,0.277412306204380898
0.397000000000000242,0.260813999427858823
0.398000000000000242,0.244482914817445440
0.399000000000000243,0.228414775596563979
0.400000000000000244,0.212605395120016777
0.401000000000000245,0.197050674537204762
0.402000000000000246,0.181746600521855400
0.403000000000000247,0.166689243066116877
0.404000000000000248,0.151874753337089663
0.405000000000000249,0.137299361593824276
0.406000000000000250,0.122959375162975795
0.407000000000000250,0.108851176471245023
0.408000000000000251,0.094971221132920586
0.409000000000000252,0.081316036090789551
0.410000000000000253,0.067882217808810569
0.411000000000000254,0.054666430514954768
0.412000000000000255,0.041665404492713186
0.413000000000000256,0.028875934419740300
0.414000000000000257,0.016294877752298799
0.415000000000000258,0.003919153154003252
0.416000000000000258,-0.008254261032332377
0.417000000000000259,-0.020228328271154238
0.418000000000000260,-0.032005955280087851
0.419000000000000261,-0.043589993436584387
0.420000000000000262,-0.054983240146398493
0.421000000000000263,-0.066188440175101990
0.422000000000000264,-0.077208286943603557
0.423000000000000265,-0.088045423788827765
0.424000000000000266,-0.098702445190536545
0.425000000000000266,-0.109181897965222735
0.426000000000000267,-0.119486282428105661
0.427000000000000268,-0.129618053524078958
0.428000000000000269,-0.139579621928520969
0.429000000000000270,-0.149373355118837592
0.430000000000000271,-0.159001578417525102
0.431000000000000272,-0.168466576007607255
0.432000000000000273,-0.177770591921162985
0.433000000000000274,-0.186915831001742944
0.434000000000000274,-0.195904459841374390
0.435000000000000275,-0.204738607692852070
0.436000000000000276,-0.213420367358019641
0.437000000000000277,-0.221951796052666073
0.438000000000000278,-0.230334916248691096
0.439000000000000279,-0.238571716494173025
0.440000000000000280,-0.246664152211894944
0.441000000000000281,-0.254614146476930314
0.442000000000000282,-0.262423590773880222
0.443000000000000282,-0.270094345734226804
0.444000000000000283,-0.277628241854419811
0.445000000000000284,-0.285027080195144444
0.446000000000000285,-0.292292633062270102
0.447000000000000286,-0.299426644670026776
0.448000000000000287,-0.306430831786767111
0.449000000000000288,-0.313306884363874716
0.450000000000000289,-0.320056466148181840
0.451000000000000290,-0.326681215278356696
0.452000000000000290,-0.333182744865687830
0.453000000000000291,-0.339562643559627564
0.454000000000000292,-0.345822476098529230
0.455000000000000293,-0.351963783845930966
0.456000000000000294,-0.357988085312768711
0.457000000000000295,-0.363896876665881996
0.458000000000000296,-0.369691632223147326
0.459000000000000297,-0.375373804935597521
0.460000000000000298,-0.380944826856848717
0.461000000000000298,-0.386406109600160808
0.462000000000000299,-0.391759044783454691
0.463000000000000300,-0.397005004462563593
0.464000000000000301,-0.402145341553063473
0.465000000000000302,-0.407181390240928753
0.466000000000000303,-0.412114466382320188
0.467000000000000304,-0.416945867892783706
0.468000000000000305,-0.421676875126111184
0.469000000000000306,-0.426308751243133277
0.470000000000000306,-0.430842742570731463
0.471000000000000307,-0.435280078951246874
0.472000000000000308,-0.439621974082606226
0.473000000000000309,-0.443869625849366400
0.474000000000000310,-0.448024216644889506
0.475000000000000311,-0.452086913684924263
0.476000000000000312,-0.456058869312769843
0.477000000000000313,-0.459941221296273128
0.478000000000000314,-0.463735093116819541
0.479000000000000314,-0.467441594250600112
0.480000000000000315,-0.471061820442264190
0.481000000000000316,-0.474596853971239629
0.482000000000000317,-0.478047763910839418
0.483000000000000318,-0.481415606380394823
0.484000000000000319,-0.484701424790565327
0.485000000000000320,-0.487906250082014825
0.486000000000000321,-0.491031100957632916
0.487000000000000322,-0.494076984108468065
0.488000000000000322,-0.497044894433510520
0.489000000000000323,-0.499935815253549354
0.490000000000000324,-0.502750718519200612
0.491000000000000325,-0.505490565013295812
0.492000000000000326,-0.508156304547759397
0.493000000000000327,-0.510748876155156517
0.494000000000000328,-0.513269208275008215
0.495000000000000329,-0.515718218935069861
0.496000000000000330,-0.518096815927640564
0.497000000000000330,-0.520405896981137817
0.498000000000000331,-0.522646349926937370
0.499000000000000332,-0.524819052861735580
0.500000000000000333,-0.526924874305488955
0.501000000000000334,-0.528964673355039716
0.502000000000000335,-0.530939299833609102
0.503000000000000336,-0.532849594436215490
0.504000000000000337,-0.534696388871173434
0.505000000000000338,-0.536480505997748436
0.506000000000000338,-0.538202759960108024
0.507000000000000339,-0.539863956317661819
0.508000000000000340,-0.541464892171872436
0.509000000000000341,-0.543006356289698622
0.510000000000000342,-0.544489129223686197
0.511000000000000343,-0.545913983428886418
0.512000000000000344,-0.547281683376625083
0.513000000000000345,-0.548592985665253829
0.514000000000000346,-0.549848639127986982
0.515000000000000346,-0.551049384937852160
0.516000000000000347,-0.552195956709891633
0.517000000000000348,-0.553289080600696814
0.518000000000000349,-0.554329475405310190
0.519000000000000350,-0.555317852651635357
0.520000000000000351,-0.556254916692371260
0.521000000000000352,-0.557141364794611738
0.522000000000000353,-0.557977887227105951
0.523000000000000353,-0.558765167345324665
0.524000000000000354,-0.559503881674356496
0.525000000000000355,-0.560194699989714051
0.526000000000000356,-0.560838285396110692
0.527000000000000357,-0.561435294404292073
0.528000000000000358,-0.561986377005952775
0.529000000000000359,-0.562492176746835382
0.530000000000000360,-0.562953330798023233
0.531000000000000361,-0.563370470025543191
0.532000000000000361,-0.563744219058283091
0.533000000000000362,-0.564075196354311137
0.534000000000000363,-0.564364014265623215
0.535000000000000364,-0.564611279101406405
0.536000000000000365,-0.564817591189822443
0.537000000000000366,-0.564983544938409965
0.538000000000000367,-0.565109728893091301
0.539000000000000368,-0.565196725795912736
0.540000000000000369,-0.565245112641466485
0.541000000000000369,-0.565255460732134174
0.542000000000000370,-0.565228335732101961
0.543000000000000371,-0.565164297720264108
0.544000000000000372,-0.565063901242012889
0.545000000000000373,-0.564927695359964788
0.546000000000000374,-0.564756223703658966
0.547000000000000375,-0.564550024518260196
0.548000000000000376,-0.564309630712319987
0.549000000000000377,-0.564035569904599243
0.550000000000000377,-0.563728364470019283
0.551000000000000378,-0.563388531584737118
0.552000000000000379,-0.563016583270415261
0.553000000000000380,-0.562613026437684960
0.554000000000000381,-0.562178362928834274
0.555000000000000382,-0.561713089559789602
0.556000000000000383,-0.561217698161342482
0.557000000000000384,-0.560692675619737124
0.558000000000000385,-0.560138503916560615
0.559000000000000385,-0.559555660168023827
0.560000000000000386,-0.558944616663624494
0.561000000000000387,-0.558305840904222639
0.562000000000000388,-0.557639795639542801
0.563000000000000389,-0.556946938905158340
0.564000000000000390,-0.556227724058921291
0.565000000000000391,-0.555482599816914280
0.566000000000000392,-0.554712010288900381
0.567000000000000393,-0.553916395013334784
0.568000000000000393,-0.553096188991898274
0.569000000000000394,-0.552251822723622832
0.570000000000000395,-0.551383722238607099
0.571000000000000396,-0.550492309131310531
0.572000000000000397,-0.549578000593506588
0.573000000000000398,-0.548641209446830702
0.574000000000000399,-0.547682344175008828
0.575000000000000400,-0.546701808955727619
0.576000000000000401,-0.545700003692180524
0.577000000000000401,-0.544677324044327893
0.578000000000000402,-0.543634161459829124
0.579000000000000403,-0.542570903204690813
0.580000000000000404,-0.541487932393666438
0.581000000000000405,-0.540385628020350395
0.582000000000000406,-0.539264364987055989
0.583000000000000407,-0.538124514134415421
0.584000000000000408,-0.536966442270770727
0.585000000000000409,-0.535790512201325009
0.586000000000000409,-0.534597082757069297
0.587000000000000410,-0.533386508823530670
0.588000000000000411,-0.532159141369273003
0.589000000000000412,-0.530915327474253629
0.590000000000000413,-0.529655410357954826
0.591000000000000414,-0.528379729407354004
0.592000000000000415,-0.527088620204724689
0.593000000000000416,-0.525782414555258204
0.594000000000000417,-0.524461440514524813
0.595000000000000417,-0.523126022415808078
0.596000000000000418,-0.521776480897240491
0.597000000000000419,-0.520413132928846167
0.598000000000000420,-0.519036291839401476
0.599000000000000421,-0.517646267343189193
0.600000000000000422,-0.516243365566615542
0.601000000000000423,-0.514827889074680689
0.602000000000000424,-0.513400136897356640
0.603000000000000425,-0.511960404555832582
0.604000000000000425,-0.510508984088632989
0.605000000000000426,-0.509046164077638474
0.606000000000000427,-0.507572229674006614
0.607000000000000428,-0.506087462623938777
0.608000000000000429,-0.504592141294417318
0.609000000000000430,-0.503086540698760354
0.610000000000000431,-0.501570932522145019
0.611000000000000432,-0.500045585146991378
0.612000000000000433,-0.498510763678259416
0.613000000000000433,-0.496966729968669085
0.614000000000000434,-0.495413742643810995
0.615000000000000435,-0.493852057127169453
0.616000000000000436,-0.492281925665051578
