# hydroxyapatite-010-ph10_CS-11787-AC
# h[nm],U(h)[kJ/mol]
0.149999999999999994,121.814172047357985207
0.150999999999999995,119.718079680505610440
0.151999999999999996,117.504592643087079296
0.152999999999999997,115.291867019454599586
0.153999999999999998,113.129718365941329239
0.154999999999999999,111.032800808285543326
0.156000000000000000,108.999619114082705096
0.157000000000000001,107.022819215225894141
0.158000000000000002,105.094283009462628797
0.159000000000000002,103.207264504000406191
0.160000000000000003,101.356950437432900003
0.161000000000000004,99.540271674123687262
0.162000000000000005,97.755435695323740219
0.163000000000000006,96.001428685418844111
0.164000000000000007,94.277602125926136978
0.165000000000000008,92.583382187328140844
0.166000000000000009,90.918099481303869425
0.167000000000000010,89.280917907487946650
0.168000000000000010,87.670835260755993090
0.169000000000000011,86.086729119884196848
0.170000000000000012,84.527425695159394081
0.171000000000000013,82.991774614993829573
0.172000000000000014,81.478717873434192143
0.173000000000000015,79.987345735419040693
0.174000000000000016,78.516936064749913271
0.175000000000000017,77.066976273301833089
0.176000000000000018,75.637168974426543855
0.177000000000000018,74.227423595335579876
0.178000000000000019,72.837836812907795547
0.179000000000000020,71.468664868160516335
0.180000000000000021,70.120290712226392316
0.181000000000000022,68.793188644974904378
0.182000000000000023,67.487888708234066826
0.183000000000000024,66.204942650443982188
0.184000000000000025,64.944892832551289530
0.185000000000000026,63.708245025657916472
0.186000000000000026,62.495445677595242273
0.187000000000000027,61.306863907738375019
0.188000000000000028,60.142778230179352761
0.189000000000000029,59.003367803573652850
0.190000000000000030,57.888707857381021427
0.191000000000000031,56.798768842928552658
0.192000000000000032,55.733418796978313026
0.193000000000000033,54.692428378308854064
0.194000000000000034,53.675478037494386285
0.195000000000000034,52.682166800347658864
0.196000000000000035,51.712022180840676810
0.197000000000000036,50.764510784929456122
0.198000000000000037,49.839049218555011578
0.199000000000000038,48.935014967880626102
0.200000000000000039,48.051756974950272649
0.201000000000000040,47.188605685418096414
0.202000000000000041,46.344882395345145198
0.203000000000000042,45.519907770282998172
0.204000000000000042,44.713009451334229993
0.205000000000000043,43.923528699279351883
0.206000000000000044,43.150826059105142463
0.207000000000000045,42.394286053471411435
0.208000000000000046,41.653320935050182072
0.209000000000000047,40.927373544605423206
0.210000000000000048,40.215919334550108033
0.211000000000000049,39.518467626958035055
0.212000000000000050,38.834562181064043784
0.213000000000000050,38.163781148605593785
0.214000000000000051,37.505736496364171728
0.215000000000000052,36.860072974359745501
0.216000000000000053,36.226466705706492633
0.217000000000000054,35.604623470486139070
0.218000000000000055,34.994276751438626150
0.219000000000000056,34.395185604068579721
0.220000000000000057,33.807132408146749469
0.221000000000000058,33.229920551744129398
0.222000000000000058,32.663372093028513632
0.223000000000000059,32.107325439215813390
0.224000000000000060,31.561633076404042697
0.225000000000000061,31.026159378609115436
0.226000000000000062,30.500778519231044328
0.227000000000000063,29.985372503448406434
0.228000000000000064,29.479829335699029969
0.229000000000000065,28.984041332467988639
0.230000000000000066,28.497903587077576759
0.231000000000000066,28.021312590052424696
0.232000000000000067,27.554165005905439045
0.233000000000000068,27.096356604841115967
0.234000000000000069,26.647781345880140691
0.235000000000000070,26.208330606251347916
0.236000000000000071,25.777892550547683470
0.237000000000000072,25.356351632075064373
0.238000000000000073,24.943588218011957025
0.239000000000000073,24.539478329415036484
0.240000000000000074,24.143893486726568653
0.241000000000000075,23.756700651238769950
0.242000000000000076,23.377762252923616870
0.243000000000000077,23.006936295122905278
0.244000000000000078,22.644076526790861692
0.245000000000000079,22.289032673271872653
0.246000000000000080,21.941650716961717649
0.247000000000000081,21.601773219624970324
0.248000000000000081,21.269239678611921107
0.249000000000000082,20.943886909720973222
0.250000000000000111,20.625549449976865901
0.251000000000000112,20.314059974131730257
0.252000000000000113,20.009249719235306486
0.253000000000000114,19.710948912157835622
0.254000000000000115,19.418987195475342133
0.255000000000000115,19.133194047639570101
0.256000000000000116,18.853399193848510151
0.257000000000000117,18.579433004505265359
0.258000000000000118,18.311126878600820334
0.259000000000000119,18.048313609777878241
0.260000000000000120,17.790827733227025931
0.261000000000000121,17.538505851933155810
0.262000000000000122,17.291186941127900667
0.263000000000000123,17.048712630113833200
0.264000000000000123,16.810927460908139608
0.265000000000000124,16.577679123408525896
0.266000000000000125,16.348818667012700701
0.267000000000000126,16.124200688826231698
0.268000000000000127,15.903683498772863913
0.269000000000000128,15.687129262078041592
0.270000000000000129,15.474404119731374863
0.271000000000000130,15.265378287648829314
0.272000000000000131,15.059926135351537013
0.273000000000000131,14.857926245057337056
0.274000000000000132,14.659261452143965698
0.275000000000000133,14.463818867991445671
0.276000000000000134,14.271489886246296663
0.277000000000000135,14.082170173573691940
0.278000000000000136,13.895759645975918062
0.279000000000000137,13.712162431758537551
0.280000000000000138,13.531286822220110366
0.281000000000000139,13.353045211128222292
0.282000000000000139,13.177354024025117241
0.283000000000000140,13.004133638381054183
0.284000000000000141,12.833308295583847780
0.285000000000000142,12.664806005719087878
0.286000000000000143,12.498558446058584792
0.287000000000000144,12.334500854135075798
0.288000000000000145,12.172571916239238732
0.289000000000000146,12.012713652132486430
0.290000000000000147,11.854871296724301288
0.291000000000000147,11.698993179418851085
0.292000000000000148,11.545030601790154279
0.293000000000000149,11.392937714200979116
0.294000000000000150,11.242671391936067238
0.295000000000000151,11.094191111376854764
0.296000000000000152,10.947458826702469281
0.297000000000000153,10.802438847560111412
0.298000000000000154,10.659097718107961583
0.299000000000000155,10.517404097794859297
0.300000000000000155,10.377328644203867469
0.301000000000000156,10.238843898251255737
0.302000000000000157,10.101924171998197366
0.303000000000000158,9.966545439300530163
0.304000000000000159,9.832685229491085366
0.305000000000000160,9.700322524260432289
0.306000000000000161,9.569437657874724223
0.307000000000000162,9.440012220843884805
0.308000000000000163,9.312028967129812429
0.309000000000000163,9.185471724962120277
0.310000000000000164,9.060325311308607965
0.311000000000000165,8.936575450028724887
0.312000000000000166,8.814208693721074184
0.313000000000000167,8.693212349260054594
0.314000000000000168,8.573574407002441333
0.315000000000000169,8.455283473631446611
0.316000000000000170,8.338328708594163530
0.317000000000000171,8.222699764077635365
0.318000000000000171,8.108386728459498372
0.319000000000000172,7.995380073160679224
0.320000000000000173,7.883670602820520124
0.321000000000000174,7.773249408708389652
0.322000000000000175,7.664107825280355613
0.323000000000000176,7.556237389785126268
0.324000000000000177,7.449629804819613454
0.325000000000000178,7.344276903731612904
0.326000000000000179,7.240170618764580013
0.327000000000000179,7.137302951838117693
0.328000000000000180,7.035665947856360347
0.329000000000000181,6.935251670436132443
0.330000000000000182,6.836052179946537244
0.331000000000000183,6.738059513752027385
0.332000000000000184,6.641265668551750601
0.333000000000000185,6.545662584709125653
0.334000000000000186,6.451242132466981971
0.335000000000000187,6.357996099945296464
0.336000000000000187,6.265916182820570057
0.337000000000000188,6.174993975588118467
0.338000000000000189,6.085220964310789071
0.339000000000000190,5.996588520760230523
0.340000000000000191,5.909087897859636840
0.341000000000000192,5.822710226339433248
0.342000000000000193,5.737446512520480546
0.343000000000000194,5.653287637142121014
0.344000000000000195,5.570224355155726670
0.345000000000000195,5.488247296406997933
0.346000000000000196,5.407346967133756621
0.347000000000000197,5.327513752208823838
0.348000000000000198,5.248737918060660590
0.349000000000000199,5.171009616207618009
0.350000000000000200,5.094318887344539526
0.351000000000000201,5.018655665923509090
0.352000000000000202,4.944009785173532734
0.353000000000000203,4.870370982506733171
0.354000000000000203,4.797728905261540611
0.355000000000000204,4.726073116736177582
0.356000000000000205,4.655393102468369015
0.357000000000000206,4.585678276719768576
0.358000000000000207,4.516917989126433497
0.359000000000000208,4.449101531478855343
0.360000000000000209,4.382218144597529452
0.361000000000000210,4.316257025272586034
0.362000000000000210,4.251207333237863928
0.363000000000000211,4.187058198152311839
0.364000000000000212,4.123798726563396855
0.365000000000000213,4.061418008829395632
0.366000000000000214,3.999905125979177800
0.367000000000000215,3.939249156490019832
0.368000000000000216,3.879439182965589872
0.369000000000000217,3.820464298698108330
0.370000000000000218,3.762313614099967563
0.371000000000000218,3.704976262991900970
0.372000000000000219,3.648441408735918490
0.373000000000000220,3.592698250202762011
0.374000000000000221,3.537736027564797325
0.375000000000000222,3.483544027906584351
0.376000000000000223,3.430111590646205855
0.377000000000000224,3.377428112761883483
0.378000000000000225,3.325483053819053403
0.379000000000000226,3.274265940794282237
0.380000000000000226,3.223766372692971061
0.381000000000000227,3.173974024958970297
0.382000000000000228,3.124878653674625362
0.383000000000000229,3.076470099550730808
0.384000000000000230,3.028738291706415175
0.385000000000000231,2.981673251239520983
0.386000000000000232,2.935265094588778823
0.387000000000000233,2.889504036689320543
0.388000000000000234,2.844380393923848782
0.389000000000000234,2.799884586871887127
0.390000000000000235,2.756007142860164461
0.391000000000000236,2.712738698317421093
0.392000000000000237,2.670070000937234234
0.393000000000000238,2.627991911652759249
0.394000000000000239,2.586495406427583355
0.395000000000000240,2.545571577866968749
0.396000000000000241,2.505211636654110396
0.397000000000000242,2.465406912816078044
0.398000000000000242,2.426148856824304367
0.399000000000000243,2.387429040534614799
0.400000000000000244,2.349239157971828806
0.401000000000000245,2.311571025964047177
0.402000000000000246,2.274416584631915761
0.403000000000000247,2.237767897737969580
0.404000000000000248,2.201617152901393926
0.405000000000000249,2.165956661683407170
0.406000000000000250,2.130778859548571269
0.407000000000000250,2.096076305707178289
0.408000000000000251,2.061841682843982504
0.409000000000000252,2.028067796738379336
0.410000000000000253,1.994747575781148807
0.411000000000000254,1.961874070392794156
0.412000000000000255,1.929440452348461621
0.413000000000000256,1.897440014014263099
0.414000000000000257,1.865866167499915518
0.415000000000000258,1.834712443732270160
0.416000000000000258,1.803972491454485461
0.417000000000000259,1.773640076155253764
0.418000000000000260,1.743709078932559109
0.419000000000000261,1.714173495296228200
0.420000000000000262,1.685027433913521167
0.421000000000000263,1.656265115301751134
0.422000000000000264,1.627880870472030894
0.423000000000000265,1.599869139527867468
0.424000000000000266,1.572224470222410631
0.425000000000000266,1.544941516477959409
0.426000000000000267,1.518015036871195989
0.427000000000000268,1.491439893087545210
0.428000000000000269,1.465211048347924372
0.429000000000000270,1.439323565810984640
0.430000000000000271,1.413772606953915822
0.431000000000000272,1.388553429934665129
0.432000000000000273,1.363661387938415404
0.433000000000000274,1.339091927510958957
0.434000000000000274,1.314840586881518281
0.435000000000000275,1.290902994277529192
0.436000000000000276,1.267274866233646602
0.437000000000000277,1.243952005897261959
0.438000000000000278,1.220930301332661116
0.439000000000000279,1.198205723825799485
0.440000000000000280,1.175774326191675545
0.441000000000000281,1.153632241086123056
0.442000000000000282,1.131775679323684392
0.443000000000000282,1.110200928203310733
0.444000000000000283,1.088904349843326402
0.445000000000000284,1.067882379527184344
0.446000000000000285,1.047131524061372554
0.447000000000000286,1.026648360146681593
0.448000000000000287,1.006429532764166579
0.449000000000000288,0.986471753576797061
0.450000000000000289,0.966771799347925231
0.451000000000000290,0.947326510377523912
0.452000000000000290,0.928132788957056531
0.453000000000000291,0.909187597843889583
0.454000000000000292,0.890487958755924680
0.455000000000000293,0.872030950887220824
0.456000000000000294,0.853813709445210400
0.457000000000000295,0.835833424210086329
0.458000000000000296,0.818087338116910923
0.459000000000000297,0.800572745860882007
0.460000000000000298,0.783286992526185943
0.461000000000000298,0.766227472238812823
0.462000000000000299,0.749391626843614822
0.463000000000000300,0.732776944605931346
0.464000000000000301,0.716380958937948620
0.465000000000000302,0.700201247150024741
0.466000000000000303,0.684235429227102676
0.467000000000000304,0.668481166630301438
0.468000000000000305,0.652936161123807812
0.469000000000000306,0.637598153627050857
0.470000000000000306,0.622464923092160838
0.471000000000000307,0.607534285406754249
0.472000000000000308,0.592804092321901677
0.473000000000000309,0.578272230405231458
0.474000000000000310,0.563936620019087731
0.475000000000000311,0.549795214323536729
0.476000000000000312,0.535845998304148141
0.477000000000000313,0.522086987824281978
0.478000000000000314,0.508516228701775042
0.479000000000000314,0.495131795809718667
0.480000000000000315,0.481931792201167108
0.481000000000000316,0.468914348257465363
0.482000000000000317,0.456077620859975830
0.483000000000000318,0.443419792584884509
0.484000000000000319,0.430939070920814071
0.485000000000000320,0.418633687508946140
0.486000000000000321,0.406501897405298074
0.487000000000000322,0.394541978364857937
0.488000000000000322,0.382752230147265116
0.489000000000000323,0.371130973843620371
0.490000000000000324,0.359676551224144547
0.491000000000000325,0.348387324106291696
0.492000000000000326,0.337261673742982326
0.493000000000000327,0.326298000230541008
0.494000000000000328,0.315494721936033007
0.495000000000000329,0.304850274943553157
0.496000000000000330,0.294363112519177683
0.497000000000000330,0.284031704594071233
0.498000000000000331,0.273854537265534936
0.499000000000000332,0.263830112315455334
0.500000000000000333,0.253956946745853895
0.501000000000000334,0.244233572331169324
0.502000000000000335,0.234658535186820061
0.503000000000000336,0.225230395353735569
0.504000000000000337,0.215947726398426271
0.505000000000000338,0.206809115028249030
0.506000000000000338,0.197813160721471037
0.507000000000000339,0.188958475371752976
0.508000000000000340,0.180243682946726852
0.509000000000000341,0.171667419160206058
0.510000000000000342,0.163228331157787510
0.511000000000000343,0.154925077215358920
0.512000000000000344,0.146756326450257102
0.513000000000000345,0.138720758544661427
0.514000000000000346,0.130817063480879903
0.515000000000000346,0.123043941288215206
0.516000000000000347,0.115400101801046276
0.517000000000000348,0.107884264427774546
0.518000000000000349,0.100495157930345802
0.519000000000000350,0.093231520213976876
0.520000000000000351,0.086092098126820990
0.521000000000000352,0.079075647269169297
0.522000000000000353,0.072180931812001498
0.523000000000000353,0.065406724324450272
0.524000000000000354,0.058751805609983374
0.525000000000000355,0.052214964550943731
0.526000000000000356,0.045794997961207964
0.527000000000000357,0.039490710446632674
0.528000000000000358,0.033300914273055440
0.529000000000000359,0.027224429241541503
0.530000000000000360,0.021260082570656494
0.531000000000000361,0.015406708785450394
0.532000000000000361,0.009663149612938635
0.533000000000000362,0.004028253883819605
0.534000000000000363,-0.001499122559808058
0.535000000000000364,-0.006920116950995864
0.536000000000000365,-0.012235859678937411
0.537000000000000366,-0.017447474364698769
0.538000000000000367,-0.022556077931822106
0.539000000000000368,-0.027562780672128574
0.540000000000000369,-0.032468686306804093
0.541000000000000369,-0.037274892043096454
0.542000000000000370,-0.041982488626700419
0.543000000000000371,-0.046592560390138031
0.544000000000000372,-0.051106185297234027
0.545000000000000373,-0.055524434983927728
0.546000000000000374,-0.059848374795567372
0.547000000000000375,-0.064079063820858914
0.548000000000000376,-0.068217554922673354
0.549000000000000377,-0.072264894765815157
0.550000000000000377,-0.076222123841987705
0.551000000000000378,-0.080090276492013168
0.552000000000000379,-0.083870380925560456
0.553000000000000380,-0.087563459238431299
0.554000000000000381,-0.091170527427601039
0.555000000000000382,-0.094692595404154478
0.556000000000000383,-0.098130667004176941
0.557000000000000384,-0.101485739997836139
0.558000000000000385,-0.104758806096662285
0.559000000000000385,-0.107950850959235650
0.560000000000000386,-0.111062854195353000
0.561000000000000387,-0.114095789368777845
0.562000000000000388,-0.117050623998694731
0.563000000000000389,-0.119928319559985105
0.564000000000000390,-0.122729831482381882
0.565000000000000391,-0.125456109148634087
0.566000000000000392,-0.128108095891754925
0.567000000000000393,-0.130686728991460804
0.568000000000000393,-0.133192939669847410
0.569000000000000394,-0.135627653086421607
0.570000000000000395,-0.137991788332567644
0.571000000000000396,-0.140286258425470989
0.572000000000000397,-0.142511970301650859
0.573000000000000398,-0.144669824810099323
0.574000000000000399,-0.146760716705137073
0.575000000000000400,-0.148785534639026329
0.576000000000000401,-0.150745161154397234
0.577000000000000401,-0.152640472676589395
0.578000000000000402,-0.154472339505899947
0.579000000000000403,-0.156241625809812629
0.580000000000000404,-0.157949189615313151
0.581000000000000405,-0.159595882801229549
0.582000000000000406,-0.161182551090753690
0.583000000000000407,-0.162710034044100976
0.584000000000000408,-0.164179165051406506
0.585000000000000409,-0.165590771325864750
0.586000000000000409,-0.166945673897144847
0.587000000000000410,-0.168244687605166587
0.588000000000000411,-0.169488621094175812
0.589000000000000412,-0.170678276807263302
0.590000000000000413,-0.171814450981249783
0.591000000000000414,-0.172897933642036095
0.592000000000000415,-0.173929508600421140
0.593000000000000416,-0.174909953448390804
0.594000000000000417,-0.175840039555921090
0.595000000000000417,-0.176720532068342262
0.596000000000000418,-0.177552189904196356
0.597000000000000419,-0.178335765753720121
0.598000000000000420,-0.179072006077856893
0.599000000000000421,-0.179761651107908926
0.600000000000000422,-0.180405434845777590
0.601000000000000423,-0.181004085064812276
0.602000000000000424,-0.181558323311322600
0.603000000000000425,-0.182068864906720501
0.604000000000000425,-0.182536418950290130
0.605000000000000426,-0.182961688322644311
0.606000000000000427,-0.183345369689846854
0.607000000000000428,-0.183688153508153429
0.608000000000000429,-0.183990724029511249
0.609000000000000430,-0.184253759307640624
0.610000000000000431,-0.184477931204875129
0.611000000000000432,-0.184663905399633677
0.612000000000000433,-0.184812341394586049
0.613000000000000433,-0.184923892525515887
0.614000000000000434,-0.184999205970847735
0.615000000000000435,-0.185038922761855767
0.616000000000000436,-0.185043677793543970
0.617000000000000437,-0.185014099836232626
