# hydroxyapatite-010-ph10_CS-4945-AC
# h[nm],U(h)[kJ/mol]
0.149999999999999994,121.924440664639405441
0.150999999999999995,119.291481060562020389
0.151999999999999996,116.864772607837352325
0.152999999999999997,114.553247145101721571
0.153999999999999998,112.312802785695566854
0.154999999999999999,110.124322633657200754
0.156000000000000000,107.980881002730484397
0.157000000000000001,105.880662562585115438
0.158000000000000002,103.823330437104914381
0.159000000000000002,101.808394784592010751
0.160000000000000003,99.834676269599370357
0.161000000000000004,97.900315095042827807
0.162000000000000005,96.003005964757335278
0.163000000000000006,94.140284172246850858
0.164000000000000007,92.309776673946913661
0.165000000000000008,90.509384114247637854
0.166000000000000009,88.737388580690520712
0.167000000000000010,86.992496232376737453
0.168000000000000010,85.273829684198261702
0.169000000000000011,83.580885900664071642
0.170000000000000012,81.913473720788331889
0.171000000000000013,80.271642439253866996
0.172000000000000014,78.655609943336045831
0.173000000000000015,77.065696197220077579
0.174000000000000016,75.502265582124039156
0.175000000000000017,73.965679805264684887
0.176000000000000018,72.456261765938961616
0.177000000000000018,70.974269855226353343
0.178000000000000019,69.519881593602605108
0.179000000000000020,68.093185203182756027
0.180000000000000021,66.694177599765183118
0.181000000000000022,65.322767315558365908
0.182000000000000023,63.978780978618921438
0.183000000000000024,62.661972142312684753
0.184000000000000025,61.372031449662912905
0.185000000000000026,60.108597313354266589
0.186000000000000026,58.871266478980977865
0.187000000000000027,57.659604008488074101
0.188000000000000028,56.473152368117027322
0.189000000000000029,55.311439428780616367
0.190000000000000030,54.173985286855369736
0.191000000000000031,53.060307891364217880
0.192000000000000032,51.969927521672765636
0.193000000000000033,50.902370200759634145
0.194000000000000034,49.857170155598609540
0.195000000000000034,48.833871450871399134
0.196000000000000035,47.832028927606309310
0.197000000000000036,46.851208576630021696
0.198000000000000037,45.890987469860760939
0.199000000000000038,44.950953362091510712
0.200000000000000039,44.030704063357227085
0.201000000000000040,43.129846668321313530
0.202000000000000041,42.247996715191760586
0.203000000000000042,41.384777333111216535
0.204000000000000042,40.539818424204909775
0.205000000000000043,39.712755914818941960
0.206000000000000044,38.903231100116279606
0.207000000000000045,38.110890097206358007
0.208000000000000046,37.335383414379784028
0.209000000000000047,36.576365637756886429
0.210000000000000048,35.833495231661721903
0.211000000000000049,35.106434445191794680
0.212000000000000050,34.394849314647672145
0.213000000000000050,33.698409749588407180
0.214000000000000051,33.016789689156610166
0.215000000000000052,32.349667314845675037
0.216000000000000053,31.696725305944632112
0.217000000000000054,31.057651124380232233
0.218000000000000055,30.432137316486006284
0.219000000000000056,29.819881820275487172
0.220000000000000057,29.220588268003588439
0.221000000000000058,28.633966275107564314
0.222000000000000058,28.059731707964033376
0.223000000000000059,27.497606924246110083
0.224000000000000060,26.947320980972325088
0.225000000000000061,26.408609806583221769
0.226000000000000062,25.881216334540340540
0.227000000000000063,25.364890597001839012
0.228000000000000064,24.859389778080991817
0.229000000000000065,24.364478227031270308
0.230000000000000066,23.879927432426846678
0.231000000000000066,23.405515959018810435
0.232000000000000067,22.941029349451476094
0.233000000000000068,22.486259993424077663
0.234000000000000069,22.041006967189311183
0.235000000000000070,21.605075846498273506
0.236000000000000071,21.178278496240722006
0.237000000000000072,20.760432840098136609
0.238000000000000073,20.351362613533602541
0.239000000000000073,19.950897103396794563
0.240000000000000074,19.558870877329056270
0.241000000000000075,19.175123506024988274
0.242000000000000076,18.799499281246415450
0.243000000000000077,18.431846932300580022
0.244000000000000078,18.072019343492446097
0.245000000000000079,17.719873274846740685
0.246000000000000080,17.375269088173372012
0.247000000000000081,17.038070480324005729
0.248000000000000081,16.708144225262500981
0.249000000000000082,16.385359926349977400
0.250000000000000111,16.069589780029041037
0.251000000000000112,15.760708351883938150
0.252000000000000113,15.458592365854920914
0.253000000000000114,15.163120507198840414
0.254000000000000115,14.874173239612520803
0.255000000000000115,14.591632636774289011
0.256000000000000116,14.315382228410033605
0.257000000000000117,14.045306860855291120
0.258000000000000118,13.781292571963643212
0.259000000000000119,13.523226480103136993
0.260000000000000120,13.270996686887409410
0.261000000000000121,13.024492193205688295
0.262000000000000122,12.783602828044937638
0.263000000000000123,12.548219189538594165
0.264000000000000123,12.318232597627453373
0.265000000000000124,12.093535057680188771
0.266000000000000125,11.874019234391628430
0.267000000000000126,11.659578435256516826
0.268000000000000127,11.450106602903613151
0.269000000000000128,11.245498315569520287
0.270000000000000129,11.045648794992342090
0.271000000000000130,10.850453921011649072
0.272000000000000131,10.659810252172814415
0.273000000000000131,10.473615051649540320
0.274000000000000132,10.291766317818233034
0.275000000000000133,10.114162818840430447
0.276000000000000134,9.940704130635308999
0.277000000000000135,9.771290677651954582
0.278000000000000136,9.605823775880498516
0.279000000000000137,9.444205677571996915
0.280000000000000138,9.286339617168852811
0.281000000000000139,9.132129857979622400
0.282000000000000139,8.981481739164928868
0.283000000000000140,8.834301722633636444
0.284000000000000141,8.690497439480935782
0.285000000000000142,8.549977735631856035
0.286000000000000143,8.412652716385030871
0.287000000000000144,8.278433789582088309
0.288000000000000145,8.147233707157401028
0.289000000000000146,8.018966604851788915
0.290000000000000147,7.893548039900648128
0.291000000000000147,7.770895026533627181
0.292000000000000148,7.650926069147351072
0.293000000000000149,7.533561193036613979
0.294000000000000150,7.418721972591532321
0.295000000000000151,7.306331556888875589
0.296000000000000152,7.196314692625509046
0.297000000000000153,7.088597744359891983
0.298000000000000154,6.983108712044338695
0.299000000000000155,6.879777245846393718
0.300000000000000155,6.778534658271655466
0.301000000000000156,6.679313933613656218
0.302000000000000157,6.582049734767785765
0.303000000000000158,6.486678407457210582
0.304000000000000159,6.393137981927855762
0.305000000000000160,6.301368172178312577
0.306000000000000161,6.211310372797560930
0.307000000000000162,6.122907653490069713
0.308000000000000163,6.036104751373239097
0.309000000000000163,5.950848061136910339
0.310000000000000164,5.867085623158380336
0.311000000000000165,5.784767109669599172
0.312000000000000166,5.703843809075541671
0.313000000000000167,5.624268608524515045
0.314000000000000168,5.545995974832345965
0.315000000000000169,5.468981933862941069
0.316000000000000170,5.393184048467771774
0.317000000000000171,5.318561395086531363
0.318000000000000171,5.245074539110381018
0.319000000000000172,5.172685509107941115
0.320000000000000173,5.101357770012782566
0.321000000000000174,5.031056195369268735
0.322000000000000175,4.961747038731488146
0.323000000000000176,4.893397904307740909
0.324000000000000177,4.825977716940434092
0.325000000000000178,4.759456691508582082
0.326000000000000179,4.693806301837157413
0.327000000000000179,4.628999249194650112
0.328000000000000180,4.565009430457015682
0.329000000000000181,4.501811906013012177
0.330000000000000182,4.439382867482836836
0.331000000000000183,4.377699605318452925
0.332000000000000184,4.316740476350949152
0.333000000000000185,4.256484871346866150
0.334000000000000186,4.196913182632085793
0.335000000000000187,4.138006771838713682
0.336000000000000187,4.079747937827034932
0.337000000000000188,4.022119884831578673
0.338000000000000189,3.965106690876962769
0.339000000000000190,3.908693276506278291
0.340000000000000191,3.852865373861765086
0.341000000000000192,3.797609496154371378
0.342000000000000193,3.742912907556212865
0.343000000000000194,3.688763593546854569
0.344000000000000195,3.635150231742015681
0.345000000000000195,3.582062163230227636
0.346000000000000196,3.529489364440889343
0.347000000000000197,3.477422419564468292
0.348000000000000198,3.425852493543375399
0.349000000000000199,3.374771305649808539
0.350000000000000200,3.324171103664691262
0.351000000000000201,3.274044638669804552
0.352000000000000202,3.224385140463341681
0.353000000000000203,3.175186293607130228
0.354000000000000203,3.126442214112143070
0.355000000000000204,3.078147426767217532
0.356000000000000205,3.030296843114344885
0.357000000000000206,2.982885740072314551
0.358000000000000207,2.935909739209351166
0.359000000000000208,2.889364786663833229
0.360000000000000209,2.843247133711026553
0.361000000000000210,2.797553317972801601
0.362000000000000210,2.752280145265960876
0.363000000000000211,2.707424672084057349
0.364000000000000212,2.662984188706535971
0.365000000000000213,2.618956202928266030
0.366000000000000214,2.575338424401724780
0.367000000000000215,2.532128749583431038
0.368000000000000216,2.489325247275455233
0.369000000000000217,2.446926144752514354
0.370000000000000218,2.404929814464298765
0.371000000000000218,2.363334761302536169
0.372000000000000219,2.322139610421629641
0.373000000000000220,2.281343095601461091
0.374000000000000221,2.240944048140630418
0.375000000000000222,2.200941386268154609
0.376000000000000223,2.161334105061234023
0.377000000000000224,2.122121266856789035
0.378000000000000225,2.083301992144082515
0.379000000000000226,2.044875450925773386
0.380000000000000226,2.006840854534494234
0.381000000000000227,1.969197447892244268
0.382000000000000228,1.931944502199604896
0.383000000000000229,1.895081308041933310
0.384000000000000230,1.858607168899757411
0.385000000000000231,1.822521395050438642
0.386000000000000232,1.786823297848555425
0.387000000000000233,1.751512184372223002
0.388000000000000234,1.716587352422987767
0.389000000000000234,1.682048085866789888
0.390000000000000235,1.647893650303868140
0.391000000000000236,1.614123289055471089
0.392000000000000237,1.580736219455513680
0.393000000000000238,1.547731629435447287
0.394000000000000239,1.515108674390865717
0.395000000000000240,1.482866474318503380
0.396000000000000241,1.451004111212545800
0.397000000000000242,1.419520626709414923
0.398000000000000242,1.388415019970307807
0.399000000000000243,1.357686245791190016
0.400000000000000244,1.327333212929978634
0.401000000000000245,1.297354782640993465
0.402000000000000246,1.267749767407091444
0.403000000000000247,1.238516929859907689
0.404000000000000248,1.209654981879112023
0.405000000000000249,1.181162583861693705
0.406000000000000250,1.153038344152622852
0.407000000000000250,1.125280818628413781
0.408000000000000251,1.097888510425422570
0.409000000000000252,1.070859869804932973
0.410000000000000253,1.044193294147337081
0.411000000000000254,1.017887128067957336
0.412000000000000255,0.991939663647339209
0.413000000000000256,0.966349140768969384
0.414000000000000257,0.941113747557810520
0.415000000000000258,0.916231620913029898
0.416000000000000258,0.891700847128784724
0.417000000000000259,0.867519462596929913
0.418000000000000260,0.843685454585907157
0.419000000000000261,0.820196762090186327
0.420000000000000262,0.797051276744919490
0.421000000000000263,0.774246843800580509
0.422000000000000264,0.751781263152748069
0.423000000000000265,0.729652290422163396
0.424000000000000266,0.707857638080559903
0.425000000000000266,0.686394976617938801
0.426000000000000267,0.665261935747045063
0.427000000000000268,0.644456105641114219
0.428000000000000269,0.623975038201067589
0.429000000000000270,0.603816248348510776
0.430000000000000271,0.583977215341090927
0.431000000000000272,0.564455384106892888
0.432000000000000273,0.545248166594776151
0.433000000000000274,0.526352943137629148
0.434000000000000274,0.507767063825726006
0.435000000000000275,0.489487849887534132
0.436000000000000276,0.471512595075372132
0.437000000000000277,0.453838567053563069
0.438000000000000278,0.436463008786807549
0.439000000000000279,0.419383139926596371
0.440000000000000280,0.402596158193685660
0.441000000000000281,0.386099240754743500
0.442000000000000282,0.369889545591305213
0.443000000000000282,0.353964212859494975
0.444000000000000283,0.338320366238821058
0.445000000000000284,0.322955114268670962
0.446000000000000285,0.307865551671126836
0.447000000000000286,0.293048760658770335
0.448000000000000287,0.278501812226431722
0.449000000000000288,0.264221767425652732
0.450000000000000289,0.250205678620974648
0.451000000000000290,0.236450590727077692
0.452000000000000290,0.222953542425918444
0.453000000000000291,0.209711567363148055
0.454000000000000292,0.196721695323058249
0.455000000000000293,0.183980953381458923
0.456000000000000294,0.171486367035924486
0.457000000000000295,0.159234961312870599
0.458000000000000296,0.147223761851070500
0.459000000000000297,0.135449795961178843
0.460000000000000298,0.123910093660951098
0.461000000000000298,0.112601688685878096
0.462000000000000299,0.101521619474979508
0.463000000000000300,0.090666930131608314
0.464000000000000301,0.080034671359064141
0.465000000000000302,0.069621901370971975
0.466000000000000303,0.059425686776323913
0.467000000000000304,0.049443103439155589
0.468000000000000305,0.039671237312894327
0.469000000000000306,0.030107185249394552
0.470000000000000306,0.020748055782714082
0.471000000000000307,0.011590969887795798
0.472000000000000308,0.002633061714110241
0.473000000000000309,-0.006128520705560980
0.474000000000000310,-0.014696614770990647
0.475000000000000311,-0.023074042654883574
0.476000000000000312,-0.031263610667491191
0.477000000000000313,-0.039268108645270104
0.478000000000000314,-0.047090309363269654
0.479000000000000314,-0.054732967971049186
0.480000000000000315,-0.062198821451757438
0.481000000000000316,-0.069490588104137524
0.482000000000000317,-0.076610967047094289
0.483000000000000318,-0.083562637746521867
0.484000000000000319,-0.090348259564038885
0.485000000000000320,-0.096970471327292002
0.486000000000000321,-0.103431890921467456
0.487000000000000322,-0.109735114901652553
0.488000000000000322,-0.115882718125637357
0.489000000000000323,-0.121877253406847158
0.490000000000000324,-0.127721251186962176
0.491000000000000325,-0.133417219227866063
0.492000000000000326,-0.138967642322512047
0.493000000000000327,-0.144374982024347925
0.494000000000000328,-0.149641676394850348
0.495000000000000329,-0.154770139768833609
0.496000000000000330,-0.159762762537048075
0.497000000000000330,-0.164621910945792427
0.498000000000000331,-0.169349926912977067
0.499000000000000332,-0.173949127860388991
0.500000000000000333,-0.178421806561683993
0.501000000000000334,-0.182770231005692313
0.502000000000000335,-0.186996644274695228
0.503000000000000336,-0.191103264437238796
0.504000000000000337,-0.195092284455112258
0.505000000000000338,-0.198965872104082508
0.506000000000000338,-0.202726169908020670
0.507000000000000339,-0.206375295086025284
0.508000000000000340,-0.209915339512147275
0.509000000000000341,-0.213348369687396205
0.510000000000000342,-0.216676426723570209
0.511000000000000343,-0.219901526338640269
0.512000000000000344,-0.223025658863234388
0.513000000000000345,-0.226050789257920048
0.514000000000000346,-0.228978857140945458
0.515000000000000346,-0.231811776826021193
0.516000000000000347,-0.234551437369859839
0.517000000000000348,-0.237199702629137171
0.518000000000000349,-0.239758411326487009
0.519000000000000350,-0.242229377125279616
0.520000000000000351,-0.244614388712780961
0.521000000000000352,-0.246915209891466064
0.522000000000000353,-0.249133579678075895
0.523000000000000353,-0.251271212410214717
0.524000000000000354,-0.253329797860114669
0.525000000000000355,-0.255311001355308265
0.526000000000000356,-0.257216463905911130
0.527000000000000357,-0.259047802338249145
0.528000000000000358,-0.260806609434531711
0.529000000000000359,-0.262494454078327666
0.530000000000000360,-0.264112881405545397
0.531000000000000361,-0.265663412960702450
0.532000000000000361,-0.267147546858203466
0.533000000000000362,-0.268566757948381474
0.534000000000000363,-0.269922497988074328
0.535000000000000364,-0.271216195815504935
0.536000000000000365,-0.272449257529204902
0.537000000000000366,-0.273623066670814263
0.538000000000000367,-0.274738984411459441
0.539000000000000368,-0.275798349741602888
0.540000000000000369,-0.276802479664041257
0.541000000000000369,-0.277752669389965012
0.542000000000000370,-0.278650192537772734
0.543000000000000371,-0.279496301334547392
0.544000000000000372,-0.280292226819943369
0.545000000000000373,-0.281039179052338217
0.546000000000000374,-0.281738347317063154
0.547000000000000375,-0.282390900336528361
0.548000000000000376,-0.282997986482113439
0.549000000000000377,-0.283560733987627933
0.550000000000000377,-0.284080251164210373
0.551000000000000378,-0.284557626616489090
0.552000000000000379,-0.284993929459905149
0.553000000000000380,-0.285390209538994744
0.554000000000000381,-0.285747497646536674
0.555000000000000382,-0.286066805743452057
0.556000000000000383,-0.286349127179234719
0.557000000000000384,-0.286595436912930324
0.558000000000000385,-0.286806691734394492
0.559000000000000385,-0.286983830485836922
0.560000000000000386,-0.287127774283468029
0.561000000000000387,-0.287239426739170578
0.562000000000000388,-0.287319674182069384
0.563000000000000389,-0.287369385879943373
0.564000000000000390,-0.287389414260325826
0.565000000000000391,-0.287380595131248917
0.566000000000000392,-0.287343747901508406
0.567000000000000393,-0.287279675800402867
0.568000000000000393,-0.287189166096812942
0.569000000000000394,-0.287072990317586318
0.570000000000000395,-0.286931904465143717
0.571000000000000396,-0.286766649234197701
0.572000000000000397,-0.286577950227580980
0.573000000000000398,-0.286366518171050133
0.574000000000000399,-0.286133049127048900
0.575000000000000400,-0.285878224707347917
0.576000000000000401,-0.285602712284492466
0.577000000000000401,-0.285307165202056900
0.578000000000000402,-0.284992222983580457
0.579000000000000403,-0.284658511540169856
0.580000000000000404,-0.284306643376753931
0.581000000000000405,-0.283937217796867369
0.582000000000000406,-0.283550821106004769
0.583000000000000407,-0.283148026813432430
0.584000000000000408,-0.282729395832480968
0.585000000000000409,-0.282295476679235824
0.586000000000000409,-0.281846805669605627
0.587000000000000410,-0.281383907114776677
0.588000000000000411,-0.280907293514932654
0.589000000000000412,-0.280417465751326533
0.590000000000000413,-0.279914913276572364
0.591000000000000414,-0.279400114303204938
0.592000000000000415,-0.278873535990459498
0.593000000000000416,-0.278335634629238216
0.594000000000000417,-0.277786855825259027
0.595000000000000417,-0.277227634680395851
0.596000000000000418,-0.276658395972115001
0.597000000000000419,-0.276079554331096488
0.598000000000000420,-0.275491514416933314
0.599000000000000421,-0.274894671091968301
0.600000000000000422,-0.274289409593218403
0.601000000000000423,-0.273676105702371164
0.602000000000000424,-0.273055125913890195
0.603000000000000425,-0.272426827601191412
0.604000000000000425,-0.271791559180857623
0.605000000000000426,-0.271149660274953352
0.606000000000000427,-0.270501461871402615
0.607000000000000428,-0.269847286482375437
0.608000000000000429,-0.269187448300820142
0.609000000000000430,-0.268522253354958162
0.610000000000000431,-0.267851999660921269
0.611000000000000432,-0.267176977373399960
0.612000000000000433,-0.266497468934364878
0.613000000000000433,-0.265813749219877826
0.614000000000000434,-0.265126085684951773
0.615000000000000435,-0.264434738506493627
0.616000000000000436,-0.263739960724321765
0.617000000000000437,-0.263041998380302899
