# hydroxyapatite-010-ph10_CS-110510-AC
# h[nm],U(h)[kJ/mol]
0.149999999999999994,102.492040767444422045
0.150999999999999995,100.857652684451991831
0.151999999999999996,99.049887202006104303
0.152999999999999997,97.235595525461079092
0.153999999999999998,95.471204369154676783
0.154999999999999999,93.764226006960683435
0.156000000000000000,92.104935902638175094
0.157000000000000001,90.481115491129031625
0.158000000000000002,88.883683498523879507
0.159000000000000002,87.307814669385066964
0.160000000000000003,85.752135594964912002
0.161000000000000004,84.217366430805725486
0.162000000000000005,82.705059651714663005
0.163000000000000006,81.216684397939090445
0.164000000000000007,79.753094667668875672
0.165000000000000008,78.314322769424080661
0.166000000000000009,76.899606388892394193
0.167000000000000010,75.507557813255260726
0.168000000000000010,74.136399136350718209
0.169000000000000011,72.784207347374334063
0.170000000000000012,71.449132669892961189
0.171000000000000013,70.129569885443700628
0.172000000000000014,68.824274851704686284
0.173000000000000015,67.532427117888275347
0.174000000000000016,66.253644985663697753
0.175000000000000017,64.987962247011083150
0.176000000000000018,63.735776830359590406
0.177000000000000018,62.497781301774750773
0.178000000000000019,61.274884087153779433
0.179000000000000020,60.068128779146228169
0.180000000000000021,58.878617240462816085
0.181000000000000022,57.707440598073546312
0.182000000000000023,56.555620756050032583
0.183000000000000024,55.424063801488543390
0.184000000000000025,54.313525663115761688
0.185000000000000026,53.224589604877770910
0.186000000000000026,52.157654579512019666
0.187000000000000027,51.112933102803765451
0.188000000000000028,50.090457106646873342
0.189000000000000029,49.090090156172891511
0.190000000000000030,48.111544442729879734
0.191000000000000031,47.154401063073649425
0.192000000000000032,46.218132242227802919
0.193000000000000033,45.302124333500756848
0.194000000000000034,44.405700618444029715
0.195000000000000034,43.528143120002582123
0.196000000000000035,42.668712824838983977
0.197000000000000036,41.826667879618163681
0.198000000000000037,41.001279476979661354
0.199000000000000038,40.191845277877305875
0.200000000000000039,39.397700327212469062
0.201000000000000040,38.618225509567920994
0.202000000000000041,37.852853662460866246
0.203000000000000042,37.101073517477857422
0.204000000000000042,36.362431676840756722
0.205000000000000043,35.636532856438563499
0.206000000000000044,34.923038638225797570
0.207000000000000045,34.221664977160216381
0.208000000000000046,33.532178702425611050
0.209000000000000047,32.854393241297621842
0.210000000000000048,32.188163778207396604
0.211000000000000049,31.533382042694018565
0.212000000000000050,30.889970899162801032
0.213000000000000050,30.257878889653113674
0.214000000000000051,29.637074858950235523
0.215000000000000052,29.027542769980946957
0.216000000000000053,28.429276796992617449
0.217000000000000054,27.842276764886086937
0.218000000000000055,27.266543985500778291
0.219000000000000056,26.702077525789412960
0.220000000000000057,26.148870928746653419
0.221000000000000058,25.606909395688671083
0.222000000000000058,25.076167427981843616
0.223000000000000059,24.556606917521190070
0.224000000000000060,24.048175668060224552
0.225000000000000061,23.550806323777315754
0.226000000000000062,23.064415677096995694
0.227000000000000063,22.588904324631094767
0.228000000000000064,22.124156638025358035
0.229000000000000065,21.670041015352548897
0.230000000000000066,21.226410378354252373
0.231000000000000066,20.793102881170650420
0.232000000000000067,20.369942797096975085
0.233000000000000068,19.956741551256477862
0.234000000000000069,19.553298868786576747
0.235000000000000070,19.159404010108762151
0.236000000000000071,18.774837067016807879
0.237000000000000072,18.399370295602942349
0.238000000000000073,18.032769464391119385
0.239000000000000073,17.674795198409725572
0.240000000000000074,17.325204302270641676
0.241000000000000075,16.983751047595799122
0.242000000000000076,16.650188412316733633
0.243000000000000077,16.324269261446808343
0.244000000000000078,16.005747460874243160
0.245000000000000079,15.694378917534795193
0.246000000000000080,15.389922540989687150
0.247000000000000081,15.092141122952352106
0.248000000000000081,14.800802132677722156
0.249000000000000082,14.515678427349905988
0.250000000000000111,14.236548877683656400
0.251000000000000112,13.963198909896277655
0.252000000000000113,13.695420966015785069
0.253000000000000114,13.433014885177817277
0.254000000000000115,13.175788209132713646
0.255000000000000115,12.923556415647221129
0.256000000000000116,12.676143083848737447
0.257000000000000117,12.433379995834108911
0.258000000000000118,12.195107179057842473
0.259000000000000119,11.961172894134913136
0.260000000000000120,11.731433572748800387
0.261000000000000121,11.505753710354955643
0.262000000000000122,11.284005718319704670
0.263000000000000123,11.066069740042781433
0.264000000000000123,10.851833435483410284
0.265000000000000124,10.641191738353091623
0.266000000000000125,10.434046590056043513
0.267000000000000126,10.230306654258082943
0.268000000000000127,10.029887015749094914
0.269000000000000128,9.832708867038830292
0.270000000000000129,9.638699185893155885
0.271000000000000130,9.447790406781535921
0.272000000000000131,9.259920088969888496
0.273000000000000131,9.075030583757342839
0.274000000000000132,8.893068703124098917
0.275000000000000133,8.713985391831320371
0.276000000000000134,8.537735404794949190
0.277000000000000135,8.364276991344723911
0.278000000000000136,8.193571587777514154
0.279000000000000137,8.025583519422658796
0.280000000000000138,7.860279713255589051
0.281000000000000139,7.697629421925394233
0.282000000000000139,7.537603959902781980
0.283000000000000140,7.380176452306443480
0.284000000000000141,7.225321596828825577
0.285000000000000142,7.073015439056101528
0.286000000000000143,6.923235161361778189
0.287000000000000144,6.775958885448619462
0.288000000000000145,6.631165488518592888
0.289000000000000146,6.488834432966072541
0.290000000000000147,6.348945609413350510
0.291000000000000147,6.211479192841347086
0.292000000000000148,6.076415511509596357
0.293000000000000149,5.943734928309582166
0.294000000000000150,5.813417734152258376
0.295000000000000151,5.685444052954608196
0.296000000000000152,5.559793757760476574
0.297000000000000153,5.436446397507234352
0.298000000000000154,5.315381133931540880
0.299000000000000155,5.196576688094362240
0.300000000000000155,5.080011295996611942
0.301000000000000156,4.965662672752493734
0.302000000000000157,4.853507984786500806
0.303000000000000158,4.743523829522898971
0.304000000000000159,4.635686222041741189
0.305000000000000160,4.529970588183781288
0.306000000000000161,4.426351763596895417
0.307000000000000162,4.324803998229091562
0.308000000000000163,4.225300965787202045
0.309000000000000163,4.127815777695912125
0.310000000000000164,4.032321001108382319
0.311000000000000165,3.938788680537451903
0.312000000000000166,3.847190362694706156
0.313000000000000167,3.757497124143734712
0.314000000000000168,3.669679601393223578
0.315000000000000169,3.583708023075102833
0.316000000000000170,3.499552243872616319
0.317000000000000171,3.417181779882914050
0.318000000000000171,3.336565845118274698
0.319000000000000172,3.257673388869203990
0.320000000000000173,3.180473133671807062
0.321000000000000174,3.104933613640291412
0.322000000000000175,3.031023212943519507
0.323000000000000176,2.958710204222195106
0.324000000000000177,2.887962786760213341
0.325000000000000178,2.818749124240219395
0.326000000000000179,2.751037381929066772
0.327000000000000179,2.684795763154168124
0.328000000000000180,2.619992544946119661
0.329000000000000181,2.556596112736732263
0.330000000000000182,2.494574994014885139
0.331000000000000183,2.433897890854779700
0.332000000000000184,2.374533711243164369
0.333000000000000185,2.316451599143016793
0.334000000000000186,2.259620963241561142
0.335000000000000187,2.204011504340338767
0.336000000000000187,2.149593241353927819
0.337000000000000188,2.096336535892695530
0.338000000000000189,2.044212115412441744
0.339000000000000190,1.993191094921314077
0.340000000000000191,1.943244997241038829
0.341000000000000192,1.894345771825483471
0.342000000000000193,1.846465812145407837
0.343000000000000194,1.799577971653137265
0.344000000000000195,1.753655578345809207
0.345000000000000195,1.708672447949634243
0.346000000000000196,1.664602895751720713
0.347000000000000197,1.621421747109049516
0.348000000000000198,1.579104346667274061
0.349000000000000199,1.537626566324497013
0.350000000000000200,1.496964811977394394
0.351000000000000201,1.457096029088980282
0.352000000000000202,1.417997707118849648
0.353000000000000203,1.379647882858020091
0.354000000000000203,1.342025142711526398
0.355000000000000204,1.305108623972779602
0.356000000000000205,1.268878015134124793
0.357000000000000206,1.233313555278415352
0.358000000000000207,1.198396032596705796
0.359000000000000208,1.164106782076928637
0.360000000000000209,1.130427682408315260
0.361000000000000210,1.097341152146104060
0.362000000000000210,1.064830145180357901
0.363000000000000211,1.032878145552376337
0.364000000000000212,1.001469161661268759
0.365000000000000213,0.970587719902648138
0.366000000000000214,0.940218857780356521
0.367000000000000215,0.910348116531334961
0.368000000000000216,0.880961533302523803
0.369000000000000217,0.852045632917878826
0.370000000000000218,0.823587419272159726
0.371000000000000218,0.795574366387259757
0.372000000000000219,0.767994409165440928
0.373000000000000220,0.740835933872712404
0.374000000000000221,0.714087768384357502
0.375000000000000222,0.687739172223393869
0.376000000000000223,0.661779826421294848
0.377000000000000224,0.636199823229359751
0.378000000000000225,0.610989655707554369
0.379000000000000226,0.586140207216640952
0.380000000000000226,0.561642740837917209
0.381000000000000227,0.537488888743953730
0.382000000000000228,0.513670641542212425
0.383000000000000229,0.490180337612442174
0.384000000000000230,0.467010652457524267
0.385000000000000231,0.444154588086165092
0.386000000000000232,0.421605462444962609
0.387000000000000233,0.399356898915990133
0.388000000000000234,0.377402815895250265
0.389000000000000234,0.355737416466047507
0.390000000000000235,0.334355178180568424
0.391000000000000236,0.313250842961786513
0.392000000000000237,0.292419407137005039
0.393000000000000238,0.271856111613319684
0.394000000000000239,0.251556432204544156
0.395000000000000240,0.231516070118146539
0.396000000000000241,0.211730942610050793
0.397000000000000242,0.192197173814321498
0.398000000000000242,0.172911085753988503
0.399000000000000243,0.153869189538631240
0.400000000000000244,0.135068176753573688
0.401000000000000245,0.116504911044889553
0.402000000000000246,0.098176419903941187
0.403000000000000247,0.080079886654362317
0.404000000000000248,0.062212642644031403
0.405000000000000249,0.044572159643924539
0.406000000000000250,0.027156042455342012
0.407000000000000250,0.009962021726421600
0.408000000000000251,-0.007012053021505704
0.409000000000000252,-0.023768220157626696
0.410000000000000253,-0.040308412495709614
0.411000000000000254,-0.056634463639185187
0.412000000000000255,-0.072748114118211318
0.413000000000000256,-0.088651017320120110
0.414000000000000257,-0.104344745214750081
0.415000000000000258,-0.119830793876691238
0.416000000000000258,-0.135110588806465870
0.417000000000000259,-0.150185490053136195
0.418000000000000260,-0.165056797140856609
0.419000000000000261,-0.179725753802240096
0.420000000000000262,-0.194193552521441742
0.421000000000000263,-0.208461338890195969
0.422000000000000264,-0.222530215779982804
0.423000000000000265,-0.236401247333823950
0.424000000000000266,-0.250075462781241042
0.425000000000000266,-0.263553860079953295
0.426000000000000267,-0.276837409388102973
0.427000000000000268,-0.289927056370794467
0.428000000000000269,-0.302823725344797623
0.429000000000000270,-0.315528322265367200
0.430000000000000271,-0.328041737559121416
0.431000000000000272,-0.340364848806999576
0.432000000000000273,-0.352498523281293608
0.433000000000000274,-0.364443620340820895
0.434000000000000274,-0.376200993688271257
0.435000000000000275,-0.387771493493747399
0.436000000000000276,-0.399155968388584359
0.437000000000000277,-0.410355267333411100
0.438000000000000278,-0.421370241364481035
0.439000000000000279,-0.432201745222254519
0.440000000000000280,-0.442850638866128687
0.441000000000000281,-0.453317788879233241
0.442000000000000282,-0.463604069767189486
0.443000000000000282,-0.473710365154549229
0.444000000000000283,-0.483637568882768876
0.445000000000000284,-0.493386586013364159
0.446000000000000285,-0.502958333739889185
0.447000000000000286,-0.512353742212396379
0.448000000000000287,-0.521573755277793705
0.449000000000000288,-0.530619331139659534
0.450000000000000289,-0.539491442940840837
0.451000000000000290,-0.548191079272177695
0.452000000000000290,-0.556719244610636044
0.453000000000000291,-0.565076959689964742
0.454000000000000292,-0.573265261807058391
0.455000000000000293,-0.581285205067003208
0.456000000000000294,-0.589137860569796556
0.457000000000000295,-0.596824316541625599
0.458000000000000296,-0.604345678413494292
0.459000000000000297,-0.611703068849959064
0.460000000000000298,-0.618897627730616628
0.461000000000000298,-0.625930512086934732
0.462000000000000299,-0.632802895996940062
0.463000000000000300,-0.639515970440177828
0.464000000000000301,-0.646070943115338081
0.465000000000000302,-0.652469038222799669
0.466000000000000303,-0.658711496214328673
0.467000000000000304,-0.664799573512073971
0.468000000000000305,-0.670734542198906936
0.469000000000000306,-0.676517689682127221
0.470000000000000306,-0.682150318332477190
0.471000000000000307,-0.687633745100270866
0.472000000000000308,-0.692969301110496483
0.473000000000000309,-0.698158331238589502
0.474000000000000310,-0.703202193668523323
0.475000000000000311,-0.708102259434853942
0.476000000000000312,-0.712859911950215031
0.477000000000000313,-0.717476546519781544
0.478000000000000314,-0.721953569844049237
0.479000000000000314,-0.726292399511373477
0.480000000000000315,-0.730494463481471845
0.481000000000000316,-0.734561199561210465
0.482000000000000317,-0.738494054873797157
0.483000000000000318,-0.742294485322562148
0.484000000000000319,-0.745963955050372940
0.485000000000000320,-0.749503935895721285
0.486000000000000321,-0.752915906846481464
0.487000000000000322,-0.756201353492246819
0.488000000000000322,-0.759361767476112837
0.489000000000000323,-0.762398645946810172
0.490000000000000324,-0.765313491011914482
0.491000000000000325,-0.768107809192920987
0.492000000000000326,-0.770783110882873657
0.493000000000000327,-0.773340909807251009
0.494000000000000328,-0.775782722488693954
0.495000000000000329,-0.778110067716224818
0.496000000000000330,-0.780324466019435503
0.497000000000000330,-0.782427439148286386
0.498000000000000331,-0.784420509558850232
0.499000000000000332,-0.786305199905595553
0.500000000000000333,-0.788083032540567996
0.501000000000000334,-0.789755529019833591
0.502000000000000335,-0.791324209617624064
0.503000000000000336,-0.792790592848452214
0.504000000000000337,-0.794156194997546971
0.505000000000000338,-0.795422529659855826
0.506000000000000338,-0.796591107287906497
0.507000000000000339,-0.797663434748735689
0.508000000000000340,-0.798641014890084655
0.509000000000000341,-0.799525346116105817
0.510000000000000342,-0.800317921972653723
0.511000000000000343,-0.801020230742409134
0.512000000000000344,-0.801633755049868113
0.513000000000000345,-0.802159971476363864
0.514000000000000346,-0.802600350185208589
0.515000000000000346,-0.802956354556991769
0.516000000000000347,-0.803229440835109387
0.517000000000000348,-0.803421057781605663
0.518000000000000349,-0.803532646343269930
0.519000000000000350,-0.803565639328095771
0.520000000000000351,-0.803521461092014277
0.521000000000000352,-0.803401527235978463
0.522000000000000353,-0.803207244313278501
0.523000000000000353,-0.802940009547141287
0.524000000000000354,-0.802601210558509415
0.525000000000000355,-0.802192225103971035
0.526000000000000356,-0.801714420823753215
0.527000000000000357,-0.801169154999746502
0.528000000000000358,-0.800557774323421456
0.529000000000000359,-0.799881614673604080
0.530000000000000360,-0.799142000903960481
0.531000000000000361,-0.798340246640134810
0.532000000000000361,-0.797477654086396370
0.533000000000000362,-0.796555513841695317
0.534000000000000363,-0.795575104724995819
0.535000000000000364,-0.794537693609783879
0.536000000000000365,-0.793444535267578077
0.537000000000000366,-0.792296872220358050
0.538000000000000367,-0.791095934601709683
0.539000000000000368,-0.789842940026629692
0.540000000000000369,-0.788539093469743158
0.541000000000000369,-0.787185587151890798
0.542000000000000370,-0.785783600434827090
0.543000000000000371,-0.784334299723975503
0.544000000000000372,-0.782838838379018354
0.545000000000000373,-0.781298356632199376
0.546000000000000374,-0.779713981514165377
0.547000000000000375,-0.778086826787181995
0.548000000000000376,-0.776417992885597874
0.549000000000000377,-0.774708566863348769
0.550000000000000377,-0.772959622348384667
0.551000000000000378,-0.771172219503810874
0.552000000000000379,-0.769347404995643691
0.553000000000000380,-0.767486211966953880
0.554000000000000381,-0.765589660018272888
0.555000000000000382,-0.763658755194121186
0.556000000000000383,-0.761694489975421218
0.557000000000000384,-0.759697843277748919
0.558000000000000385,-0.757669780455140884
0.559000000000000385,-0.755611253309405595
0.560000000000000386,-0.753523200104721735
0.561000000000000387,-0.751406545587381847
0.562000000000000388,-0.749262201010526652
0.563000000000000389,-0.747091064163738938
0.564000000000000390,-0.744894019407301711
0.565000000000000391,-0.742671937711017804
0.566000000000000392,-0.740425676697400337
0.567000000000000393,-0.738156080689141625
0.568000000000000393,-0.735863980760645409
0.569000000000000394,-0.733550194793542554
0.570000000000000395,-0.731215527536029919
0.571000000000000396,-0.728860770665857416
0.572000000000000397,-0.726486702856904976
0.573000000000000398,-0.724094089849127154
0.574000000000000399,-0.721683684521804425
0.575000000000000400,-0.719256226969920309
0.576000000000000401,-0.716812444583560193
0.577000000000000401,-0.714353052130227595
0.578000000000000402,-0.711878751839897017
0.579000000000000403,-0.709390233492720679
0.580000000000000404,-0.706888174509293976
0.581000000000000405,-0.704373240043288273
0.582000000000000406,-0.701846083076421601
0.583000000000000407,-0.699307344515581741
0.584000000000000408,-0.696757653292049639
0.585000000000000409,-0.694197626462677464
0.586000000000000409,-0.691627869312923638
0.587000000000000410,-0.689048975461673430
0.588000000000000411,-0.686461526967674596
0.589000000000000412,-0.683866094437582395
0.590000000000000413,-0.681263237135427691
0.591000000000000414,-0.678653503093472943
0.592000000000000415,-0.676037429224351838
0.593000000000000416,-0.673415541434379983
0.594000000000000417,-0.670788354737970605
0.595000000000000417,-0.668156373373093748
0.596000000000000418,-0.665520090917615992
0.597000000000000419,-0.662879990406550434
0.598000000000000420,-0.660236544450026552
0.599000000000000421,-0.657590215352001350
0.600000000000000422,-0.654941455229569369
0.601000000000000423,-0.652290706132818809
0.602000000000000424,-0.649638400165183150
0.603000000000000425,-0.646984959604206211
0.604000000000000425,-0.644330797022627300
0.605000000000000426,-0.641676315409769882
0.606000000000000427,-0.639021908293158969
0.607000000000000428,-0.636367959860243748
0.608000000000000429,-0.633714845080302736
0.609000000000000430,-0.631062929826298413
0.610000000000000431,-0.628412570996801922
0.611000000000000432,-0.625764116637799517
0.612000000000000433,-0.623117906064395655
0.613000000000000433,-0.620474269982363658
0.614000000000000434,-0.617833530609467774
0.615000000000000435,-0.615196001796525005
