# hydroxyapatite-010-ph10_FURAN-AC
# h[nm],U(h)[kJ/mol]
0.149999999999999994,99.268585551813330881
0.150999999999999995,97.811666281200260187
0.151999999999999996,96.229339946893034607
0.152999999999999997,94.660785736936020385
0.153999999999999998,93.150750481800017155
0.154999999999999999,91.701985186880776268
0.156000000000000000,90.302589475156082699
0.157000000000000001,88.938929469087597113
0.158000000000000002,87.600671764530034125
0.159000000000000002,86.281830972455139772
0.160000000000000003,84.980061941458316710
0.161000000000000004,83.695402033572221967
0.162000000000000005,82.429056314961627550
0.163000000000000006,81.182467811026128857
0.164000000000000007,79.956726368747254696
0.165000000000000008,78.752278442356413279
0.166000000000000009,77.568864967847417802
0.167000000000000010,76.405609633518494661
0.168000000000000010,75.261189653837931246
0.169000000000000011,74.134036510716583734
0.170000000000000012,73.022530056009117061
0.171000000000000013,71.925163414835495246
0.172000000000000014,70.840667327570685075
0.173000000000000015,69.768090790213591390
0.174000000000000016,68.706840394427246110
0.175000000000000017,67.656684104508912014
0.176000000000000018,66.617726850993449261
0.177000000000000018,65.590365744261958980
0.178000000000000019,64.575232319795475178
0.179000000000000020,63.573128341415170439
0.180000000000000021,62.584960553367203318
0.181000000000000022,61.611678560880932309
0.182000000000000023,60.654218849374572642
0.183000000000000024,59.713456897521993483
0.184000000000000025,58.790168437927150080
0.185000000000000026,57.885000185886042345
0.186000000000000026,56.998449789782469566
0.187000000000000027,56.130854343610224078
0.188000000000000028,55.282386524471711198
0.189000000000000029,54.453057254457760905
0.190000000000000030,53.642723715415570496
0.191000000000000031,52.851101546167321032
0.192000000000000032,52.077780106126326132
0.193000000000000033,51.322239780787207053
0.194000000000000034,50.583870419657216644
0.195000000000000034,49.861990124819946857
0.196000000000000035,49.155863739830110148
0.197000000000000036,48.464720517498001584
0.198000000000000037,47.787770566641754044
0.199000000000000038,47.124219788903985773
0.200000000000000039,46.473283115345360272
0.201000000000000040,45.834195937828489775
0.202000000000000041,45.206223702044596280
0.203000000000000042,44.588669687828080157
0.204000000000000042,43.980881048962615409
0.205000000000000043,43.382253220077942046
0.206000000000000044,42.792232823692252452
0.207000000000000045,42.210319227254139207
0.208000000000000046,41.636064909469716611
0.209000000000000047,41.069074798499265455
0.210000000000000048,40.509004742934891397
0.211000000000000049,39.955559270882801570
0.212000000000000050,39.408488783915032627
0.213000000000000050,38.867586321956110851
0.214000000000000051,38.332684023040258126
0.215000000000000052,37.803649388915076202
0.216000000000000053,37.280381454175412159
0.217000000000000054,36.762806943384632063
0.218000000000000055,36.250876487796617198
0.219000000000000056,35.744560961069410610
0.220000000000000057,35.243847981932859170
0.221000000000000058,34.748738621260152115
0.222000000000000058,34.259244341462128602
0.223000000000000059,33.775384187613475717
0.224000000000000060,33.297182242227194138
0.225000000000000061,32.824665349099895195
0.226000000000000062,32.357861106111073468
0.227000000000000063,31.896796122221996228
0.228000000000000064,31.441494530118102801
0.229000000000000065,30.991976742902750175
0.230000000000000066,30.548258440906458588
0.231000000000000066,30.110349772949781766
0.232000000000000067,29.678254755216283201
0.233000000000000068,29.251970850184090267
0.234000000000000069,28.831488707762542134
0.235000000000000070,28.416792050822170523
0.236000000000000071,28.007857687633084254
0.237000000000000072,27.604655634284871013
0.238000000000000073,27.207149330904179863
0.239000000000000073,26.815295936370159069
0.240000000000000074,26.429046687214100331
0.241000000000000075,26.048347307448317167
0.242000000000000076,25.673138457167603121
0.243000000000000077,25.303356208884160594
0.244000000000000078,24.938932541670524756
0.245000000000000079,24.579795844279566097
0.246000000000000080,24.225871419471967982
0.247000000000000081,23.877081982797953685
0.248000000000000081,23.533348150045203084
0.249000000000000082,23.194588908470645805
0.250000000000000111,22.860722067777622613
0.251000000000000112,22.531664687578288664
0.252000000000000113,22.207333478793270132
0.253000000000000114,21.887645177087478032
0.254000000000000115,21.572516887021624399
0.255000000000000115,21.261866396117490297
0.256000000000000116,20.955612458492403505
0.257000000000000117,20.653675048117555946
0.258000000000000118,20.355975582100445109
0.259000000000000119,20.062437114685380379
0.260000000000000120,19.772984502912571259
0.261000000000000121,19.487544545079849456
0.262000000000000122,19.206046093313542400
0.263000000000000123,18.928420141682710920
0.264000000000000123,18.654599891384474830
0.265000000000000124,18.384520794593992576
0.266000000000000125,18.118120578611474514
0.267000000000000126,17.855339251955520297
0.268000000000000127,17.596119094048496834
0.269000000000000128,17.340404630119884644
0.270000000000000129,17.088142592918533325
0.271000000000000130,16.839281872777906557
0.272000000000000131,16.593773457521894699
0.273000000000000131,16.351570363633552319
0.274000000000000132,16.112627560038259134
0.275000000000000133,15.876901885776863566
0.276000000000000134,15.644351962765179920
0.277000000000000135,15.414938104755384174
0.278000000000000136,15.188622223532224353
0.279000000000000137,14.965367733295201091
0.280000000000000138,14.745139454096470644
0.281000000000000139,14.527903515124155120
0.282000000000000139,14.313627258543306198
0.283000000000000140,14.102279144531223665
0.284000000000000141,13.893828658071777582
0.285000000000000142,13.688246218004218591
0.286000000000000143,13.485503088756411572
0.287000000000000144,13.285571295130747416
0.288000000000000145,13.088423540452296834
0.289000000000000146,12.894033128335205873
0.290000000000000147,12.702373888272083136
0.291000000000000147,12.513420105204975386
0.292000000000000148,12.327146453193227771
0.293000000000000149,12.143527933254475215
0.294000000000000150,11.962539815419241052
0.295000000000000151,11.784157585007230651
0.296000000000000152,11.608356893104598839
0.297000000000000153,11.435113511195599045
0.298000000000000154,11.264403289879131975
0.299000000000000155,11.096202121580805766
0.300000000000000155,10.930485907153720149
0.301000000000000156,10.767230526246475364
0.302000000000000157,10.606411811304148785
0.303000000000000158,10.448005525057961762
0.304000000000000159,10.291987341350676388
0.305000000000000160,10.138332829138514413
0.306000000000000161,9.987017439505343930
0.307000000000000162,9.838016495521703320
0.308000000000000163,9.691305184779206883
0.309000000000000163,9.546858554430381005
0.310000000000000164,9.404651508564104034
0.311000000000000165,9.264658807748718417
0.312000000000000166,9.126855070576748830
0.313000000000000167,8.991214777048613271
0.314000000000000168,8.857712273636314748
0.315000000000000169,8.726321779872478146
0.316000000000000170,8.597017396314933890
0.317000000000000171,8.469773113742309789
0.318000000000000171,8.344562823441695087
0.319000000000000172,8.221360328455130428
0.320000000000000173,8.100139355657903550
0.321000000000000174,7.980873568547744767
0.322000000000000175,7.863536580630143824
0.323000000000000176,7.748101969291622204
0.324000000000000177,7.634543290058767973
0.325000000000000178,7.522834091147464264
0.326000000000000179,7.412947928212633819
0.327000000000000179,7.304858379215268371
0.328000000000000180,7.198539059329246648
0.329000000000000181,7.093963635816464830
0.330000000000000182,6.991105842804489434
0.331000000000000183,6.889939495906363121
0.332000000000000184,6.790438506627698878
0.333000000000000185,6.692576896511202911
0.334000000000000186,6.596328810973759005
0.335000000000000187,6.501668532795950917
0.336000000000000187,6.408570495228280706
0.337000000000000188,6.317009294682867093
0.338000000000000189,6.226959702983170253
0.339000000000000190,6.138396679148376833
0.340000000000000191,6.051295380692603310
0.341000000000000192,5.965631174422489025
0.342000000000000193,5.881379646719961940
0.343000000000000194,5.798516613299905309
0.344000000000000195,5.717018128435401358
0.345000000000000195,5.636860493645548864
0.346000000000000196,5.558020265843491181
0.347000000000000197,5.480474264944403373
0.348000000000000198,5.404199580935175717
0.349000000000000199,5.329173580409514166
0.350000000000000200,5.255373912573730877
0.351000000000000201,5.182778514730157049
0.352000000000000202,5.111365617246449666
0.353000000000000203,5.041113748020281449
0.354000000000000203,4.972001736450050835
0.355000000000000204,4.904008716923254241
0.356000000000000205,4.837114131834969299
0.357000000000000206,4.771297734149596792
0.358000000000000207,4.706539589519858957
0.359000000000000208,4.642820077977321880
0.360000000000000209,4.580119895209289638
0.361000000000000210,4.518420053437329997
0.362000000000000210,4.457701881912809583
0.363000000000000211,4.397947027045145951
0.364000000000000212,4.339137452178528420
0.365000000000000213,4.281255437032998934
0.366000000000000214,4.224283576825677677
0.367000000000000215,4.168204781088017619
0.368000000000000216,4.113002272194671960
0.369000000000000217,4.058659583619653510
0.370000000000000218,4.005160557935018240
0.371000000000000218,3.952489344567337692
0.372000000000000219,3.900630397326744436
0.373000000000000220,3.849568471723172625
0.374000000000000221,3.799288622084090239
0.375000000000000222,3.749776198487713152
0.376000000000000223,3.701016843525172018
0.377000000000000224,3.652996488904988404
0.378000000000000225,3.605701351912606434
0.379000000000000226,3.559117931737511675
0.380000000000000226,3.513233005679848642
0.381000000000000227,3.468033625248304386
0.382000000000000228,3.423507112160359078
0.383000000000000229,3.379641054255719812
0.384000000000000230,3.336423301333356850
0.385000000000000231,3.293841960921955803
0.386000000000000232,3.251885393993457996
0.387000000000000233,3.210542210628642756
0.388000000000000234,3.169801265643545918
0.389000000000000234,3.129651654184929299
0.390000000000000235,3.090082707302658882
0.391000000000000236,3.051083987506518547
0.392000000000000237,3.012645284314463101
0.393000000000000238,2.974756609799048768
0.394000000000000239,2.937408194138348971
0.395000000000000240,2.900590481177297786
0.396000000000000241,2.864294124005046793
0.397000000000000242,2.828509980553607583
0.398000000000000242,2.793229109222649331
0.399000000000000243,2.758442764535075753
0.400000000000000244,2.724142392827602954
0.401000000000000245,2.690319627980294115
0.402000000000000246,2.656966287188788023
0.403000000000000247,2.624074366782466861
0.404000000000000248,2.591636038091778893
0.405000000000000249,2.559643643367488064
0.406000000000000250,2.528089691754469293
0.407000000000000250,2.496966855322352075
0.408000000000000251,2.466267965155162223
0.409000000000000252,2.435986007501814932
0.410000000000000253,2.406114119989145372
0.411000000000000254,2.376645587898941425
0.412000000000000255,2.347573840510288612
0.413000000000000256,2.318892447508247745
0.414000000000000257,2.290595115459894249
0.415000000000000258,2.262675684358359085
0.416000000000000258,2.235128124235584934
0.417000000000000259,2.207946531844156013
0.418000000000000260,2.181125127408598985
0.419000000000000261,2.154658251446257999
0.420000000000000262,2.128540361657901947
0.421000000000000263,2.102766029887902288
0.422000000000000264,2.077329939153928606
0.423000000000000265,2.052226880745831927
0.424000000000000266,2.027451751393358759
0.425000000000000266,2.002999550502320147
0.426000000000000267,1.978865377458603358
0.427000000000000268,1.955044428999499262
0.428000000000000269,1.931531996651653982
0.429000000000000270,1.908323464234892741
0.430000000000000271,1.885414305431177606
0.431000000000000272,1.862800081417800069
0.432000000000000273,1.840476438563972916
0.433000000000000274,1.818439106189858823
0.434000000000000274,1.796683894387052671
0.435000000000000275,1.775206691899558820
0.436000000000000276,1.754003464064175732
0.437000000000000277,1.733070250809247259
0.438000000000000278,1.712403164710703862
0.439000000000000279,1.691998389104257594
0.440000000000000280,1.671852176252645039
0.441000000000000281,1.651960845566803560
0.442000000000000282,1.632320781879755156
0.443000000000000282,1.612928433772149672
0.444000000000000283,1.593780311948199024
0.445000000000000284,1.574872987660913548
0.446000000000000285,1.556203091185447418
0.447000000000000286,1.537767310339347659
0.448000000000000287,1.519562389048628726
0.449000000000000288,1.501585125958421640
0.450000000000000289,1.483832373087115908
0.451000000000000290,1.466301034522821123
0.452000000000000290,1.448988065160986993
0.453000000000000291,1.431890469482126838
0.454000000000000292,1.415005300368451291
0.455000000000000293,1.398329657958376160
0.456000000000000294,1.381860688537787540
0.457000000000000295,1.365595583466983953
0.458000000000000296,1.349531578142282306
0.459000000000000297,1.333665950991199223
0.460000000000000298,1.317996022500218967
0.461000000000000298,1.302519154274134561
0.462000000000000299,1.287232748125963333
0.463000000000000300,1.272134245196502977
0.464000000000000301,1.257221125102533366
0.465000000000000302,1.242490905112775712
0.466000000000000303,1.227941139350686051
0.467000000000000304,1.213569418023168200
0.468000000000000305,1.199373366674391761
0.469000000000000306,1.185350645463816965
0.470000000000000306,1.171498948467597279
0.471000000000000307,1.157816003002600347
0.472000000000000308,1.144299568972205972
0.473000000000000309,1.130947438233122382
0.474000000000000310,1.117757433982505377
0.475000000000000311,1.104727410164602741
0.476000000000000312,1.091855250896262008
0.477000000000000313,1.079138869910563958
0.478000000000000314,1.066576210017970316
0.479000000000000314,1.054165242584270690
0.480000000000000315,1.041903967024761846
0.481000000000000316,1.029790410313986326
0.482000000000000317,1.017822626510493489
0.483000000000000318,1.005998696296000361
0.484000000000000319,0.994316726528422734
0.485000000000000320,0.982774849808236595
0.486000000000000321,0.971371224057628879
0.487000000000000322,0.960104032111944505
0.488000000000000322,0.948971481322963051
0.489000000000000323,0.937971803173483387
0.490000000000000324,0.927103252902807484
0.491000000000000325,0.916364109142662420
0.492000000000000326,0.905752673563144817
0.493000000000000327,0.895267270528261272
0.494000000000000328,0.884906246760699844
0.495000000000000329,0.874667971015418821
0.496000000000000330,0.864550833761733584
0.497000000000000330,0.854553246873468120
0.498000000000000331,0.844673643326956602
0.499000000000000332,0.834910476906433607
0.500000000000000333,0.825262221916589267
0.501000000000000334,0.815727372901979386
0.502000000000000335,0.806304444372951457
0.503000000000000336,0.796991970537876071
0.504000000000000337,0.787788505041357334
0.505000000000000338,0.778692620708216321
0.506000000000000338,0.769702909292973469
0.507000000000000339,0.760817981234595764
0.508000000000000340,0.752036465416319855
0.509000000000000341,0.743357008930271346
0.510000000000000342,0.734778276846754452
0.511000000000000343,0.726298951987936481
0.512000000000000344,0.717917734705812549
0.513000000000000345,0.709633342664222622
0.514000000000000346,0.701444510624752660
0.515000000000000346,0.693349990236392877
0.516000000000000347,0.685348549828766140
0.517000000000000348,0.677438974208774969
0.518000000000000349,0.669620064460555442
0.519000000000000350,0.661890637748569821
0.520000000000000351,0.654249527123751506
0.521000000000000352,0.646695581332517255
0.522000000000000353,0.639227664628617021
0.523000000000000353,0.631844656587627007
0.524000000000000354,0.624545451924043427
0.525000000000000355,0.617328960310839725
0.526000000000000356,0.610194106201431219
0.527000000000000357,0.603139828653912802
0.528000000000000358,0.596165081157533860
0.529000000000000359,0.589268831461279619
0.530000000000000360,0.582450061404551689
0.531000000000000361,0.575707766749800953
0.532000000000000361,0.569040957017107663
0.533000000000000362,0.562448655320606283
0.534000000000000363,0.555929898206732220
0.535000000000000364,0.549483735494182168
0.536000000000000365,0.543109230115605635
0.537000000000000366,0.536805457960900290
0.538000000000000367,0.530571507722152114
0.539000000000000368,0.524406480740077896
0.540000000000000369,0.518309490852030486
0.541000000000000369,0.512279664241429677
0.542000000000000370,0.506316139288689349
0.543000000000000371,0.500418066423504726
0.544000000000000372,0.494584607978541757
0.545000000000000373,0.488814938044462743
0.546000000000000374,0.483108242326273918
0.547000000000000375,0.477463718000975423
0.548000000000000376,0.471880573576473838
0.549000000000000377,0.466358028751755416
0.550000000000000377,0.460895314278270685
0.551000000000000378,0.455491671822560673
0.552000000000000379,0.450146353830051194
0.553000000000000380,0.444858623390038843
0.554000000000000381,0.439627754101849288
0.555000000000000382,0.434453029942121927
0.556000000000000383,0.429333745133271716
0.557000000000000384,0.424269204013031864
0.558000000000000385,0.419258720905165638
0.559000000000000385,0.414301619991245818
0.560000000000000386,0.409397235183552310
0.561000000000000387,0.404544909999059399
0.562000000000000388,0.399743997434516163
0.563000000000000389,0.394993859842584005
0.564000000000000390,0.390293868809068578
0.565000000000000391,0.385643405031209474
0.566000000000000392,0.381041858197039562
0.567000000000000393,0.376488626865787657
0.568000000000000393,0.371983118349354769
0.569000000000000394,0.367524748594832584
0.570000000000000395,0.363112942068063826
0.571000000000000396,0.358747131638271100
0.572000000000000397,0.354426758463693148
0.573000000000000398,0.350151271878294423
0.574000000000000399,0.345920129279493282
0.575000000000000400,0.341732796016933460
0.576000000000000401,0.337588745282302316
0.577000000000000401,0.333487458000151282
0.578000000000000402,0.329428422719774183
0.579000000000000403,0.325411135508123117
0.580000000000000404,0.321435099843713878
0.581000000000000405,0.317499826511606908
0.582000000000000406,0.313604833499376068
0.583000000000000407,0.309749645894127290
0.584000000000000408,0.305933795780531148
0.585000000000000409,0.302156822139875103
0.586000000000000409,0.298418270750151593
0.587000000000000410,0.294717694087138937
0.588000000000000411,0.291054651226540284
0.589000000000000412,0.287428707747094947
0.590000000000000413,0.283839435634742177
0.591000000000000414,0.280286413187779915
0.592000000000000415,0.276769224923034129
0.593000000000000416,0.273287461483054106
0.594000000000000417,0.269840719544303109
0.595000000000000417,0.266428601726348746
0.596000000000000418,0.263050716502081949
0.597000000000000419,0.259706678108907796
0.598000000000000420,0.256396106460962780
0.599000000000000421,0.253118627062306811
0.600000000000000422,0.249873870921117541
0.601000000000000423,0.246661474464888453
0.602000000000000424,0.243481079456594030
0.603000000000000425,0.240332332911839419
0.604000000000000425,0.237214887017020815
0.605000000000000426,0.234128399048431524
0.606000000000000427,0.231072531292346811
0.607000000000000428,0.228046950966117462
0.608000000000000429,0.225051330140154354
0.609000000000000430,0.222085345660968908
0.610000000000000431,0.219148679075089448
0.611000000000000432,0.216241016553984144
0.612000000000000433,0.213362048819915495
0.613000000000000433,0.210511471072734657
0.614000000000000434,0.207688982917626858
0.615000000000000435,0.204894288293783783
0.616000000000000436,0.202127095404027735
0.617000000000000437,0.199387116645319773
0.618000000000000438,0.196674068540225483
0.619000000000000439,0.193987671669286765
0.620000000000000440,0.191327650604290023
