# hydroxyapatite-010-ph10_HUMICACID-NEUTRAL-AC
# h[nm],U(h)[kJ/mol]
0.149999999999999994,168.978531215763609907
0.150999999999999995,167.719086322931531186
0.151999999999999996,165.413202198770278528
0.152999999999999997,162.873445651743338658
0.153999999999999998,160.403439835221917065
0.154999999999999999,158.066617539984378027
0.156000000000000000,155.831389125578368748
0.157000000000000001,153.643632089963119824
0.158000000000000002,151.458196450992801374
0.159000000000000002,149.248671246543779034
0.160000000000000003,147.006719111388918009
0.161000000000000004,144.737323329590282128
0.162000000000000005,142.453267462521665720
0.163000000000000006,140.170386252130782623
0.164000000000000007,137.904126697112360489
0.165000000000000008,135.667437699637446258
0.166000000000000009,133.469770324002638517
0.167000000000000010,131.316894838914805632
0.168000000000000010,129.211248846521556288
0.169000000000000011,127.152577134823900451
0.170000000000000012,125.138682243176575071
0.171000000000000013,123.166161181252192591
0.172000000000000014,121.231051804389693416
0.173000000000000015,119.329349859193186489
0.174000000000000016,117.457384862364705214
0.175000000000000017,115.612061094279809481
0.176000000000000018,113.790980831381347116
0.177000000000000018,111.992472284013643957
0.178000000000000019,110.215546141524583845
0.179000000000000020,108.459803478510053765
0.180000000000000021,106.725315084396839893
0.181000000000000022,105.012488818237741839
0.182000000000000023,103.321937909828420743
0.183000000000000024,101.654359591016472564
0.184000000000000025,100.010430268436323331
0.185000000000000026,98.390720755783007689
0.186000000000000026,96.795632909663737564
0.187000000000000027,95.225357346901148503
0.188000000000000028,93.679850720163599931
0.189000000000000029,92.158830232839179075
0.190000000000000030,90.661782615795885931
0.191000000000000031,89.187984600452978157
0.192000000000000032,87.736531941003249813
0.193000000000000033,86.306374207029094237
0.194000000000000034,84.896352837580380424
0.195000000000000034,83.505240278820650701
0.196000000000000035,82.131778387485397275
0.197000000000000036,80.774714646911348837
0.198000000000000037,79.432835093084975142
0.199000000000000038,78.104993172367073839
0.200000000000000039,76.790134042212358167
0.201000000000000040,75.487314076922430672
0.202000000000000041,74.195715550710318098
0.203000000000000042,72.914656640720721725
0.204000000000000042,71.643597025267723666
0.205000000000000043,70.382139450584602969
0.206000000000000044,69.130027706598838222
0.207000000000000045,67.887141492732752113
0.208000000000000046,66.653488672614315647
0.209000000000000047,65.429195415882958287
0.210000000000000048,64.214494709753950019
0.211000000000000049,63.009713696106643965
0.212000000000000050,61.815260254651015259
0.213000000000000050,60.631609211878796373
0.214000000000000051,59.459288511299050128
0.215000000000000052,58.298865634794502455
0.216000000000000053,57.150934519362365904
0.217000000000000054,56.016103169243024240
0.218000000000000055,54.894982121428483879
0.219000000000000056,53.788173883461560365
0.220000000000000057,52.696263426744295089
0.221000000000000058,51.619809786561198450
0.222000000000000058,50.559338791802119317
0.223000000000000059,49.515336922959498622
0.224000000000000060,48.488246276273237356
0.225000000000000061,47.478460594741434875
0.226000000000000062,46.486322312882876417
0.227000000000000063,45.512120551371744170
0.228000000000000064,44.556089989682355679
0.229000000000000065,43.618410539389095959
0.230000000000000066,42.699207737470345592
0.231000000000000066,41.798553777572649892
0.232000000000000067,40.916469097426883650
0.233000000000000068,40.052924442204876243
0.234000000000000069,39.207843326321736299
0.235000000000000070,38.381104819797556615
0.236000000000000071,37.572546589591567567
0.237000000000000072,36.781968131127911192
0.238000000000000073,36.009134130385845651
0.239000000000000073,35.253777902289392898
0.240000000000000074,34.515604856577127180
0.241000000000000075,33.794295947767622579
0.242000000000000076,33.089511071168615786
0.243000000000000077,32.400892372042548573
0.244000000000000078,31.728067439982623910
0.245000000000000079,31.070652365228237812
0.246000000000000080,30.428254638027475210
0.247000000000000081,29.800475876213475601
0.248000000000000081,29.186914369890462950
0.249000000000000082,28.587167435517223169
0.250000000000000111,28.000833574730869202
0.251000000000000112,27.427514435978235241
0.252000000000000113,26.866816579425108813
0.253000000000000114,26.318353047708427539
0.254000000000000115,25.781744746897338416
0.255000000000000115,25.256621643554495904
0.256000000000000116,24.742623785056530039
0.257000000000000117,24.239402151361741033
0.258000000000000118,23.746619347224090291
0.259000000000000119,23.263950144464082825
0.260000000000000120,22.791081884338701968
0.261000000000000121,22.327714750324624049
0.262000000000000122,21.873561921756774495
0.263000000000000123,21.428349618768965712
0.264000000000000123,20.991817048877159380
0.265000000000000124,20.563716265348411127
0.266000000000000125,20.143811947220662262
0.267000000000000126,19.731881110496011900
0.268000000000000127,19.327712759633079997
0.269000000000000128,18.931107488025620711
0.270000000000000129,18.541877035683384634
0.271000000000000130,18.159843811835862937
0.272000000000000131,17.784840389670442562
0.273000000000000131,17.416708979897681075
0.274000000000000132,17.055300889316402646
0.275000000000000133,16.700475970034215578
0.276000000000000134,16.352102064490129152
0.277000000000000135,16.010054450929107617
0.278000000000000136,15.674215293496136070
0.279000000000000137,15.344473100653408082
0.280000000000000138,15.020722195180505665
0.281000000000000139,14.702862198594413456
0.282000000000000139,14.390797532427185956
0.283000000000000140,14.084436938422811636
0.284000000000000141,13.783693019363440158
0.285000000000000142,13.488481801907829194
0.286000000000000143,13.198722322521868833
0.287000000000000144,12.914336237302629584
0.288000000000000145,12.635247456241705422
0.289000000000000146,12.361381802242277672
0.290000000000000147,12.092666694993635446
0.291000000000000147,11.829030859619305005
0.292000000000000148,11.570404059846286060
0.293000000000000149,11.316716855295059219
0.294000000000000150,11.067900382359685096
0.295000000000000151,10.823886158034756733
0.296000000000000152,10.584605905949764804
0.297000000000000153,10.349991403790228972
0.298000000000000154,10.119974351217909003
0.299000000000000155,9.894486257348589220
0.300000000000000155,9.673458346803705865
0.301000000000000156,9.456821483321661503
0.302000000000000157,9.244506109892991930
0.303000000000000158,9.036442204372374221
0.304000000000000159,8.832559249516261701
0.305000000000000160,8.632786216398898205
0.306000000000000161,8.437051560169233966
0.307000000000000162,8.245283227127320202
0.308000000000000163,8.057408672119567683
0.309000000000000163,7.873354885277338511
0.310000000000000164,7.693048427152317181
0.311000000000000165,7.516415471334070730
0.312000000000000166,7.343381853669797010
0.313000000000000167,7.173873127243001413
0.314000000000000168,7.007814622306111296
0.315000000000000169,6.845131510401669672
0.316000000000000170,6.685748871946979754
0.317000000000000171,6.529591766598150215
0.318000000000000171,6.376585305750605670
0.319000000000000172,6.226654726573894294
0.320000000000000173,6.079725467019676088
0.321000000000000174,5.935723241281787743
0.322000000000000175,5.794574115226699185
0.323000000000000176,5.656204581351449434
0.324000000000000177,5.520541632863499970
0.325000000000000178,5.387512836513626446
0.326000000000000179,5.257046403847896343
0.327000000000000179,5.129071260578923486
0.328000000000000180,5.003517113808951144
0.329000000000000181,4.880314516868395458
0.330000000000000182,4.759394931563252662
0.331000000000000183,4.640690787652660632
0.332000000000000184,4.524135539404774420
0.333000000000000185,4.409663719104234936
0.334000000000000186,4.297210987407967586
0.335000000000000187,4.186714180468520397
0.336000000000000187,4.078111353764560576
0.337000000000000188,3.971341822597882043
0.338000000000000189,3.866346199233690051
0.339000000000000190,3.763066426677792009
0.340000000000000191,3.661445809099658000
0.341000000000000192,3.561429038923923152
0.342000000000000193,3.462962220626022880
0.343000000000000194,3.365992891278885679
0.344000000000000195,3.270470037908552285
0.345000000000000195,3.176344111725231123
0.346000000000000196,3.083567039305405988
0.347000000000000197,2.992092230807432252
0.348000000000000198,2.901874585309789367
0.349000000000000199,2.812870493366658842
0.350000000000000200,2.725037836880185527
0.351000000000000201,2.638335986392893240
0.352000000000000202,2.552725795906937378
0.353000000000000203,2.468169595339389844
0.354000000000000203,2.384631180724781530
0.355000000000000204,2.302075802277607330
0.356000000000000205,2.220470150428104361
0.357000000000000206,2.139782339945030198
0.358000000000000207,2.059981892259254099
0.359000000000000208,1.981039716101148596
0.360000000000000209,1.902928086563842047
0.361000000000000210,1.825620622703520102
0.362000000000000210,1.749092263785763546
0.363000000000000211,1.673319244285615071
0.364000000000000212,1.598279067746509297
0.365000000000000213,1.523950479601169361
0.366000000000000214,1.450313439054814024
0.367000000000000215,1.377349090128477060
0.368000000000000216,1.305039731957159832
0.369000000000000217,1.233368788434893615
0.370000000000000218,1.162320777295289265
0.371000000000000218,1.091881278713402903
0.372000000000000219,1.022036903511144290
0.373000000000000220,0.952775261045360367
0.374000000000000221,0.884084926854431075
0.375000000000000222,0.815955410135858372
0.376000000000000223,0.748377121123737332
0.377000000000000224,0.681341338432144394
0.378000000000000225,0.614840176426681984
0.379000000000000226,0.548866552683501596
0.380000000000000226,0.483414155591488204
0.381000000000000227,0.418477412150558947
0.382000000000000228,0.354051456015340715
0.383000000000000229,0.290132095830846315
0.384000000000000230,0.226715783903457174
0.385000000000000231,0.163799585247602408
0.386000000000000232,0.101381147045771586
0.387000000000000233,0.039458668556416575
0.388000000000000234,-0.021969128498087721
0.389000000000000234,-0.082903029034304063
0.390000000000000235,-0.143343353174480825
0.391000000000000236,-0.203289984253043954
0.392000000000000237,-0.262742396240842002
0.393000000000000238,-0.321699680567662960
0.394000000000000239,-0.380160572325545787
0.395000000000000240,-0.438123475837739029
0.396000000000000241,-0.495586489580024270
0.397000000000000242,-0.552547430443157017
0.398000000000000242,-0.609003857327049425
0.399000000000000243,-0.664953094058939986
0.400000000000000244,-0.720392251629728975
0.401000000000000245,-0.775318249744043730
0.402000000000000246,-0.829727837681094038
0.403000000000000247,-0.883617614465085688
0.404000000000000248,-0.936984048344940867
0.405000000000000249,-0.989823495584632340
0.406000000000000250,-1.042132218566456769
0.407000000000000250,-1.093906403210816558
0.408000000000000251,-1.145142175717050348
0.409000000000000252,-1.195835618630842534
0.410000000000000253,-1.245982786244698604
0.411000000000000254,-1.295579719338749713
0.412000000000000255,-1.344622459269946502
0.413000000000000256,-1.393107061418563664
0.414000000000000257,-1.441029608001250129
0.415000000000000258,-1.488386220260945914
0.416000000000000258,-1.535173070044046462
0.417000000000000259,-1.581386390776099216
0.418000000000000260,-1.627022487847447962
0.419000000000000261,-1.672077748420912169
0.420000000000000262,-1.716548650673652032
0.421000000000000263,-1.760431772486052537
0.422000000000000264,-1.803723799590227994
0.423000000000000265,-1.846421533191514142
0.424000000000000266,-1.888521897076155032
0.425000000000000266,-1.930021944218564656
0.426000000000000267,-1.970918862901900326
0.427000000000000268,-2.011209982365503190
0.428000000000000269,-2.050892777992959992
0.429000000000000270,-2.089964876054597021
0.430000000000000271,-2.128424058018095533
0.431000000000000272,-2.166268264441080227
0.432000000000000273,-2.203495598459260130
0.433000000000000274,-2.240104328883867346
0.434000000000000274,-2.276092892921928179
0.435000000000000275,-2.311459898532741697
0.436000000000000276,-2.346204126434023873
0.437000000000000277,-2.380324531770795282
0.438000000000000278,-2.413820245460103209
0.439000000000000279,-2.446690575224478970
0.440000000000000280,-2.478935006326762558
0.441000000000000281,-2.510553202018812602
0.442000000000000282,-2.541545003716497497
0.443000000000000282,-2.571910430912888845
0.444000000000000283,-2.601649680841716439
0.445000000000000284,-2.630763127902592480
0.446000000000000285,-2.659251322859478961
0.447000000000000286,-2.687114991823635446
0.448000000000000287,-2.714355035031834174
0.449000000000000288,-2.740972525430693807
0.450000000000000289,-2.766968707077455569
0.451000000000000290,-2.792344993367408712
0.452000000000000290,-2.817102965097951550
0.453000000000000291,-2.841244368378869734
0.454000000000000292,-2.864771112398293962
0.455000000000000293,-2.887685267053481830
0.456000000000000294,-2.909989060455284271
0.457000000000000295,-2.931684876314988752
0.458000000000000296,-2.952775251221825492
0.459000000000000297,-2.973262871819330133
0.460000000000000298,-2.993150571888388178
0.461000000000000298,-3.012441329344549779
0.462000000000000299,-3.031138263157019619
0.463000000000000300,-3.049244630196346950
0.464000000000000301,-3.066763822017782193
0.465000000000000302,-3.083699361586794474
0.466000000000000303,-3.100054899953212928
0.467000000000000304,-3.115834212880126408
0.468000000000000305,-3.131041197433355627
0.469000000000000306,-3.145679868537279322
0.470000000000000306,-3.159754355502454537
0.471000000000000307,-3.173268898530153148
0.472000000000000308,-3.186227845198950526
0.473000000000000309,-3.198635646938138066
0.474000000000000310,-3.210496855492467994
0.475000000000000311,-3.221816119382745036
0.476000000000000312,-3.232598180366326623
0.477000000000000313,-3.242847869901668734
0.478000000000000314,-3.252570105620534058
0.479000000000000314,-3.261769887811689195
0.480000000000000315,-3.270452295919335395
0.481000000000000316,-3.278622485059696778
0.482000000000000317,-3.286285682558720112
0.483000000000000318,-3.293447184513904169
0.484000000000000319,-3.300112352382983172
0.485000000000000320,-3.306286609602042237
0.486000000000000321,-3.311975438235577052
0.487000000000000322,-3.317184375660764850
0.488000000000000322,-3.321919011288038348
0.489000000000000323,-3.326184983320145783
0.490000000000000324,-3.329987975551426338
0.491000000000000325,-3.333333714209113285
0.492000000000000326,-3.336227964838308857
0.493000000000000327,-3.338676529232117218
0.494000000000000328,-3.340685242408300670
0.495000000000000329,-3.342259969633825989
0.496000000000000330,-3.343406603498279672
0.497000000000000330,-3.344131061037514563
0.498000000000000331,-3.344439280908089618
0.499000000000000332,-3.344337220613751605
0.500000000000000333,-3.343830853784485413
0.501000000000000334,-3.342926167508859514
0.502000000000000335,-3.341629159720311826
0.503000000000000336,-3.339945836637824961
0.504000000000000337,-3.337882210261468252
0.505000000000000338,-3.335444295923090330
0.506000000000000338,-3.332638109892513967
0.507000000000000339,-3.329469667039421488
0.508000000000000340,-3.325944978550995135
0.509000000000000341,-3.322070049705573069
0.510000000000000342,-3.317850877702113621
0.511000000000000343,-3.313293449545634761
0.512000000000000344,-3.308403739988376113
0.513000000000000345,-3.303187709526626659
0.514000000000000346,-3.297651302453050270
0.515000000000000346,-3.291800444964151584
0.516000000000000347,-3.285641043322689914
0.517000000000000348,-3.279178982074725468
0.518000000000000349,-3.272420122320831126
0.519000000000000350,-3.265370300041202434
0.520000000000000351,-3.258035324474060079
0.521000000000000352,-3.250420976547093055
0.522000000000000353,-3.242533007361178221
0.523000000000000353,-3.234377136726068525
0.524000000000000354,-3.225959051747387285
0.525000000000000355,-3.217284405464332586
0.526000000000000356,-3.208358815537520226
0.527000000000000357,-3.199187862986353714
0.528000000000000358,-3.189777090975204565
0.529000000000000359,-3.180132003647829553
0.530000000000000360,-3.170258065009229131
0.531000000000000361,-3.160160697854355938
0.532000000000000361,-3.149845282742902874
0.533000000000000362,-3.139317157019439808
0.534000000000000363,-3.128581613878187895
0.535000000000000364,-3.117643901471693013
0.536000000000000365,-3.106509222062586506
0.537000000000000366,-3.095182731217766214
0.538000000000000367,-3.083669537044084308
0.539000000000000368,-3.071974699464965930
0.540000000000000369,-3.060103229536959013
0.541000000000000369,-3.048060088805651713
0.542000000000000370,-3.035850188699941832
0.543000000000000371,-3.023478389964094681
0.544000000000000372,-3.010949502126640365
0.545000000000000373,-2.998268283005411039
0.546000000000000374,-2.985439438247887711
0.547000000000000375,-2.972467620906064312
0.548000000000000376,-2.959357431045118503
0.549000000000000377,-2.946113415385005485
0.550000000000000377,-2.932740066974289128
0.551000000000000378,-2.919241824895334680
0.552000000000000379,-2.905623074000240003
0.553000000000000380,-2.891888144676587835
0.554000000000000381,-2.878041312642330318
0.555000000000000382,-2.864086798769130304
0.556000000000000383,-2.850028768933206003
0.557000000000000384,-2.835871333893209556
0.558000000000000385,-2.821618549194135017
0.559000000000000385,-2.807274415096750353
0.560000000000000386,-2.792842876531712815
0.561000000000000387,-2.778327823077707759
0.562000000000000388,-2.763733088962845308
0.563000000000000389,-2.749062453088755298
0.564000000000000390,-2.734319639076540742
0.565000000000000391,-2.719508315334020487
0.566000000000000392,-2.704632095143549630
0.567000000000000393,-2.689694536769814626
0.568000000000000393,-2.674699143586857897
0.569000000000000394,-2.659649364223779955
0.570000000000000395,-2.644548592728518166
0.571000000000000396,-2.629400168748929012
0.572000000000000397,-2.614207377730783044
0.573000000000000398,-2.598973451131890489
0.574000000000000399,-2.583701566651894321
0.575000000000000400,-2.568394848477073555
0.576000000000000401,-2.553056367539612737
0.577000000000000401,-2.537689141790880232
0.578000000000000402,-2.522296136487967466
0.579000000000000403,-2.506880264493129395
0.580000000000000404,-2.491444386585573323
0.581000000000000405,-2.475991311784965010
0.582000000000000406,-2.460523797686338110
0.583000000000000407,-2.445044550805703487
0.584000000000000408,-2.429556226936068875
0.585000000000000409,-2.414061431513268907
0.586000000000000409,-2.398562719991153891
0.587000000000000410,-2.383062598225799356
0.588000000000000411,-2.367563522868087134
0.589000000000000412,-2.352067901764468338
0.590000000000000413,-2.336578094365260760
0.591000000000000414,-2.321096412140213783
0.592000000000000415,-2.305625119000921153
0.593000000000000416,-2.290166431729584673
0.594000000000000417,-2.274722520413853033
0.595000000000000417,-2.259295508887402715
0.596000000000000418,-2.243887475175651680
0.597000000000000419,-2.228500451946602290
0.598000000000000420,-2.213136426966131332
0.599000000000000421,-2.197797343557646332
0.600000000000000422,-2.182485101065615218
0.601000000000000423,-2.167201555322709972
0.602000000000000424,-2.151948519120276071
0.603000000000000425,-2.136727762681786658
0.604000000000000425,-2.121541014138975889
0.605000000000000426,-2.106389960010406348
0.606000000000000427,-2.091276245682218704
0.607000000000000428,-2.076201475890613324
0.608000000000000429,-2.061167215206129111
0.609000000000000430,-2.046174988519083637
0.610000000000000431,-2.031226281526262945
0.611000000000000432,-2.016322541218396491
0.612000000000000433,-2.001465176368277810
0.613000000000000433,-1.986655558019323475
