# hydroxyapatite-010-ph10_BSAI11
# h[nm],U(h)[kJ/mol]
0.149999999999999994,122.370680942526547597
0.150999999999999995,120.675911740061764021
0.151999999999999996,118.957004816927494062
0.152999999999999997,117.292453649284155404
0.153999999999999998,115.697128394169837406
0.154999999999999999,114.160347402077690049
0.156000000000000000,112.665369488712229895
0.157000000000000001,111.198102147755889746
0.158000000000000002,109.749903516994237407
0.159000000000000002,108.317439311249927414
0.160000000000000003,106.901318923633738223
0.161000000000000004,105.504454246070480394
0.162000000000000005,104.130606466569616941
0.163000000000000006,102.783304829772717426
0.164000000000000007,101.465165787504204786
0.165000000000000008,100.177563431652089321
0.166000000000000009,98.920571185006465953
0.167000000000000010,97.693090131293530476
0.168000000000000010,96.493088300550965641
0.169000000000000011,95.317889894282416208
0.170000000000000012,94.164469313382909377
0.171000000000000013,93.029719514946421555
0.172000000000000014,91.910676551891896224
0.173000000000000015,90.804691802337742956
0.174000000000000016,89.709550472250811026
0.175000000000000017,88.623539773745449111
0.176000000000000018,87.545473147468243269
0.177000000000000018,86.474678423571077701
0.178000000000000019,85.410958280025056411
0.179000000000000020,84.354531083265541724
0.180000000000000021,83.305959447917757643
0.181000000000000022,82.266072834902871591
0.182000000000000023,81.235889373777837363
0.183000000000000024,80.216540954763445370
0.184000000000000025,79.209204561729592342
0.185000000000000026,78.215041854429713908
0.186000000000000026,77.235148180214224567
0.187000000000000027,76.270511510481256323
0.188000000000000028,75.321981252613610991
0.189000000000000029,74.390246474407049959
0.190000000000000030,73.475822781101001624
0.191000000000000031,72.579046889082491134
0.192000000000000032,71.700077828602758245
0.193000000000000033,70.838903664360060475
0.194000000000000034,69.995352632690483574
0.195000000000000034,69.169107644044089511
0.196000000000000035,68.359723177853496168
0.197000000000000036,67.566643694048636348
0.198000000000000037,66.789222793300922376
0.199000000000000038,66.026742470152584019
0.200000000000000039,65.278431914510605338
0.201000000000000040,64.543485423821991276
0.202000000000000041,63.821079087936865903
0.203000000000000042,63.110385999448944006
0.204000000000000042,62.410589823140448118
0.205000000000000043,61.720896628613388657
0.206000000000000044,61.040544950253071477
0.207000000000000045,60.368814088696296949
0.208000000000000046,59.705030708543709750
0.209000000000000047,59.048573818915670586
0.210000000000000048,58.398878247452842061
0.211000000000000049,57.755436735401950443
0.212000000000000050,57.117800792409148869
0.213000000000000050,56.485580455453415993
0.214000000000000051,55.858443097829407975
0.215000000000000052,55.236111432015150058
0.216000000000000053,54.618360845351695332
0.217000000000000054,54.005016200357566447
0.218000000000000055,53.395948222772211977
0.219000000000000056,52.791069590559061453
0.220000000000000057,52.190330826527201680
0.221000000000000058,51.593716086306358193
0.222000000000000058,51.001238922426807676
0.223000000000000059,50.412938094457715010
0.224000000000000060,49.828873484728951837
0.225000000000000061,49.249122169252075309
0.226000000000000062,48.673774684170645344
0.227000000000000063,48.102931519482694966
0.228000000000000064,47.536699863935332644
0.229000000000000065,46.975190617913888502
0.230000000000000066,46.418515684839704249
0.231000000000000066,45.866785546038343568
0.232000000000000067,45.320107119218882019
0.233000000000000068,44.778581896579161992
0.234000000000000069,44.242304355083540202
0.235000000000000070,43.711360628597446976
0.236000000000000071,43.185827429264215027
0.237000000000000072,42.665771203717433480
0.238000000000000073,42.151247508390305541
0.239000000000000073,41.642300587261637190
0.240000000000000074,41.138963134813991473
0.241000000000000075,40.641256226732835444
0.242000000000000076,40.149189400897775215
0.243000000000000077,39.662760871469451729
0.244000000000000078,39.181957859320348803
0.245000000000000079,38.706757022659871836
0.246000000000000080,38.237124972432624759
0.247000000000000081,37.773018857893887912
0.248000000000000081,37.314387008665690360
0.249000000000000082,36.861169620525160440
0.250000000000000111,36.413299473156023112
0.251000000000000112,35.970702669087849301
0.252000000000000113,35.533299384039118252
0.253000000000000114,35.101004619860461275
0.254000000000000115,34.673728952229922129
0.255000000000000115,34.251379266176726901
0.256000000000000116,33.833859473396451278
0.257000000000000117,33.421071206162409339
0.258000000000000118,33.012914483434528279
0.259000000000000119,32.609288345510890395
0.260000000000000120,32.210091454261352339
0.261000000000000121,31.815222656622857755
0.262000000000000122,31.424581509624282205
0.263000000000000123,31.038068765744469601
0.264000000000000123,30.655586817891787632
0.265000000000000124,30.277040103728971587
0.266000000000000125,29.902335469454463635
0.267000000000000126,29.531382493493413932
0.268000000000000127,29.164093770850435305
0.269000000000000128,28.800385159134187063
0.270000000000000129,28.440175987484003883
0.271000000000000130,28.083389229812723897
0.272000000000000131,27.729951643932082561
0.273000000000000131,27.379793878247710381
0.274000000000000132,27.032850547804731178
0.275000000000000133,26.689060281533340202
0.276000000000000134,26.348365742589209049
0.277000000000000135,26.010713623709285969
0.278000000000000136,25.676054619510246368
0.279000000000000137,25.344343377647845728
0.280000000000000138,25.015538430732600972
0.281000000000000139,24.689602110861539330
0.282000000000000139,24.366500448579856197
0.283000000000000140,24.046203058031530020
0.284000000000000141,23.728683009995545916
0.285000000000000142,23.413916694435989996
0.286000000000000143,23.101883674120983869
0.287000000000000144,22.792566530788327839
0.288000000000000145,22.485950705256087190
0.289000000000000146,22.182024332794920696
0.290000000000000147,21.880778074996161564
0.291000000000000147,21.582204949287152829
0.292000000000000148,21.286300157162813207
0.293000000000000149,20.993060912121190853
0.294000000000000150,20.702486268210332554
0.295000000000000151,20.414576950016215307
0.296000000000000152,20.129335184844855178
0.297000000000000153,19.846764537778902593
0.298000000000000154,19.566869750217641410
0.299000000000000155,19.289656582441871535
0.300000000000000155,19.015131660680182790
0.301000000000000156,18.743302329091651615
0.302000000000000157,18.474176507021304872
0.303000000000000158,18.207762551830040110
0.304000000000000159,17.944069127548466724
0.305000000000000160,17.683105079555822670
0.306000000000000161,17.424879315439923744
0.307000000000000162,17.169400692151761234
0.308000000000000163,16.916677909529617807
0.309000000000000163,16.666719410231685572
0.310000000000000164,16.419533286083169088
0.311000000000000165,16.175127190813636702
0.312000000000000166,15.933508259133464691
0.313000000000000167,15.694683032072981987
0.314000000000000168,15.458657388486281903
0.315000000000000169,15.225436482601420352
0.316000000000000170,14.995024687481594228
0.317000000000000171,14.767425544246162161
0.318000000000000171,14.542641716887530379
0.319000000000000172,14.320674952507875588
0.320000000000000173,14.101526046790601399
0.321000000000000174,13.885194814513132755
0.322000000000000175,13.671680064901234886
0.323000000000000176,13.460979581620236445
0.324000000000000177,13.253090107194548608
0.325000000000000178,13.048007331644930318
0.326000000000000179,12.845725885130914179
0.327000000000000179,12.646239334386329745
0.328000000000000180,12.449540182735756133
0.329000000000000181,12.255619873481768067
0.330000000000000182,12.064468796454764998
0.331000000000000183,11.876076297520189229
0.332000000000000184,11.690430690841470351
0.333000000000000185,11.507519273701159790
0.334000000000000186,11.327328343687151246
0.335000000000000187,11.149843218055835337
0.336000000000000187,10.975048255089390636
0.337000000000000188,10.802926877270030204
0.338000000000000189,10.633461596099744284
0.339000000000000190,10.466634038400092876
0.340000000000000191,10.302424973933010932
0.341000000000000192,10.140814344189685414
0.342000000000000193,9.981781292200951228
0.343000000000000194,9.825304193229134953
0.344000000000000195,9.671360686207936652
0.345000000000000195,9.519927705802755824
0.346000000000000196,9.370981514971118642
0.347000000000000197,9.224497737908389894
0.348000000000000198,9.080451393270831062
0.349000000000000199,8.938816927573848048
0.350000000000000200,8.799568248669494608
0.351000000000000201,8.662678759213182644
0.352000000000000202,8.528121390035394711
0.353000000000000203,8.395868633339706122
0.354000000000000203,8.265892575654026686
0.355000000000000204,8.138164930467295832
0.356000000000000205,8.012657070488984346
0.357000000000000206,7.889340059473555655
0.358000000000000207,7.768184683557282533
0.359000000000000208,7.649161482058983275
0.360000000000000209,7.532240777700801360
0.361000000000000210,7.417392706209689379
0.362000000000000210,7.304587245263824968
0.363000000000000211,7.193794242752534096
0.364000000000000212,7.084983444321716561
0.365000000000000213,6.978124520180413626
0.366000000000000214,6.873187091147499928
0.367000000000000215,6.770140753920635746
0.368000000000000216,6.668955105552567098
0.369000000000000217,6.569599767122878298
0.370000000000000218,6.472044406595751198
0.371000000000000218,6.376258760856981844
0.372000000000000219,6.282212656925780792
0.373000000000000220,6.189876032339057588
0.374000000000000221,6.099218954708094387
0.375000000000000222,6.010211640449393045
0.376000000000000223,5.922824472693058340
0.377000000000000224,5.837028018374132543
0.378000000000000225,5.752793044513493825
0.379000000000000226,5.670090533696567014
0.380000000000000226,5.588891698759161031
0.381000000000000227,5.509167996691273217
0.382000000000000228,5.430891141770413988
0.383000000000000229,5.354033117937243347
0.384000000000000230,5.278566190427140370
0.385000000000000231,5.204462916671976025
0.386000000000000232,5.131696156487347338
0.387000000000000233,5.060239081560801822
0.388000000000000234,4.990065184257489683
0.389000000000000234,4.921148285759844754
0.390000000000000235,4.853462543558488385
0.391000000000000236,4.786982458311807243
0.392000000000000237,4.721682880091949031
0.393000000000000238,4.657539014035167568
0.394000000000000239,4.594526425414662718
0.395000000000000240,4.532621044154124590
0.396000000000000241,4.471799168800240309
0.397000000000000242,4.412037469972507786
0.398000000000000242,4.353312993308582790
0.399000000000000243,4.295603161923415847
0.400000000000000244,4.238885778400256044
0.401000000000000245,4.183139026331485155
0.402000000000000246,4.128341471427218856
0.403000000000000247,4.074472062209107293
0.404000000000000248,4.021510130306924502
0.405000000000000249,3.969435390375045891
0.406000000000000250,3.918227939645748226
0.407000000000000250,3.867868257135967269
0.408000000000000251,3.818337202523864882
0.409000000000000252,3.769616014711287821
0.410000000000000253,3.721686310087731986
0.411000000000000254,3.674530080511336116
0.412000000000000255,3.628129691021848569
0.413000000000000256,3.582467877300274495
0.414000000000000257,3.537527742889592819
0.415000000000000258,3.493292756190396808
0.416000000000000258,3.449746747245220124
0.417000000000000259,3.406873904324584146
0.418000000000000260,3.364658770327791704
0.419000000000000261,3.323086239010780041
0.420000000000000262,3.282141551053289419
0.421000000000000263,3.241810289976897685
0.422000000000000264,3.202078377925408059
0.423000000000000265,3.162932071318461880
0.424000000000000266,3.124357956388984725
0.425000000000000266,3.086342944614748340
0.426000000000000267,3.048874268053816117
0.427000000000000268,3.011939474593436916
0.428000000000000269,2.975526423121515496
0.429000000000000270,2.939623278629395209
0.430000000000000271,2.904218507254499038
0.431000000000000272,2.869300871270788811
0.432000000000000273,2.834859424034948283
0.433000000000000274,2.800883504895618881
0.434000000000000274,2.767362734072851715
0.435000000000000275,2.734287007514581980
0.436000000000000276,2.701646491736569455
0.437000000000000277,2.669431618652039262
0.438000000000000278,2.637633080396894592
0.439000000000000279,2.606241824156102282
0.440000000000000280,2.575249046996585633
0.441000000000000281,2.544646190711691069
0.442000000000000282,2.514424936681966649
0.443000000000000282,2.484577200756864279
0.444000000000000283,2.455095128161550733
0.445000000000000284,2.425971088432939737
0.446000000000000285,2.397197670388734103
0.447000000000000286,2.368767677132976424
0.448000000000000287,2.340674121101596228
0.449000000000000288,2.312910219150951630
0.450000000000000289,2.285469387692401266
0.451000000000000290,2.258345237875598599
0.452000000000000290,2.231531570823011457
0.453000000000000291,2.205022372918127971
0.454000000000000292,2.178811811149387712
0.455000000000000293,2.152894228511965657
0.456000000000000294,2.127264139469173365
0.457000000000000295,2.101916225475160882
0.458000000000000296,2.076845330560497693
0.459000000000000297,2.052046456981945433
0.460000000000000298,2.027514760937715099
0.461000000000000298,2.003245548349264826
0.462000000000000299,1.979234270710663823
0.463000000000000300,1.955476521006338286
0.464000000000000301,1.931968029697933797
0.465000000000000302,1.908704660780943696
0.466000000000000303,1.885682407911591252
0.467000000000000304,1.862897390604364434
0.468000000000000305,1.840345850500569203
0.469000000000000306,1.818024147708084737
0.470000000000000306,1.795928757212419624
0.471000000000000307,1.774056265359213569
0.472000000000000308,1.752403366408075813
0.473000000000000309,1.730966859157661686
0.474000000000000310,1.709743643641870481
0.475000000000000311,1.688730717896839151
0.476000000000000312,1.667925174798520871
0.477000000000000313,1.647324198970372411
0.478000000000000314,1.626925063760849444
0.479000000000000314,1.606725128290134474
0.480000000000000315,1.586721834565651523
0.481000000000000316,1.566912704665738065
0.482000000000000317,1.547295337990925113
0.483000000000000318,1.527867408582116004
0.484000000000000319,1.508626662505016203
0.485000000000000320,1.489570915300093112
0.486000000000000321,1.470698049497275672
0.487000000000000322,1.452006012194642315
0.488000000000000322,1.433492812700316588
0.489000000000000323,1.415156520236643845
0.490000000000000324,1.396995261705902491
0.491000000000000325,1.379007219516602323
0.492000000000000326,1.361190629469509750
0.493000000000000327,1.343543778702465996
0.494000000000000328,1.326065003693107647
0.495000000000000329,1.308752688318514323
0.496000000000000330,1.291605261970895757
0.497000000000000330,1.274621197728251554
0.498000000000000331,1.257799010579214283
0.499000000000000332,1.241137255700921482
0.500000000000000333,1.224634526789048827
0.501000000000000334,1.208289454439048338
0.502000000000000335,1.192100704577495618
0.503000000000000336,1.176066976942708120
0.504000000000000337,1.160187003613530887
0.505000000000000338,1.144459547585397585
0.506000000000000338,1.128883401392636543
0.507000000000000339,1.113457385776067898
0.508000000000000340,1.098180348394943939
0.509000000000000341,1.083051162582196580
0.510000000000000342,1.068068726142136438
0.511000000000000343,1.053231960189528138
0.512000000000000344,1.038539808029218303
0.513000000000000345,1.023991234075291912
0.514000000000000346,1.009585222808831118
0.515000000000000346,0.995320777773417098
0.516000000000000347,0.981196920607398937
0.517000000000000348,0.967212690112040696
0.518000000000000349,0.953367141354682701
0.519000000000000350,0.939659344805978791
0.520000000000000351,0.926088385510431933
0.521000000000000352,0.912653362289222558
0.522000000000000353,0.899353386974665270
0.523000000000000353,0.886187583675263846
0.524000000000000354,0.873155088070715402
0.525000000000000355,0.860255046735904139
0.526000000000000356,0.847486616493208444
0.527000000000000357,0.834848963792237164
0.528000000000000358,0.822341264116278170
0.529000000000000359,0.809962701414664088
0.530000000000000360,0.797712467560357297
0.531000000000000361,0.785589761831942957
0.532000000000000361,0.773593790419377925
0.533000000000000362,0.761723765952737719
0.534000000000000363,0.749978907053318822
0.535000000000000364,0.738358437906330045
0.536000000000000365,0.726861587854611635
0.537000000000000366,0.715487591012617385
0.538000000000000367,0.704235685900128749
0.539000000000000368,0.693105115094949542
0.540000000000000369,0.682095124904079309
0.541000000000000369,0.671204965052663249
0.542000000000000370,0.660433888390236978
0.543000000000000371,0.649781150613569003
0.544000000000000372,0.639246010005632970
0.545000000000000373,0.628827727190099717
0.546000000000000374,0.618525564900844871
0.547000000000000375,0.608338787765923095
0.548000000000000376,0.598266662105507940
0.549000000000000377,0.588308455743295156
0.550000000000000377,0.578463437830844862
0.551000000000000378,0.568730878684468588
0.552000000000000379,0.559110049634083395
0.553000000000000380,0.549600222883676048
0.554000000000000381,0.540200671382886410
0.555000000000000382,0.530910668709264288
0.556000000000000383,0.521729488960841037
0.557000000000000384,0.512656406658514752
0.558000000000000385,0.503690696657963954
0.559000000000000385,0.494831634070595161
0.560000000000000386,0.486078494193199095
0.561000000000000387,0.477430552445959389
0.562000000000000388,0.468887084318437730
0.563000000000000389,0.460447365323165880
0.564000000000000390,0.452110670956560157
0.565000000000000391,0.443876276666788083
0.566000000000000392,0.435743457828302483
0.567000000000000393,0.427711489722676586
0.568000000000000393,0.419779647525530764
0.569000000000000394,0.411947206299180468
0.570000000000000395,0.404213440990750350
0.571000000000000396,0.396577626435510255
0.572000000000000397,0.389039037365110474
0.573000000000000398,0.381596948420516391
0.574000000000000399,0.374250634169357610
0.575000000000000400,0.366999369127460784
0.576000000000000401,0.359842427784364705
0.577000000000000401,0.352779084632505957
0.578000000000000402,0.345808614199968722
0.579000000000000403,0.338930291086522228
0.580000000000000404,0.332143390002717698
0.581000000000000405,0.325447185811947981
0.582000000000000406,0.318840953575152408
0.583000000000000407,0.312323968598092694
0.584000000000000408,0.305895506480963308
0.585000000000000409,0.299554843170167229
0.586000000000000409,0.293301255012141049
0.587000000000000410,0.287134018808982372
0.588000000000000411,0.281052411875844677
0.589000000000000412,0.275055712099822602
0.590000000000000413,0.269143198000304729
0.591000000000000414,0.263314148790570357
0.592000000000000415,0.257567844440545923
0.593000000000000416,0.251903565740585311
0.594000000000000417,0.246320594366153583
0.595000000000000417,0.240818212943263610
0.596000000000000418,0.235395705114640419
0.597000000000000419,0.230052355606392839
0.598000000000000420,0.224787450295202890
0.599000000000000421,0.219600276275836392
0.600000000000000422,0.214490121928942040
0.601000000000000423,0.209456276989058748
0.602000000000000424,0.204498032612672243
0.603000000000000425,0.199614681446309089
0.604000000000000425,0.194805517694582014
0.605000000000000426,0.190069837188077601
0.606000000000000427,0.185406937451018022
0.607000000000000428,0.180816117768712259
0.608000000000000429,0.176296679254563882
0.609000000000000430,0.171847924916783162
0.610000000000000431,0.167469159724557975
0.611000000000000432,0.163159690673752217
0.612000000000000433,0.158918826852026907
0.613000000000000433,0.154745879503334904
0.614000000000000434,0.150640162091762314
0.615000000000000435,0.146600990364654959
0.616000000000000436,0.142627682415030238
0.617000000000000437,0.138719558743129634
0.618000000000000438,0.134875942317214392
