# hydroxyapatite-010-ph10_BSAIV2
# h[nm],U(h)[kJ/mol]
0.149999999999999994,131.646579064257110758
0.150999999999999995,129.651670340149337335
0.151999999999999996,127.752315538692329255
0.152999999999999997,125.924409138414105769
0.153999999999999998,124.152028601298937360
0.154999999999999999,122.425169400880193393
0.156000000000000000,120.737958704014957334
0.157000000000000001,119.087250428370822419
0.158000000000000002,117.471544125114434109
0.159000000000000002,115.890184153350077167
0.160000000000000003,114.342798814829663456
0.161000000000000004,112.828939145669849609
0.162000000000000005,111.347877394571241894
0.163000000000000006,109.898527064930448205
0.164000000000000007,108.479449834829779320
0.165000000000000008,107.088919280238471288
0.166000000000000009,105.725016564444246114
0.167000000000000010,104.385738613039762868
0.168000000000000010,103.069104374114431266
0.169000000000000011,101.773249302470148336
0.170000000000000012,100.496502057269495367
0.171000000000000013,99.237440511661731080
0.172000000000000014,97.994926556652004024
0.173000000000000015,96.768120901216136076
0.174000000000000016,95.556480213844778859
0.175000000000000017,94.359739615926613965
0.176000000000000018,93.177883823822838849
0.177000000000000018,92.011110236950841568
0.178000000000000019,90.859787065994822797
0.179000000000000020,89.724409258356672581
0.180000000000000021,88.605554564118762073
0.181000000000000022,87.503841639724356583
0.182000000000000023,86.419891641741386934
0.183000000000000024,85.354294343213894081
0.184000000000000025,84.307579425883403701
0.185000000000000026,83.280193272104725111
0.186000000000000026,82.272481304628797716
0.187000000000000027,81.284675700804982057
0.188000000000000028,80.316888137679512738
0.189000000000000029,79.369107101625360201
0.190000000000000030,78.441199215141281798
0.191000000000000031,77.532913988367965885
0.192000000000000032,76.643891387668105608
0.193000000000000033,75.773671622457484887
0.194000000000000034,74.921706578945844512
0.195000000000000034,74.087372370643407749
0.196000000000000035,73.269982526137795276
0.197000000000000036,72.468801391077377616
0.198000000000000037,71.683057380473684361
0.199000000000000038,70.911955776891019809
0.200000000000000039,70.154690827902683736
0.201000000000000040,69.410456950903522966
0.202000000000000041,68.678458903944573422
0.203000000000000042,67.957920827013452936
0.204000000000000042,67.248094098731783674
0.205000000000000043,66.548263988637714306
0.206000000000000044,65.857755115098626675
0.207000000000000045,65.175935743653354848
0.208000000000000046,64.502220980503494729
0.209000000000000047,63.836074931333563143
0.210000000000000048,63.177011907053021389
0.211000000000000049,62.524596765867656245
0.212000000000000050,61.878444485747401416
0.213000000000000050,61.238219063308712009
0.214000000000000051,60.603631834796587441
0.215000000000000052,59.974439312632760846
0.216000000000000053,59.350440627263331805
0.217000000000000054,58.731474659127023585
0.218000000000000055,58.117416939773285378
0.219000000000000056,57.508176394754912053
0.220000000000000057,56.903691994129964371
0.221000000000000058,56.303929369432694330
0.222000000000000058,55.708877448974462254
0.223000000000000059,55.118545156453386369
0.224000000000000060,54.532958211191520093
0.225000000000000061,53.952156061971606960
0.226000000000000062,53.376188980470843148
0.227000000000000063,52.805115334739355148
0.228000000000000064,52.238999058071748038
0.229000000000000065,51.677907323990304178
0.230000000000000066,51.121908433903328728
0.231000000000000066,50.571069920317412993
0.232000000000000067,50.025456865256060723
0.233000000000000068,49.485130430751475217
0.234000000000000069,48.950146595909920677
0.235000000000000070,48.420555093076458775
0.236000000000000071,47.896398534015347082
0.237000000000000072,47.377711715747807375
0.238000000000000073,46.864521094718824656
0.239000000000000073,46.356844417270544056
0.240000000000000074,45.854690493948631058
0.241000000000000075,45.358059104935847472
0.242000000000000076,44.866941023861357962
0.243000000000000077,44.381318147352807557
0.244000000000000078,43.901163717954652554
0.245000000000000079,43.426442628408416624
0.246000000000000080,42.957111795757654704
0.247000000000000081,42.493120594283404046
0.248000000000000081,42.034411336877575138
0.249000000000000082,41.580919795107028847
0.250000000000000111,41.132575748895064294
0.251000000000000112,40.689303557439856718
0.252000000000000113,40.251022743687812522
0.253000000000000114,39.817648585377170889
0.254000000000000115,39.389092706354418283
0.255000000000000115,38.965263662536564482
0.256000000000000116,38.546067517541999337
0.257000000000000117,38.131408403635319360
0.258000000000000118,37.721189064225676191
0.259000000000000119,37.315311374719833282
0.260000000000000120,36.913676839058794599
0.261000000000000121,36.516187059759928957
0.262000000000000122,36.122744179743364157
0.263000000000000123,35.733251294643075369
0.264000000000000123,35.347612834688042938
0.265000000000000124,34.965734915590203968
0.266000000000000125,34.587525658191829336
0.267000000000000126,34.212895476908940395
0.268000000000000127,33.841757337258954408
0.269000000000000128,33.474026982982863387
0.270000000000000129,33.109623133465291289
0.271000000000000130,32.748467652321821220
0.272000000000000131,32.390485688164844191
0.273000000000000131,32.035605788676001282
0.274000000000000132,31.683759989209939079
0.275000000000000133,31.334883877229799509
0.276000000000000134,30.988916633932412026
0.277000000000000135,30.645801054462690871
0.278000000000000136,30.305483548142127859
0.279000000000000137,29.967914120148897439
0.280000000000000138,29.633046336087765837
0.281000000000000139,29.300837270876836982
0.282000000000000139,28.971247443359022355
0.283000000000000140,28.644240738017760606
0.284000000000000141,28.319784315141475872
0.285000000000000142,27.997848510740215744
0.286000000000000143,27.678406727471724480
0.287000000000000144,27.361435317784156496
0.288000000000000145,27.046913460428800846
0.289000000000000146,26.734823031440640762
0.290000000000000147,26.425148470626009356
0.291000000000000147,26.117876644538181807
0.292000000000000148,25.812996706861291329
0.293000000000000149,25.510499957063476728
0.294000000000000150,25.210379698119957936
0.295000000000000151,24.912631094048109048
0.296000000000000152,24.617251027937818719
0.297000000000000153,24.324237961104330452
0.298000000000000154,24.033591793934544256
0.299000000000000155,23.745313728944683618
0.300000000000000155,23.459406136515106311
0.301000000000000156,23.175872423718480775
0.302000000000000157,22.894716906609641427
0.303000000000000158,22.615944686300203159
0.304000000000000159,22.339561529097800019
0.305000000000000160,22.065573750948857423
0.306000000000000161,21.793988106385356218
0.307000000000000162,21.524811682139773694
0.308000000000000163,21.258051795558404962
0.309000000000000163,20.993715897911776835
0.310000000000000164,20.731811482671279379
0.311000000000000165,20.472345998793912258
0.312000000000000166,20.215326769032152754
0.313000000000000167,19.960760913262557636
0.314000000000000168,19.708655276805977508
0.315000000000000169,19.459016363692871465
0.316000000000000170,19.211850274810036154
0.317000000000000171,18.967162650849420658
0.318000000000000171,18.724958619965967443
0.319000000000000172,18.485242750038750614
0.320000000000000173,18.248019005419315874
0.321000000000000174,18.013290708041484578
0.322000000000000175,17.781060502758727182
0.323000000000000176,17.551330326768741941
0.324000000000000177,17.324101382978827957
0.325000000000000178,17.099374117161403319
0.326000000000000179,16.877148198745242524
0.327000000000000179,16.657422505085602182
0.328000000000000180,16.440195109054414502
0.329000000000000181,16.225463269791031706
0.330000000000000182,16.013223426453635057
0.331000000000000183,15.803471194811795186
0.332000000000000184,15.596201366521867726
0.333000000000000185,15.391407910928487368
0.334000000000000186,15.189083979237315347
0.335000000000000187,14.989221910906923796
0.336000000000000187,14.791813242110421811
0.337000000000000188,14.596848716120911504
0.338000000000000189,14.404318295478095280
0.339000000000000190,14.214211175797379028
0.340000000000000191,14.026515801086791413
0.341000000000000192,13.841219880441229861
0.342000000000000193,13.658310405987839076
0.343000000000000194,13.477773671960832758
0.344000000000000195,13.299595294788854716
0.345000000000000195,13.123760234082112675
0.346000000000000196,12.950252814411793878
0.347000000000000197,12.779056747778433589
0.348000000000000198,12.610155156671030596
0.349000000000000199,12.443530597623114531
0.350000000000000200,12.279165085176657612
0.351000000000000201,12.117040116169480513
0.352000000000000202,11.957136694266148780
0.353000000000000203,11.799435354656917951
0.354000000000000203,11.643916188853633997
0.355000000000000204,11.490558869515833607
0.356000000000000205,11.339342675244431291
0.357000000000000206,11.190246515284414386
0.358000000000000207,11.043248954082029556
0.359000000000000208,10.898328235645857731
0.360000000000000209,10.755462307664505062
0.361000000000000210,10.614628845337941598
0.362000000000000210,10.475805274882208806
0.363000000000000211,10.338968796671192507
0.364000000000000212,10.204096407982033767
0.365000000000000213,10.071164925313908611
0.366000000000000214,9.940151006252964550
0.367000000000000215,9.811031170858905526
0.368000000000000216,9.683781822551429386
0.369000000000000217,9.558379268477436241
0.370000000000000218,9.434799739342142999
0.371000000000000218,9.313019408689807932
0.372000000000000219,9.193014411621762250
0.373000000000000220,9.074760862941603889
0.374000000000000221,8.958234874719490648
0.375000000000000222,8.843412573269199939
0.376000000000000223,8.730270115533253161
0.377000000000000224,8.618783704873361984
0.378000000000000225,8.508929606264720391
0.379000000000000226,8.400684160894194008
0.380000000000000226,8.294023800163738969
0.381000000000000227,8.188925059101794801
0.382000000000000228,8.085364589186285755
0.383000000000000229,7.983319170584157298
0.384000000000000230,7.882765723813271563
0.385000000000000231,7.783681320833307993
0.386000000000000232,7.686043195573373232
0.387000000000000233,7.589828753904401815
0.388000000000000234,7.495015583065601561
0.389000000000000234,7.401581460554344183
0.390000000000000235,7.309504362489731122
0.391000000000000236,7.218762471460546060
0.392000000000000237,7.129334183868560437
0.393000000000000238,7.041198116778794258
0.394000000000000239,6.954333114288438367
0.395000000000000240,6.868718253426576936
0.396000000000000241,6.784332849597006998
0.397000000000000242,6.701156461576677437
0.398000000000000242,6.619168896082413767
0.399000000000000243,6.538350211918759314
0.400000000000000244,6.458680723719693262
0.401000000000000245,6.380141005297209844
0.402000000000000246,6.302711892609754507
0.403000000000000247,6.226374486363241090
0.404000000000000248,6.151110154257710683
0.405000000000000249,6.076900532892328677
0.406000000000000250,6.003727529341525759
0.407000000000000250,5.931573322414811500
0.408000000000000251,5.860420363612796280
0.409000000000000252,5.790251377791792109
0.410000000000000253,5.721049363549076006
0.411000000000000254,5.652797593340929794
0.412000000000000255,5.585479613345206928
0.413000000000000256,5.519079243080004638
0.414000000000000257,5.453580574789984148
0.415000000000000258,5.388967972611297341
0.416000000000000258,5.325226071526308225
0.417000000000000259,5.262339776118606594
0.418000000000000260,5.200294259138973807
0.419000000000000261,5.139074959892324657
0.420000000000000262,5.078667582455790530
0.421000000000000263,5.019058093737487347
0.422000000000000264,4.960232721385542831
0.423000000000000265,4.902177951556493163
0.424000000000000266,4.844880526552003630
0.425000000000000266,4.788327442332620976
0.426000000000000267,4.732505945916871681
0.427000000000000268,4.677403532673919173
0.428000000000000269,4.623007943517650986
0.429000000000000270,4.569307162009748069
0.430000000000000271,4.516289411379209362
0.431000000000000272,4.463943151465296744
0.432000000000000273,4.412257075590889421
0.433000000000000274,4.361220107372740351
0.434000000000000274,4.310821397475036676
0.435000000000000275,4.261050320312369522
0.436000000000000276,4.211896470707982232
0.437000000000000277,4.163349660512897898
0.438000000000000278,4.115399915191394697
0.439000000000000279,4.068037470377935172
0.440000000000000280,4.021252768410520595
0.441000000000000281,3.975036454845273681
0.442000000000000282,3.929379374956622151
0.443000000000000282,3.884272570227565780
0.444000000000000283,3.839707274834002426
0.445000000000000284,3.795674912127100065
0.446000000000000285,3.752167091117415421
0.447000000000000286,3.709175602964254637
0.448000000000000287,3.666692417473681243
0.449000000000000288,3.624709679608289825
0.450000000000000289,3.583219706011766537
0.451000000000000290,3.542214981551073727
0.452000000000000290,3.501688155878872610
0.453000000000000291,3.461632040018777445
0.454000000000000292,3.422039602975706973
0.455000000000000293,3.382903968373600634
0.456000000000000294,3.344218411122557022
0.457000000000000295,3.305976354117279303
0.458000000000000296,3.268171364968686987
0.459000000000000297,3.230797152770322533
0.460000000000000298,3.193847564901071578
0.461000000000000298,3.157316583865691584
0.462000000000000299,3.121198324174376815
0.463000000000000300,3.085487029262631076
0.464000000000000301,3.050177068452479823
0.465000000000000302,3.015262933956051938
0.466000000000000303,2.980739237922433560
0.467000000000000304,2.946600709528513828
0.468000000000000305,2.912842192114677875
0.469000000000000306,2.879458640365831990
0.470000000000000306,2.846445117538364489
0.471000000000000307,2.813796792733526786
0.472000000000000308,2.781508938217613913
0.473000000000000309,2.749576926789207398
0.474000000000000310,2.717996229193832214
0.475000000000000311,2.686762411586117505
0.476000000000000312,2.655871133039703569
0.477000000000000313,2.625318143104789392
0.478000000000000314,2.595099279413546789
0.479000000000000314,2.565210465333178202
0.480000000000000315,2.535647707666647044
0.481000000000000316,2.506407094400881608
0.482000000000000317,2.477484792502318012
0.483000000000000318,2.448877045759521476
0.484000000000000319,2.420580172672643027
0.485000000000000320,2.392590564389455388
0.486000000000000321,2.364904682687547943
0.487000000000000322,2.337519058002393901
0.488000000000000322,2.310430287500898405
0.489000000000000323,2.283635033199930664
0.490000000000000324,2.257130020129480386
0.491000000000000325,2.230912034539933142
0.492000000000000326,2.204977922152949077
0.493000000000000327,2.179324586455460011
0.494000000000000328,2.153948987036265805
0.495000000000000329,2.128848137964614029
0.496000000000000330,2.104019106210311740
0.497000000000000330,2.079459010104621974
0.498000000000000331,2.055165017841563468
0.499000000000000332,2.031134346018812487
0.500000000000000333,2.007364258217690267
0.501000000000000334,1.983852063621651451
0.502000000000000335,1.960595115672508992
0.503000000000000336,1.937590810763913485
0.504000000000000337,1.914836586971309540
0.505000000000000338,1.892329922817815868
0.506000000000000338,1.870068336075329629
0.507000000000000339,1.848049382600191137
0.508000000000000340,1.826270655202825610
0.509000000000000341,1.804729782550579475
0.510000000000000342,1.783424428103234760
0.511000000000000343,1.762352289080412415
0.512000000000000344,1.741511095460323233
0.513000000000000345,1.720898609009132274
0.514000000000000346,1.700512622340296875
0.515000000000000346,1.680350958003280937
0.516000000000000347,1.660411467600933833
0.517000000000000348,1.640692030934927548
0.518000000000000349,1.621190555178617654
0.519000000000000350,1.601904974076656885
0.520000000000000351,1.582833247170821078
0.521000000000000352,1.563973359051291867
0.522000000000000353,1.545323318632938703
0.523000000000000353,1.526881158455842824
0.524000000000000354,1.508644934009586658
0.525000000000000355,1.490612723080606550
0.526000000000000356,1.472782625122122102
0.527000000000000357,1.455152760645977095
0.528000000000000358,1.437721270635873960
0.529000000000000359,1.420486315981396741
0.530000000000000360,1.403446076932332254
0.531000000000000361,1.386598752572655524
0.532000000000000361,1.369942560313702096
0.533000000000000362,1.353475735405974323
0.534000000000000363,1.337196530469081379
0.535000000000000364,1.321103215039235890
0.536000000000000365,1.305194075133901954
0.537000000000000366,1.289467412833001259
0.538000000000000367,1.273921545876271377
0.539000000000000368,1.258554807276221821
0.540000000000000369,1.243365544946301027
0.541000000000000369,1.228352121343711412
0.542000000000000370,1.213512913126568504
0.543000000000000371,1.198846310824790651
0.544000000000000372,1.184350718524423085
0.545000000000000373,1.170024553564904535
0.546000000000000374,1.155866246248868690
0.547000000000000375,1.141874239564110383
0.548000000000000376,1.128046988917260407
0.549000000000000377,1.114382961878845002
0.550000000000000377,1.100880637939273710
0.551000000000000378,1.087538508275480265
0.552000000000000379,1.074355075527757775
0.553000000000000380,1.061328853586501975
0.554000000000000381,1.048458367388497736
0.555000000000000382,1.035742152722372023
0.556000000000000383,1.023178756042976367
0.557000000000000384,1.010766734294244795
0.558000000000000385,0.998504654740369646
0.559000000000000385,0.986391094804859092
0.560000000000000386,0.974424641917228884
0.561000000000000387,0.962603893367072416
0.562000000000000388,0.950927456165180929
0.563000000000000389,0.939393946911428968
0.564000000000000390,0.928001991669222148
0.565000000000000391,0.916750225846176603
0.566000000000000392,0.905637294080841926
0.567000000000000393,0.894661850135136327
0.568000000000000393,0.883822556792368319
0.569000000000000394,0.873118085760513529
0.570000000000000395,0.862547117580564349
0.571000000000000396,0.852108341539757674
0.572000000000000397,0.841800455589395313
0.573000000000000398,0.831622166267139251
0.574000000000000399,0.821572188623514110
0.575000000000000400,0.811649246152452819
0.576000000000000401,0.801852070725719734
0.577000000000000401,0.792179402530947430
0.578000000000000402,0.782629990013214205
0.579000000000000403,0.773202589819952379
0.580000000000000404,0.763895966748945221
0.581000000000000405,0.754708893699416850
0.582000000000000406,0.745640151625879932
0.583000000000000407,0.736688529494737843
0.584000000000000408,0.727852824243401919
0.585000000000000409,0.719131840741828787
0.586000000000000409,0.710524391756352514
0.587000000000000410,0.702029297915610195
0.588000000000000411,0.693645387678563652
0.589000000000000412,0.685371497304336552
0.590000000000000413,0.677206470823902951
0.591000000000000414,0.669149160013409627
0.592000000000000415,0.661198424369053961
0.593000000000000416,0.653353131083453831
0.594000000000000417,0.645612155023343681
0.595000000000000417,0.637974378708525580
0.596000000000000418,0.630438692292025427
0.597000000000000419,0.623003993541275003
0.598000000000000420,0.615669187820342301
0.599000000000000421,0.608433188073019826
0.600000000000000422,0.601294914806765668
0.601000000000000423,0.594253296077426496
0.602000000000000424,0.587307267474590722
0.603000000000000425,0.580455772107579482
0.604000000000000425,0.573697760592006278
0.605000000000000426,0.567032191036784150
0.606000000000000427,0.560458029031554616
0.607000000000000428,0.553974247634537065
0.608000000000000429,0.547579827360586302
0.609000000000000430,0.541273756169615483
0.610000000000000431,0.535055029455136166
0.611000000000000432,0.528922650033005093
0.612000000000000433,0.522875628130270109
0.613000000000000433,0.516912981374075486
0.614000000000000434,0.511033734780598436
0.615000000000000435,0.505236920743975637
0.616000000000000436,0.499521579025202667
0.617000000000000437,0.493886756740890498
0.618000000000000438,0.488331508351957599
