# hydroxyapatite-010-ph10_FLUORANE-AC
# h[nm],U(h)[kJ/mol]
0.149999999999999994,45.066731633780321431
0.150999999999999995,44.026669657422509374
0.151999999999999996,43.173266454369965572
0.152999999999999997,42.388142328786003077
0.153999999999999998,41.617403192837883807
0.154999999999999999,40.842375581935968398
0.156000000000000000,40.061811218252778133
0.157000000000000001,39.281560643635593522
0.158000000000000002,38.508987185377179685
0.159000000000000002,37.750288852561808994
0.160000000000000003,37.009521078143201578
0.161000000000000004,36.288544270666214686
0.162000000000000005,35.587413050233386969
0.163000000000000006,34.904919631959472781
0.164000000000000007,34.239131576950690317
0.165000000000000008,33.587845209729053408
0.166000000000000009,32.948925451891170724
0.167000000000000010,32.320531250549933588
0.168000000000000010,31.701240577925695163
0.169000000000000011,31.090095227776391340
0.170000000000000012,30.486586773271760364
0.171000000000000013,29.890603357567101739
0.172000000000000014,29.302353931900473327
0.173000000000000015,28.722283049208829908
0.174000000000000016,28.150985900353770575
0.175000000000000017,27.589130232291985578
0.176000000000000018,27.037389239954460862
0.177000000000000018,26.496387504323870132
0.178000000000000019,25.966660528881295278
0.179000000000000020,25.448627345929136112
0.180000000000000021,24.942574951690534846
0.181000000000000022,24.448652911545980970
0.182000000000000023,23.966876286211125091
0.183000000000000024,23.497135006146528724
0.184000000000000025,23.039207914499975516
0.185000000000000026,22.592779867359642054
0.186000000000000026,22.157460491800719637
0.187000000000000027,21.732803432685962264
0.188000000000000028,21.318325150606970197
0.189000000000000029,20.913522553364053636
0.190000000000000030,20.517888943980029381
0.191000000000000031,20.130927944831434218
0.192000000000000032,19.752165208023303222
0.193000000000000033,19.381157846461483985
0.194000000000000034,19.017501619321656392
0.195000000000000034,18.660835981753098878
0.196000000000000035,18.310847164168961854
0.197000000000000036,17.967269484076279440
0.198000000000000037,17.629885115849464938
0.199000000000000038,17.298522553816468417
0.200000000000000039,16.973054003996878691
0.201000000000000040,16.653391932054841362
0.202000000000000041,16.339484981497072624
0.203000000000000042,16.031313458570675579
0.204000000000000042,15.728884560146472182
0.205000000000000043,15.432227499306426566
0.206000000000000044,15.141388661352499057
0.207000000000000045,14.856426901275924024
0.208000000000000046,14.577409072944025326
0.209000000000000047,14.304405860794307870
0.210000000000000048,14.037487966956486929
0.211000000000000049,13.776722690628162127
0.212000000000000050,13.522170922292650275
0.213000000000000050,13.273884563004310522
0.214000000000000051,13.031904368434558350
0.215000000000000052,12.796258208590332472
0.216000000000000053,12.566959726973664146
0.217000000000000054,12.344007377315222129
0.218000000000000055,12.127383811743314368
0.219000000000000056,11.917055591195191866
0.220000000000000057,11.712973186889682253
0.221000000000000058,11.515071240617078985
0.222000000000000058,11.323269051322705891
0.223000000000000059,11.137471255837844808
0.224000000000000060,10.957568672524551801
0.225000000000000061,10.783439277941477386
0.226000000000000062,10.614949288307951036
0.227000000000000063,10.451954319457495757
0.228000000000000064,10.294300601053295807
0.229000000000000065,10.141826223021809028
0.230000000000000066,9.994362394391339777
0.231000000000000066,9.851734696952870962
0.232000000000000067,9.713764318352763993
0.233000000000000068,9.580269251349829318
0.234000000000000069,9.451065447998455937
0.235000000000000070,9.325967919436729758
0.236000000000000071,9.204791773749908756
0.237000000000000072,9.087353186036761343
0.238000000000000073,8.973470296323734274
0.239000000000000073,8.862964032347919741
0.240000000000000074,8.755658855464456991
0.241000000000000075,8.651383429031184846
0.242000000000000076,8.549971209586217924
0.243000000000000077,8.451260961970053387
0.244000000000000078,8.355097200258214230
0.245000000000000079,8.261330556972190209
0.246000000000000080,8.169818083532783604
0.247000000000000081,8.080423485319499832
0.248000000000000081,7.993017295010858447
0.249000000000000082,7.907476988111795890
0.250000000000000111,7.823687044733402374
0.251000000000000112,7.741538961785934703
0.252000000000000113,7.660931219784662183
0.253000000000000114,7.581769208458270626
0.254000000000000115,7.503965115296573174
0.255000000000000115,7.427437781085551194
0.256000000000000116,7.352112526358413724
0.257000000000000117,7.277920952547061617
0.258000000000000118,7.204800721453841206
0.259000000000000119,7.132695316483236070
0.260000000000000120,7.061553788880876148
0.261000000000000121,6.991330492027023169
0.262000000000000122,6.921984806625923525
0.263000000000000123,6.853480859424543326
0.264000000000000123,6.785787237886022005
0.265000000000000124,6.718876703037191866
0.266000000000000125,6.652725902507148348
0.267000000000000126,6.587315085576892493
0.268000000000000127,6.522627821869226850
0.269000000000000128,6.458650725125044900
0.270000000000000129,6.395373183337062173
0.271000000000000130,6.332787096345667166
0.272000000000000131,6.270886621844653952
0.273000000000000131,6.209667930596869390
0.274000000000000132,6.149128971521906628
0.275000000000000133,6.089269247189558421
0.276000000000000134,6.030089600134060035
0.277000000000000135,5.971592010294804354
0.278000000000000136,5.913779403789177991
0.279000000000000137,5.856655473132052592
0.280000000000000138,5.800224508934087808
0.281000000000000139,5.744491243036765837
0.282000000000000139,5.689460702976093742
0.283000000000000140,5.635138077608027984
0.284000000000000141,5.581528593677350436
0.285000000000000142,5.528637403066793077
0.286000000000000143,5.476469480424705161
0.287000000000000144,5.425029530836900094
0.288000000000000145,5.374321907181030866
0.289000000000000146,5.324350536779695275
0.290000000000000147,5.275118856950837376
0.291000000000000147,5.226629759040726242
0.292000000000000148,5.178885540515278940
0.293000000000000149,5.131887864679590017
0.294000000000000150,5.085637727592713375
0.295000000000000151,5.040135431744790395
0.296000000000000152,4.995380566066268457
0.297000000000000153,4.951371991843737774
0.298000000000000154,4.908107834123787150
0.299000000000000155,4.865585478194792479
0.300000000000000155,4.823801570746587331
0.301000000000000156,4.782752025319330969
0.302000000000000157,4.742432031665115844
0.303000000000000158,4.702836068659266289
0.304000000000000159,4.663957920412075353
0.305000000000000160,4.625790695246370987
0.306000000000000161,4.588326847221077642
0.307000000000000162,4.551558199896220458
0.308000000000000163,4.515475972050126074
0.309000000000000163,4.480070805074987561
0.310000000000000164,4.445332791792347749
0.311000000000000165,4.411251506445269754
0.312000000000000166,4.377816035639108705
0.313000000000000167,4.345015010017477586
0.314000000000000168,4.312836636474690621
0.315000000000000169,4.281268730719892446
0.316000000000000170,4.250298750022046157
0.317000000000000171,4.219913825978099275
0.318000000000000171,4.190100797159672652
0.319000000000000172,4.160846241505827159
0.320000000000000173,4.132136508341544001
0.321000000000000174,4.103957749912798825
0.322000000000000175,4.076295952340057482
0.323000000000000176,4.049136965902341956
0.324000000000000177,4.022466534573881702
0.325000000000000178,3.996270324744640501
0.326000000000000179,3.970533953064853794
0.327000000000000179,3.945243013361970696
0.328000000000000180,3.920383102586257884
0.329000000000000181,3.895939845748517705
0.330000000000000182,3.871898919820357943
0.331000000000000183,3.848246076573710095
0.332000000000000184,3.824967164342258918
0.333000000000000185,3.802048148692965590
0.334000000000000186,3.779475132000892135
0.335000000000000187,3.757234371925252336
0.336000000000000187,3.735312298788865171
0.337000000000000188,3.713695531867164057
0.338000000000000189,3.692370894596393782
0.339000000000000190,3.671325428713966055
0.340000000000000191,3.650546407346779709
0.341000000000000192,3.630021347065959247
0.342000000000000193,3.609738018928800418
0.343000000000000194,3.589684458530717048
0.344000000000000195,3.569848975091913790
0.345000000000000195,3.550220159604887016
0.346000000000000196,3.530786892070373995
0.347000000000000197,3.511538347850431840
0.348000000000000198,3.492464003168216813
0.349000000000000199,3.473553639784905389
0.350000000000000200,3.454797348884682151
0.351000000000000201,3.436185534199200475
0.352000000000000202,3.417708914403228881
0.353000000000000203,3.399358524813270943
0.354000000000000203,3.381125718421080339
0.355000000000000204,3.363002166293848294
0.356000000000000205,3.344979857372666565
0.357000000000000206,3.327051097700614690
0.358000000000000207,3.309208509111450702
0.359000000000000208,3.291445027409473312
0.360000000000000209,3.273753900070564438
0.361000000000000210,3.256128683493962228
0.362000000000000210,3.238563239833605500
0.363000000000000211,3.221051733437286568
0.364000000000000212,3.203588626921141103
0.365000000000000213,3.186168676906258934
0.366000000000000214,3.168786929443470513
0.367000000000000215,3.151438715151543057
0.368000000000000216,3.134119644093208201
0.369000000000000217,3.116825600412705732
0.370000000000000218,3.099552736757567040
0.371000000000000218,3.082297468506654869
0.372000000000000219,3.065056467825530095
0.373000000000000220,3.047826657569441711
0.374000000000000221,3.030605205053354290
0.375000000000000222,3.013389515707629585
0.376000000000000223,2.996177226637084523
0.377000000000000224,2.978966200100402251
0.378000000000000225,2.961754516926006886
0.379000000000000226,2.944540469879742162
0.380000000000000226,2.927322556998875225
0.381000000000000227,2.910099474906234107
0.382000000000000228,2.892870112117468473
0.383000000000000229,2.875633542353727812
0.384000000000000230,2.858389017871335369
0.385000000000000231,2.841135962819281158
0.386000000000000232,2.823873966634774746
0.387000000000000233,2.806602777486312483
0.388000000000000234,2.789322295773209781
0.389000000000000234,2.772032567689807436
0.390000000000000235,2.754733778862026305
0.391000000000000236,2.737426248063380640
0.392000000000000237,2.720110421016937785
0.393000000000000238,2.702786864289232760
0.394000000000000239,2.685456259281615132
0.395000000000000240,2.668119396323995751
0.396000000000000241,2.650777168875494638
0.397000000000000242,2.633430567836056557
0.398000000000000242,2.616080675972618952
0.399000000000000243,2.598728662463060779
0.400000000000000244,2.581375777560725115
0.401000000000000245,2.564023347381912732
0.402000000000000246,2.546672768818481369
0.403000000000000247,2.529325504577197847
0.404000000000000248,2.511983078347317377
0.405000000000000249,2.494647070097443908
0.406000000000000250,2.477319111502507720
0.407000000000000250,2.460000881501383407
0.408000000000000251,2.442694101985445343
0.409000000000000252,2.425400533618085941
0.410000000000000253,2.408121971785022630
0.411000000000000254,2.390860242674983205
0.412000000000000255,2.373617199490192675
0.413000000000000256,2.356394718785849385
0.414000000000000257,2.339194696937677787
0.415000000000000258,2.322019046736385040
0.416000000000000258,2.304869694107825051
0.417000000000000259,2.287748574957420011
0.418000000000000260,2.270657632137335291
0.419000000000000261,2.253598812534761908
0.420000000000000262,2.236574064279568397
0.421000000000000263,2.219585334069458238
0.422000000000000264,2.202634564610728596
0.423000000000000265,2.185723692172614641
0.424000000000000266,2.168854644253121577
0.425000000000000266,2.152029337354242955
0.426000000000000267,2.135249674864340363
0.427000000000000268,2.118517545045451644
0.428000000000000269,2.101834819123252984
0.429000000000000270,2.085203349477356305
0.430000000000000271,2.068624967929583391
0.431000000000000272,2.052101484127871078
0.432000000000000273,2.035634684023406304
0.433000000000000274,2.019226328438612494
0.434000000000000274,2.002878151723548772
0.435000000000000275,1.986591860498363449
0.436000000000000276,1.970369132479357521
0.437000000000000277,1.954211615386270307
0.438000000000000278,1.938120925928401572
0.439000000000000279,1.922098648867182291
0.440000000000000280,1.906146336152827248
0.441000000000000281,1.890265506132744022
0.442000000000000282,1.874457642829331139
0.443000000000000282,1.858724195284924052
0.444000000000000283,1.843066576971544190
0.445000000000000284,1.827486165263263684
0.446000000000000285,1.811984300968932260
0.447000000000000286,1.796562287923083812
0.448000000000000287,1.781221392632881928
0.449000000000000288,1.765962843978973851
0.450000000000000289,1.750787832968173419
0.451000000000000290,1.735697512535924192
0.452000000000000290,1.720692997396539470
0.453000000000000291,1.705775363939243672
0.454000000000000292,1.690945650168089287
0.455000000000000293,1.676204855683859352
0.456000000000000294,1.661553941706101600
0.457000000000000295,1.646993831133494179
0.458000000000000296,1.632525408640769893
0.459000000000000297,1.618149520810484576
0.460000000000000298,1.603866976297924962
0.461000000000000298,1.589678546027549100
0.462000000000000299,1.575584963419331519
0.463000000000000300,1.561586924643471930
0.464000000000000301,1.547685088901944228
0.465000000000000302,1.533880078735428976
0.466000000000000303,1.520172480354176070
0.467000000000000304,1.506562843991423151
0.468000000000000305,1.493051684278019042
0.469000000000000306,1.479639480636938176
0.470000000000000306,1.466326677696415448
0.471000000000000307,1.453113685720487602
0.472000000000000308,1.440000881055734983
0.473000000000000309,1.426988606593071252
0.474000000000000310,1.414077172243493719
0.475000000000000311,1.401266855426673397
0.476000000000000312,1.388557901571404241
0.477000000000000313,1.375950524626844196
0.478000000000000314,1.363444907583642562
0.479000000000000314,1.351041203003974234
0.480000000000000315,1.338739533559613060
0.481000000000000316,1.326539992577166815
0.482000000000000317,1.314442644589646880
0.483000000000000318,1.302447525893574376
0.484000000000000319,1.290554645110850940
0.485000000000000320,1.278763983754672484
0.486000000000000321,1.267075496798759193
0.487000000000000322,1.255489113249240507
0.488000000000000322,1.244004736718547388
0.489000000000000323,1.232622246000684818
0.490000000000000324,1.221341495647294106
0.491000000000000325,1.210162316543949901
0.492000000000000326,1.199084516486136787
0.493000000000000327,1.188107880754403212
0.494000000000000328,1.177232172688202239
0.495000000000000329,1.166457134257940620
0.496000000000000330,1.155782486634822304
0.497000000000000330,1.145207930758023185
0.498000000000000331,1.134733147898850047
0.499000000000000332,1.124357800221467141
0.500000000000000333,1.114081531339849107
0.501000000000000334,1.103903966870630970
0.502000000000000335,1.093824714981523671
0.503000000000000336,1.083843366935012487
0.504000000000000337,1.073959497627045012
0.505000000000000338,1.064172666120456245
0.506000000000000338,1.054482416172881187
0.507000000000000339,1.044888276758920931
0.508000000000000340,1.035389762586364171
0.509000000000000341,1.025986374606246532
0.510000000000000342,1.016677600516581181
0.511000000000000343,1.007462915259579095
0.512000000000000344,0.998341781512211535
0.513000000000000345,0.989313650169973968
0.514000000000000346,0.980377960823705097
0.515000000000000346,0.971534142229368292
0.516000000000000347,0.962781612770672979
0.517000000000000348,0.954119780914441606
0.518000000000000349,0.945548045658645919
0.519000000000000350,0.937065796973032050
0.520000000000000351,0.928672416232281583
0.521000000000000352,0.920367276641629317
0.522000000000000353,0.912149743654937617
0.523000000000000353,0.904019175385129659
0.524000000000000354,0.895974923007017310
0.525000000000000355,0.888016331152453597
0.526000000000000356,0.880142738297828076
0.527000000000000357,0.872353477143884559
0.528000000000000358,0.864647874987863441
0.529000000000000359,0.857025254087987243
0.530000000000000360,0.849484932020293515
0.531000000000000361,0.842026222027837057
0.532000000000000361,0.834648433362292330
0.533000000000000362,0.827350871617978489
0.534000000000000363,0.820132839058358210
0.535000000000000364,0.812993634935026521
0.536000000000000365,0.805932555799270589
0.537000000000000366,0.798948895806207759
0.538000000000000367,0.792041947011601133
0.539000000000000368,0.785210999661366871
0.540000000000000369,0.778455342473868828
0.541000000000000369,0.771774262915038478
0.542000000000000370,0.765167047466417172
0.543000000000000371,0.758632981886154800
0.544000000000000372,0.752171351463070570
0.545000000000000373,0.745781441263834943
0.546000000000000374,0.739462536373345691
0.547000000000000375,0.733213922128402418
0.548000000000000376,0.727034884344728405
0.549000000000000377,0.720924709537457353
0.550000000000000377,0.714882685135134754
0.551000000000000378,0.708908099687361015
0.552000000000000379,0.703000243066125963
0.553000000000000380,0.697158406660954078
0.554000000000000381,0.691381883567934508
0.555000000000000382,0.685669968772729121
0.556000000000000383,0.680021959327663517
0.557000000000000384,0.674437154522971483
0.558000000000000385,0.668914856052312601
0.559000000000000385,0.663454368172636921
0.560000000000000386,0.658054997858499635
0.561000000000000387,0.652716054950922331
0.562000000000000388,0.647436852300894650
0.563000000000000389,0.642216705907602714
0.564000000000000390,0.637054935051497462
0.565000000000000391,0.631950862422280601
0.566000000000000392,0.626903814241915880
0.567000000000000393,0.621913120382748597
0.568000000000000393,0.616978114480842166
0.569000000000000394,0.612098134044611997
0.570000000000000395,0.607272520558860385
0.571000000000000396,0.602500619584304453
0.572000000000000397,0.597781780852678080
0.573000000000000398,0.593115358357523603
0.574000000000000399,0.588500710440740371
0.575000000000000400,0.583937199874995261
0.576000000000000401,0.579424193942088772
0.577000000000000401,0.574961064507347297
0.578000000000000402,0.570547188090152591
0.579000000000000403,0.566181945930686048
0.580000000000000404,0.561864724052967612
0.581000000000000405,0.557594913324295449
0.582000000000000406,0.553371909511148674
0.583000000000000407,0.549195113331655493
0.584000000000000408,0.545063930504700922
0.585000000000000409,0.540977771795758011
0.586000000000000409,0.536936053059530516
0.587000000000000410,0.532938195279469396
0.588000000000000411,0.528983624604273506
0.589000000000000412,0.525071772381413782
0.590000000000000413,0.521202075187794600
0.591000000000000414,0.517373974857607166
0.592000000000000415,0.513586918507451862
0.593000000000000416,0.509840358558812823
0.594000000000000417,0.506133752757950139
0.595000000000000417,0.502466564193280063
0.596000000000000418,0.498838261310323550
0.597000000000000419,0.495248317924279480
0.598000000000000420,0.491696213230303214
0.599000000000000421,0.488181431811549327
0.600000000000000422,0.484703463645044519
0.601000000000000423,0.481261804105471758
0.602000000000000424,0.477855953966901226
0.603000000000000425,0.474485419402550179
0.604000000000000425,0.471149711982639718
0.605000000000000426,0.467848348670387604
0.606000000000000427,0.464580851816208118
0.607000000000000428,0.461346749150189583
0.608000000000000429,0.458145573772871739
0.609000000000000430,0.454976864144427839
0.610000000000000431,0.451840164072257244
0.611000000000000432,0.448735022697080155
0.612000000000000433,0.445660994477566130
0.613000000000000433,0.442617639173553790
0.614000000000000434,0.439604521827917316
0.615000000000000435,0.436621212747122178
0.616000000000000436,0.433667287480526298
0.617000000000000437,0.430742326798460806
0.618000000000000438,0.427845916669155835
0.619000000000000439,0.424977648234542538
0.620000000000000440,0.422137117784981364
0.621000000000000441,0.419323926732958263
