# Tobermorite-004_EST-AC
# h[nm],U(h)[kJ/mol]
0.149999999999999994,127.474630473876942460
0.150999999999999995,125.766784300816922837
0.151999999999999996,123.765081877746553118
0.152999999999999997,121.676709442503536707
0.153999999999999998,119.606257516485953829
0.154999999999999999,117.595929946213885842
0.156000000000000000,115.653281083250320194
0.157000000000000001,113.769315547058710081
0.158000000000000002,111.929517997974670607
0.159000000000000002,110.119947306963268829
0.160000000000000003,108.330065315720361241
0.161000000000000004,106.553543598443667406
0.162000000000000005,104.787931549629206529
0.163000000000000006,103.033782834183938348
0.164000000000000007,101.293620250416978479
0.165000000000000008,99.570961631622338928
0.166000000000000009,97.869520220117621534
0.167000000000000010,96.192621045714872707
0.168000000000000010,94.542830613768302328
0.169000000000000011,92.921772709334163665
0.170000000000000012,91.330092079888927969
0.171000000000000013,89.767525405052623455
0.172000000000000014,88.233041809140090095
0.173000000000000015,86.725020761532263691
0.174000000000000016,85.241441880706290135
0.175000000000000017,83.780067850625798087
0.176000000000000018,82.338607749660468471
0.177000000000000018,80.914853264690052015
0.178000000000000019,79.506784404499484253
0.179000000000000020,78.112644455566595525
0.180000000000000021,76.730986134934738629
0.181000000000000022,75.360692322580007385
0.182000000000000023,74.000975546048692877
0.183000000000000024,72.651360686370665576
0.184000000000000025,71.311655306695001855
0.185000000000000026,69.981911686322177957
0.186000000000000026,68.662384165942313530
0.187000000000000027,67.353484848910369465
0.188000000000000028,66.055740114690067344
0.189000000000000029,64.769749825198019266
0.190000000000000030,63.496150570729604112
0.191000000000000031,62.235583826997824985
0.192000000000000032,60.988669487847481321
0.193000000000000033,59.755984902454983398
0.194000000000000034,58.538049279798642033
0.195000000000000034,57.335313122284844667
0.196000000000000035,56.148152208090152726
0.197000000000000036,54.976865550411069705
0.198000000000000037,53.821676713398893810
0.199000000000000038,52.682737851202013246
0.200000000000000039,51.560135850796164902
0.201000000000000040,50.453899994365436044
0.202000000000000041,49.364010606915428525
0.203000000000000042,48.290408214398254927
0.204000000000000042,47.233002802593325953
0.205000000000000043,46.191682833813430875
0.206000000000000044,45.166323744416779107
0.207000000000000045,44.156795709005706385
0.208000000000000046,43.162970515555414863
0.209000000000000047,42.184727448519524273
0.210000000000000048,41.221958123593871903
0.211000000000000049,40.274570258017163837
0.212000000000000050,39.342490394042542334
0.213000000000000050,38.425665620739223982
0.214000000000000051,37.524064360928832684
0.215000000000000052,36.637676306297159101
0.216000000000000053,35.766511595078540608
0.217000000000000054,34.910599333753523865
0.218000000000000055,34.069985567512830471
0.219000000000000056,33.244730804390293599
0.220000000000000057,32.434907195498581700
0.221000000000000058,31.640595469231698189
0.222000000000000058,30.861881711089313995
0.223000000000000059,30.098854073362691253
0.224000000000000060,29.351599490668736081
0.225000000000000061,28.620200468560927476
0.226000000000000062,27.904732003459606915
0.227000000000000063,27.205258683168374034
0.228000000000000064,26.521832008469850450
0.229000000000000065,25.854487967876870869
0.230000000000000066,25.203244889678007468
0.231000000000000066,24.568101588042985384
0.232000000000000067,23.949035813211313695
0.233000000000000068,23.346003009709335174
0.234000000000000069,22.758935381149292709
0.235000000000000070,22.187741255457105183
0.236000000000000071,21.632304740343382576
0.237000000000000072,21.092485655448758308
0.238000000000000073,20.568119724830083328
0.239000000000000073,20.059019011269406008
0.240000000000000074,19.564972572237774529
0.241000000000000075,19.085747316188623302
0.242000000000000076,18.621089037139945788
0.243000000000000077,18.170723605184431193
0.244000000000000078,17.734358290594691709
0.245000000000000079,17.311683199520192744
0.246000000000000080,16.902372799860579278
0.247000000000000081,16.506087516702773854
0.248000000000000081,16.122475377690676623
0.249000000000000082,15.751173689817596468
0.250000000000000111,15.391810730361381587
0.251000000000000112,15.044007435989835031
0.252000000000000113,14.707379075422801762
0.253000000000000114,14.381536892424136909
0.254000000000000115,14.066089707288963240
0.255000000000000115,13.760645466373599533
0.256000000000000116,13.464812730569263977
0.257000000000000117,13.178202094935048905
0.258000000000000118,12.900427532969292344
0.259000000000000119,12.631107660202470555
0.260000000000000120,12.369866912932383940
0.261000000000000121,12.116336638989798402
0.262000000000000122,11.870156098414264889
0.263000000000000123,11.630973372835708091
0.264000000000000123,11.398446183194682391
0.265000000000000124,11.172242616194338893
0.266000000000000125,10.952041760560211614
0.267000000000000126,10.737534254792457489
0.268000000000000127,10.528422748630184458
0.269000000000000128,10.324422280913518435
0.270000000000000129,10.125260576927784584
0.271000000000000130,9.930678268649751672
0.272000000000000131,9.740429041592385317
0.273000000000000131,9.554279712165197225
0.274000000000000132,9.372010239636486162
0.275000000000000133,9.193413676905453968
0.276000000000000134,9.018296064370236564
0.277000000000000135,8.846476271216539899
0.278000000000000136,8.677785788454217553
0.279000000000000137,8.512068477999841676
0.280000000000000138,8.349180282045750801
0.281000000000000139,8.188988896873151901
0.282000000000000139,8.031373415162416762
0.283000000000000140,7.876223940730452178
0.284000000000000141,7.723441179486025376
0.285000000000000142,7.572936010241574145
0.286000000000000143,7.424629038857212038
0.287000000000000144,7.278450139021472864
0.288000000000000145,7.134337982795441846
0.289000000000000146,6.992239563865565444
0.290000000000000147,6.852109716265355921
0.291000000000000147,6.713910631141073004
0.292000000000000148,6.577611373950904117
0.293000000000000149,6.443187404303786892
0.294000000000000150,6.310620100462975834
0.295000000000000151,6.179896290362010269
0.296000000000000152,6.051007790808083264
0.297000000000000153,5.923950956379963273
0.298000000000000154,5.798726239365699975
0.299000000000000155,5.675337761929605485
0.300000000000000155,5.553792901548813887
0.301000000000000156,5.434101890617670350
0.302000000000000157,5.316277430982832897
0.303000000000000158,5.200334324044450618
0.304000000000000159,5.086289116938040422
0.305000000000000160,4.974159765198885808
0.306000000000000161,4.863965312204797442
0.307000000000000162,4.755725585594765548
0.308000000000000163,4.649460910769782629
0.309000000000000163,4.545191841497771890
0.310000000000000164,4.442938907567185680
0.311000000000000165,4.342722379363139318
0.312000000000000166,4.244562049175488738
0.313000000000000167,4.148477028990207316
0.314000000000000168,4.054485564463212732
0.315000000000000169,3.962604864729171616
0.316000000000000170,3.872850947656733211
0.317000000000000171,3.785238500125628125
0.318000000000000171,3.699780752869997080
0.319000000000000172,3.616489369405522236
0.320000000000000173,3.535374348535964995
0.321000000000000174,3.456443939916255204
0.322000000000000175,3.379704572134910823
0.323000000000000176,3.305160792767568356
0.324000000000000177,3.232815219845647903
0.325000000000000178,3.162668504179610096
0.326000000000000179,3.094719301973966274
0.327000000000000179,3.028964257172157559
0.328000000000000180,2.965397992972013785
0.329000000000000181,2.904013111957412185
0.330000000000000182,2.844800204298929991
0.331000000000000183,2.787747863484327127
0.332000000000000184,2.732842709050125940
0.333000000000000185,2.680069415796771715
0.334000000000000186,2.629410748982308199
0.335000000000000187,2.580847605003271372
0.336000000000000187,2.534359057085638689
0.337000000000000188,2.489922405524208404
0.338000000000000189,2.447513232024128182
0.339000000000000190,2.407105457714857177
0.340000000000000191,2.368671404423436933
0.341000000000000192,2.332181858810669528
0.342000000000000193,2.297606138991228342
0.343000000000000194,2.264912163275567547
0.344000000000000195,2.234066520689180102
0.345000000000000195,2.205034542941426423
0.346000000000000196,2.177780377533713008
0.347000000000000197,2.152267061713403429
0.348000000000000198,2.128456596996648909
0.349000000000000199,2.106310023999785841
0.350000000000000200,2.085787497334921081
0.351000000000000201,2.066848360341295709
0.352000000000000202,2.049451219439265781
0.353000000000000203,2.033554017908760780
0.354000000000000203,2.019114108908699912
0.355000000000000204,2.006088327567938645
0.356000000000000205,1.994433061991986778
0.357000000000000206,1.984104323042819029
0.358000000000000207,1.975057812762093246
0.359000000000000208,1.967248991319948903
0.360000000000000209,1.960633142383481964
0.361000000000000210,1.955165436810268442
0.362000000000000210,1.950800994582821302
0.363000000000000211,1.947494944910318493
0.364000000000000212,1.945202484433505408
0.365000000000000213,1.943878933478085713
0.366000000000000214,1.943479790310543409
0.367000000000000215,1.943960783358777089
0.368000000000000216,1.945277921367620788
0.369000000000000217,1.947387541466898853
0.370000000000000218,1.950246355136384890
0.371000000000000218,1.953811492058821653
0.372000000000000219,1.958040541857954508
0.373000000000000220,1.962891593724467754
0.374000000000000221,1.968323273937850670
0.375000000000000222,1.974294781297286860
0.376000000000000223,1.980765920478973374
0.377000000000000224,1.987697133341745914
0.378000000000000225,1.995049528206518374
0.379000000000000226,2.002784907138722037
0.380000000000000226,2.010865791265975755
0.381000000000000227,2.019255444166371927
0.382000000000000228,2.027917893365128954
0.383000000000000229,2.036817949979869979
0.384000000000000230,2.045921226556926875
0.385000000000000231,2.055194153142680502
0.386000000000000232,2.064603991635869384
0.387000000000000233,2.074118848467928267
0.388000000000000234,2.083707685659791586
0.389000000000000234,2.093340330304415353
0.390000000000000235,2.102987482525220830
0.391000000000000236,2.112620721961147030
0.392000000000000237,2.122212512829590558
0.393000000000000238,2.131736207618659229
0.394000000000000239,2.141166049460502041
0.395000000000000240,2.150477173237329342
0.396000000000000241,2.159645605471757435
0.397000000000000242,2.168648263052861402
0.398000000000000242,2.177462950848945589
0.399000000000000243,2.186068358257699185
0.400000000000000244,2.194444054743890593
0.401000000000000245,2.202570484413979290
0.402000000000000246,2.210428959676690841
0.403000000000000247,2.218001654037498938
0.404000000000000248,2.225271594074411219
0.405000000000000249,2.232222650641443984
0.406000000000000250,2.238839529345374224
0.407000000000000250,2.245107760340300906
0.408000000000000251,2.251013687483626402
0.409000000000000252,2.256544456895992479
0.410000000000000253,2.261688004966704302
0.411000000000000254,2.266433045845010152
0.412000000000000255,2.270769058456613365
0.413000000000000256,2.274686273083529553
0.414000000000000257,2.278175657544456278
0.415000000000000258,2.281228903011443876
0.416000000000000258,2.283838409497788824
0.417000000000000259,2.285997271050628221
0.418000000000000260,2.287699260680807090
0.419000000000000261,2.288938815061282384
0.420000000000000262,2.289711019024277316
0.421000000000000263,2.290011589886160159
0.422000000000000264,2.289836861628038456
0.423000000000000265,2.289183768958822807
0.424000000000000266,2.288049831286378843
0.425000000000000266,2.286433136621504492
0.426000000000000267,2.284332325438103162
0.427000000000000268,2.281746574512111714
0.428000000000000269,2.278675580760563868
0.429000000000000270,2.275119545101168761
0.430000000000000271,2.271079156351852646
0.431000000000000272,2.266555575188612170
0.432000000000000273,2.261550418179187893
0.433000000000000274,2.256065741909053290
0.434000000000000274,2.250104027215298341
0.435000000000000275,2.243668163543183436
0.436000000000000276,2.236761433439117042
0.437000000000000277,2.229387497193136891
0.438000000000000278,2.221550377643023211
0.439000000000000279,2.213254445151422889
0.440000000000000280,2.204504402766613858
0.441000000000000281,2.195305271576777351
0.442000000000000282,2.185662376266827245
0.443000000000000282,2.175581330886369624
0.444000000000000283,2.165068024836385607
0.445000000000000284,2.154128609081864099
0.446000000000000285,2.142769482596817543
0.447000000000000286,2.130997279047479154
0.448000000000000287,2.118818853719066642
0.449000000000000288,2.106241270690740741
0.450000000000000289,2.093271790262986265
0.451000000000000290,2.079917856641052332
0.452000000000000290,2.066187085877616347
0.453000000000000291,2.052087254077371359
0.454000000000000292,2.037626285865749232
0.455000000000000293,2.022812243123602194
0.456000000000000294,2.007653313989208765
0.457000000000000295,1.992157802128600608
0.458000000000000296,1.976334116274819364
0.459000000000000297,1.960190760036376600
0.460000000000000298,1.943736321974795178
0.461000000000000298,1.926979465950875436
0.462000000000000299,1.909928921738919483
0.463000000000000300,1.892593475907971889
0.464000000000000301,1.874981962968746529
0.465000000000000302,1.857103256784751411
0.466000000000000303,1.838966262245823158
0.467000000000000304,1.820579907202071412
0.468000000000000305,1.801953134656024691
0.469000000000000306,1.783094895210565856
0.470000000000000306,1.764014139770051726
0.471000000000000307,1.744719812491867916
0.472000000000000308,1.725220843985456609
0.473000000000000309,1.705526144755755480
0.474000000000000310,1.685644598887841239
0.475000000000000311,1.665585057969383387
0.476000000000000312,1.645356335247520674
0.477000000000000313,1.624967200016512736
0.478000000000000314,1.604426372232582665
0.479000000000000314,1.583742517352127122
0.480000000000000315,1.562924241389531455
0.481000000000000316,1.541980086190636978
0.482000000000000317,1.520918524917954651
0.483000000000000318,1.499747957743568172
0.484000000000000319,1.478476707745712382
0.485000000000000320,1.457113017004903366
0.486000000000000321,1.435665042895507559
0.487000000000000322,1.414140854568591843
0.488000000000000322,1.392548429621914163
0.489000000000000323,1.370895650952827172
0.490000000000000324,1.349190303789944201
0.491000000000000325,1.327440072899356949
0.492000000000000326,1.305652539961235092
0.493000000000000327,1.283835181112606305
0.494000000000000328,1.261995364652168661
0.495000000000000329,1.240140348902969425
0.496000000000000330,1.218277280228848625
0.497000000000000330,1.196413191200482062
0.498000000000000331,1.174554998907029191
0.499000000000000332,1.152709503409278469
0.500000000000000333,1.130883386330269635
0.501000000000000334,1.109083209579493579
0.502000000000000335,1.087315414206626807
0.503000000000000336,1.065586319381011782
0.504000000000000337,1.043902121492945811
0.505000000000000338,1.022268893373043053
0.506000000000000338,1.000692583625872656
0.507000000000000339,0.979179016074183117
0.508000000000000340,0.957733889310078412
0.509000000000000341,0.936362776349505266
0.510000000000000342,0.915071124386565016
0.511000000000000343,0.893864254644102241
0.512000000000000344,0.872747362317187525
0.513000000000000345,0.851725516606114952
0.514000000000000346,0.830803660835546354
0.515000000000000346,0.809986612656637517
0.516000000000000347,0.789279064328896829
0.517000000000000348,0.768685583078627666
0.518000000000000349,0.748210611530936043
0.519000000000000350,0.727858468212257192
0.520000000000000351,0.707633348120461192
0.521000000000000352,0.687539323359634635
0.522000000000000353,0.667580343836762125
0.523000000000000353,0.647760238017473067
0.524000000000000354,0.628082713738218668
0.525000000000000355,0.608551359072185938
0.526000000000000356,0.589169643246422958
0.527000000000000357,0.569940917607610453
0.528000000000000358,0.550868416634038960
0.529000000000000359,0.531955258991416269
0.530000000000000360,0.513204448630150245
0.531000000000000361,0.494618875921825740
0.532000000000000361,0.476201318832667364
0.533000000000000362,0.457954444131836169
0.534000000000000363,0.439880808632458209
0.535000000000000364,0.421982860463310350
0.536000000000000365,0.404262940369238155
0.537000000000000366,0.386723283038310217
0.538000000000000367,0.369366018453898715
0.539000000000000368,0.352193173269791382
0.540000000000000369,0.335206672206646017
0.541000000000000369,0.318408339468006063
0.542000000000000370,0.301799900174277103
0.543000000000000371,0.285382981813008196
0.544000000000000372,0.269159115703934526
0.545000000000000373,0.253129738477286703
0.546000000000000374,0.237296193563879987
0.547000000000000375,0.221659732695607736
0.548000000000000376,0.206221517414923561
0.549000000000000377,0.190982620592061419
0.550000000000000377,0.175944027948643000
0.551000000000000378,0.161106639586524408
0.552000000000000379,0.146471271520636076
0.553000000000000380,0.132038657214705202
0.554000000000000381,0.117809449118770698
0.555000000000000382,0.103784220207386452
0.556000000000000383,0.089963465517569202
0.557000000000000384,0.076347603685433169
0.558000000000000385,0.062936978480644473
0.559000000000000385,0.049731860337740366
0.560000000000000386,0.036732447883475974
0.561000000000000387,0.023938869459366713
0.562000000000000388,0.011351184638636958
0.563000000000000389,-0.001030614263217322
0.564000000000000390,-0.013206600684910957
0.565000000000000391,-0.025176912323663619
0.566000000000000392,-0.036941749647907127
0.567000000000000393,-0.048501374419084600
0.568000000000000393,-0.059856108223086790
0.569000000000000394,-0.071006331011956997
0.570000000000000395,-0.081952479656358962
0.571000000000000396,-0.092695046509327111
0.572000000000000397,-0.103234577981830444
0.573000000000000398,-0.113571673130537509
0.574000000000000399,-0.123706982258285220
0.575000000000000400,-0.133641205527616436
0.576000000000000401,-0.143375091587777670
0.577000000000000401,-0.152909436215582117
0.578000000000000402,-0.162245080970411959
0.579000000000000403,-0.171382911863709991
0.580000000000000404,-0.180323858043281521
0.581000000000000405,-0.189068890492622654
0.582000000000000406,-0.197619020745583851
0.583000000000000407,-0.205975299616570628
0.584000000000000408,-0.214138815946520567
0.585000000000000409,-0.222110695364827831
0.586000000000000409,-0.229892099067422917
0.587000000000000410,-0.237484222611171386
0.588000000000000411,-0.244888294724689370
0.589000000000000412,-0.252105576135798815
0.590000000000000413,-0.259137358415636287
0.591000000000000414,-0.265984962839589778
0.592000000000000415,-0.272649739265123314
0.593000000000000416,-0.279133065026556104
0.594000000000000417,-0.285436343846863338
0.595000000000000417,-0.291561004766566045
0.596000000000000418,-0.297508501089685184
0.597000000000000419,-0.303280309346870725
0.598000000000000420,-0.308877928275616387
0.599000000000000421,-0.314302877817660642
0.600000000000000422,-0.319556698133482198
0.601000000000000423,-0.324640948633907578
0.602000000000000424,-0.329557207028807475
0.603000000000000425,-0.334307068392839524
0.604000000000000425,-0.338892144248145566
0.605000000000000426,-0.343314061664014014
0.606000000000000427,-0.347574462373424653
0.607000000000000428,-0.351675001906325169
0.608000000000000429,-0.355617348739727501
0.609000000000000430,-0.359403183464326370
0.610000000000000431,-0.363034197967744054
0.611000000000000432,-0.366512094634168506
0.612000000000000433,-0.369838585560320010
0.613000000000000433,-0.373015391787675843
0.614000000000000434,-0.376044242550766405
0.615000000000000435,-0.378926874541460734
0.616000000000000436,-0.381665031189106885
0.617000000000000437,-0.384260461956416832
0.618000000000000438,-0.386714921650913368
0.619000000000000439,-0.389030169751827526
