# Tobermorite-004_GLUSCA-AC
# h[nm],U(h)[kJ/mol]
0.149999999999999994,128.129289879840200683
0.150999999999999995,126.048623843785435383
0.151999999999999996,123.440393192174127535
0.152999999999999997,120.688715327931134880
0.153999999999999998,117.962243420730715115
0.154999999999999999,115.317463698237730796
0.156000000000000000,112.758533931300462427
0.157000000000000001,110.270096252182071339
0.158000000000000002,107.833795204047390826
0.159000000000000002,105.435376883886220867
0.160000000000000003,103.066670718607952040
0.161000000000000004,100.725061651357293613
0.162000000000000005,98.411966302410007756
0.163000000000000006,96.131135981572214178
0.164000000000000007,93.887186576781346048
0.165000000000000008,91.684507242665304716
0.166000000000000009,89.526563283024685802
0.167000000000000010,87.415541323890948888
0.168000000000000010,85.352258877492118927
0.169000000000000011,83.336257634566564434
0.170000000000000012,81.366008901583114721
0.171000000000000013,79.439173584886262347
0.172000000000000014,77.552874002367701678
0.173000000000000015,75.703948436032277414
0.174000000000000016,73.889170753444730622
0.175000000000000017,72.105426346128780324
0.176000000000000018,70.349842171032804572
0.177000000000000018,68.619873143216636890
0.178000000000000019,66.913349893464783236
0.179000000000000020,65.228494356414927324
0.180000000000000021,63.563910141470287840
0.181000000000000022,61.918554457035838823
0.182000000000000023,60.291697748889191644
0.183000000000000024,58.682876362057847075
0.184000000000000025,57.091842580646435579
0.185000000000000026,55.518515439304664483
0.186000000000000026,53.962934798306847028
0.187000000000000027,52.425220370812496640
0.188000000000000028,50.905536705854267154
0.189000000000000029,49.404064570143560786
0.190000000000000030,47.920978732533932032
0.191000000000000031,46.456431827445058502
0.192000000000000032,45.010543744691474899
0.193000000000000033,43.583395848319284482
0.194000000000000034,42.175029251306050071
0.195000000000000034,40.785446352039365081
0.196000000000000035,39.414614859305672212
0.197000000000000036,38.062473583576640124
0.198000000000000037,36.728939343835321552
0.199000000000000038,35.413914422877077470
0.200000000000000039,34.117294093378802700
0.201000000000000040,32.838973826933425926
0.202000000000000041,31.578855884858587189
0.203000000000000042,30.336855070176198979
0.204000000000000042,29.112903492911250680
0.205000000000000043,27.906954264724600279
0.206000000000000044,26.718984093417333270
0.207000000000000045,25.548994793040073148
0.208000000000000046,24.397013761562760692
0.209000000000000047,23.263093505910113379
0.210000000000000048,22.147310314407928189
0.211000000000000049,21.049762190172167209
0.212000000000000050,19.970566166599301283
0.213000000000000050,18.909855128783910061
0.214000000000000051,17.867774263255544298
0.215000000000000052,16.844477253708369346
0.216000000000000053,15.840122333134214472
0.217000000000000054,14.854868293631984244
0.218000000000000055,13.888870544741369173
0.219000000000000056,12.942277299945317282
0.220000000000000057,12.015225959428953217
0.221000000000000058,11.107839745638020901
0.222000000000000058,10.220224636921722450
0.223000000000000059,9.352466633812259289
0.224000000000000060,8.504629382446896813
0.225000000000000061,7.676752170404311570
0.226000000000000062,6.868848301884662888
0.227000000000000063,6.080903851755302902
0.228000000000000064,5.312876791528362119
0.229000000000000065,4.564696474819210259
0.230000000000000066,3.836263465233025194
0.231000000000000066,3.127449685889955422
0.232000000000000067,2.438098866879560678
0.233000000000000068,1.768027264764250317
0.234000000000000069,1.117024626766021100
0.235000000000000070,0.484855371398279555
0.236000000000000071,-0.128740043023332085
0.237000000000000072,-0.724043590413352089
0.238000000000000073,-1.301358017362481023
0.239000000000000073,-1.861005078973365645
0.240000000000000074,-2.403323695888960110
0.241000000000000075,-2.928668056914026430
0.242000000000000076,-3.437405690055592711
0.243000000000000077,-3.929915523105279362
0.244000000000000078,-4.406585953096850083
0.245000000000000079,-4.867812942133743270
0.246000000000000080,-5.313998155224871844
0.247000000000000081,-5.745547153922473171
0.248000000000000081,-6.162867657743920979
0.249000000000000082,-6.566367883602213240
0.250000000000000111,-6.956454971782815910
0.251000000000000112,-7.333533505399605801
0.252000000000000113,-7.698004128751975372
0.253000000000000114,-8.050262268591827919
0.254000000000000115,-8.390696961003998311
0.255000000000000115,-8.719689785402938043
0.256000000000000116,-9.037613906058876267
0.257000000000000117,-9.344833220584121136
0.258000000000000118,-9.641701613933671311
0.259000000000000119,-9.928562315702269103
0.260000000000000120,-10.205747357827441135
0.261000000000000121,-10.473577129229994398
0.262000000000000122,-10.732360023437118812
0.263000000000000123,-10.982392174830291509
0.264000000000000123,-11.223957278838009088
0.265000000000000124,-11.457326491143227543
0.266000000000000125,-11.682758400794163833
0.267000000000000126,-11.900499071986313737
0.268000000000000127,-12.110782149219994963
0.269000000000000128,-12.313829020523076707
0.270000000000000129,-12.509849033459804701
0.271000000000000130,-12.699039758717022508
0.272000000000000131,-12.881587296163951706
0.273000000000000131,-13.057666618416698512
0.274000000000000132,-13.227441947098702357
0.275000000000000133,-13.391067157170368773
0.276000000000000134,-13.548686204899746954
0.277000000000000135,-13.700433575259173935
0.278000000000000136,-13.846434744756644264
0.279000000000000137,-13.986806655941739663
0.280000000000000138,-14.121658200062432442
0.281000000000000139,-14.251090704588131430
0.282000000000000139,-14.375198422553836508
0.283000000000000140,-14.494069020918411539
0.284000000000000141,-14.607784065364910475
0.285000000000000142,-14.716419499201785825
0.286000000000000143,-14.820046114248350833
0.287000000000000144,-14.918730011805687141
0.288000000000000145,-15.012533052025469615
0.289000000000000146,-15.101513290189775063
0.290000000000000147,-15.185725398609211112
0.291000000000000147,-15.265221073029456633
0.292000000000000148,-15.340049422610880114
0.293000000000000149,-15.410257342709291706
0.294000000000000150,-15.475889869840369073
0.295000000000000151,-15.536990518354063084
0.296000000000000152,-15.593601598479191139
0.297000000000000153,-15.645764515522717630
0.298000000000000154,-15.693520050122458542
0.299000000000000155,-15.736908619557155475
0.300000000000000155,-15.775970520213320469
0.301000000000000156,-15.810746151395406400
0.302000000000000157,-15.841276220744191505
0.303000000000000158,-15.867601931598048992
0.304000000000000159,-15.889765152694693029
0.305000000000000160,-15.907808570665096681
0.306000000000000161,-15.921775825819656447
0.307000000000000162,-15.931711631767578652
0.308000000000000163,-15.937661879445139235
0.309000000000000163,-15.939673726157755240
0.310000000000000164,-15.937795670264117476
0.311000000000000165,-15.932077612148912493
0.312000000000000166,-15.922570902144684624
0.313000000000000167,-15.909328376072267019
0.314000000000000168,-15.892404379074719145
0.315000000000000169,-15.871854778421347731
0.316000000000000170,-15.847736965956645605
0.317000000000000171,-15.820109850864099599
0.318000000000000171,-15.789033843407562330
0.319000000000000172,-15.754570830302947471
0.320000000000000173,-15.716784142360728183
0.321000000000000174,-15.675738515026058195
0.322000000000000175,-15.631500042427370900
0.323000000000000176,-15.584136125527464856
0.324000000000000177,-15.533715414952641964
0.325000000000000178,-15.480307749055914002
0.326000000000000179,-15.423984087750563177
0.327000000000000179,-15.364816442628875137
0.328000000000000180,-15.302877803859681549
0.329000000000000181,-15.238242064336853687
0.330000000000000182,-15.170983941528035643
0.331000000000000183,-15.101178897451688954
0.332000000000000184,-15.028903057187505965
0.333000000000000185,-14.954233126303595469
0.334000000000000186,-14.877246307561851069
0.335000000000000187,-14.798020217240956953
0.336000000000000187,-14.716632801395638452
0.337000000000000188,-14.633162252349086074
0.338000000000000189,-14.547686925695725080
0.339000000000000190,-14.460285258070962655
0.340000000000000191,-14.371035685925090064
0.341000000000000192,-14.280016565520014638
0.342000000000000193,-14.187306094348519636
0.343000000000000194,-14.092982234158791144
0.344000000000000195,-13.997122635749168040
0.345000000000000195,-13.899804565682433832
0.346000000000000196,-13.801104835052532493
0.347000000000000197,-13.701099730422132694
0.348000000000000198,-13.599864947034770779
0.349000000000000199,-13.497475524391708390
0.350000000000000200,-13.394005784270722970
0.351000000000000201,-13.289529271251534936
0.352000000000000202,-13.184118695801100074
0.353000000000000203,-13.077845879960866782
0.354000000000000203,-12.970781705667743466
0.355000000000000204,-12.862996065730708750
0.356000000000000205,-12.754557817476014137
0.357000000000000206,-12.645534739065357854
0.358000000000000207,-12.535993488483175184
0.359000000000000208,-12.425999565182246798
0.360000000000000209,-12.315617274369689227
0.361000000000000210,-12.204909693909067769
0.362000000000000210,-12.093938643808701983
0.363000000000000211,-11.982764658260771640
0.364000000000000212,-11.871446960191146758
0.365000000000000213,-11.760043438275127770
0.366000000000000214,-11.648610626370773602
0.367000000000000215,-11.537203685317415136
0.368000000000000216,-11.425876387044215932
0.369000000000000217,-11.314681100930489066
0.370000000000000218,-11.203668782357299349
0.371000000000000218,-11.092888963387427026
0.372000000000000219,-10.982389745509340884
0.373000000000000220,-10.872217794379007927
0.374000000000000221,-10.762418336492295623
0.375000000000000222,-10.653035157719623172
0.376000000000000223,-10.544110603633969347
0.377000000000000224,-10.435685581562706759
0.378000000000000225,-10.327799564293474788
0.379000000000000226,-10.220490595364237763
0.380000000000000226,-10.113795295867920032
0.381000000000000227,-10.007748872701927922
0.382000000000000228,-9.902385128193756714
0.383000000000000229,-9.797736471034195205
0.384000000000000230,-9.693833928450249715
0.385000000000000231,-9.590707159551199013
0.386000000000000232,-9.488384469781644626
0.387000000000000233,-9.386892826416783464
0.388000000000000234,-9.286257875036133314
0.389000000000000234,-9.186503956913366409
0.390000000000000235,-9.087654127260821113
0.391000000000000236,-8.989730174269183749
0.392000000000000237,-8.892752638883587579
0.393000000000000238,-8.796740835259603486
0.394000000000000239,-8.701712871843270136
0.395000000000000240,-8.607685673021679307
0.396000000000000241,-8.514675001291575285
0.397000000000000242,-8.422695479895333293
0.398000000000000242,-8.331760615875266396
0.399000000000000243,-8.241882823498794863
0.400000000000000244,-8.153073448008475665
0.401000000000000245,-8.065342789653021427
0.402000000000000246,-7.978700127956424026
0.403000000000000247,-7.893153746184383479
0.404000000000000248,-7.808710955968715339
0.405000000000000249,-7.725378122052037000
0.406000000000000250,-7.643160687116465013
0.407000000000000250,-7.562063196661988229
0.408000000000000251,-7.482089323901261579
0.409000000000000252,-7.403241894639566389
0.410000000000000253,-7.325522912109764029
0.411000000000000254,-7.248933581733888687
0.412000000000000255,-7.173474335784232103
0.413000000000000256,-7.099144857918363805
0.414000000000000257,-7.025944107563736551
0.415000000000000258,-6.953870344129124526
0.416000000000000258,-6.882921151021188955
0.417000000000000259,-6.813093459446010414
0.418000000000000260,-6.744383571976511504
0.419000000000000261,-6.676787185867961050
0.420000000000000262,-6.610299416104981951
0.421000000000000263,-6.544914818164635051
0.422000000000000264,-6.480627410481140771
0.423000000000000265,-6.417430696598991346
0.424000000000000266,-6.355317687002406402
0.425000000000000266,-6.294280920609643282
0.426000000000000267,-6.234312485922134606
0.427000000000000268,-6.175404041819099632
0.428000000000000269,-6.117546837989178421
0.429000000000000270,-6.060731734991674280
0.430000000000000271,-6.004949223940608150
0.431000000000000272,-5.950189445805784239
0.432000000000000273,-5.896442210325688826
0.433000000000000274,-5.843697014527903022
0.434000000000000274,-5.791943060853300018
0.435000000000000275,-5.741169274881071871
0.436000000000000276,-5.691364322652217034
0.437000000000000277,-5.642516627589714950
0.438000000000000278,-5.594614387014271273
0.439000000000000279,-5.547645588255038618
0.440000000000000280,-5.501598024355171646
0.441000000000000281,-5.456459309372688082
0.442000000000000282,-5.412216893277575380
0.443000000000000282,-5.368858076446356264
0.444000000000000283,-5.326370023756050287
0.445000000000000284,-5.284739778279581301
0.446000000000000285,-5.243954274585137298
0.447000000000000286,-5.204000351642595668
0.448000000000000287,-5.164864765339925334
0.449000000000000288,-5.126534200613379610
0.450000000000000289,-5.088995283195115960
0.451000000000000290,-5.052234590982423335
0.452000000000000290,-5.016238665032862976
0.453000000000000291,-4.980994020189903004
0.454000000000000292,-4.946487155343822550
0.455000000000000293,-4.912704563332841445
0.456000000000000294,-4.879632740489680209
0.457000000000000295,-4.847258195838826111
0.458000000000000296,-4.815567459949962270
0.459000000000000297,-4.784547093453229039
0.460000000000000298,-4.754183695221923855
0.461000000000000298,-4.724463910228582364
0.462000000000000299,-4.695374437080273466
0.463000000000000300,-4.666902035239128388
0.464000000000000301,-4.639033531934190435
0.465000000000000302,-4.611755828770705889
0.466000000000000303,-4.585055908043001338
0.467000000000000304,-4.558920838757168248
0.468000000000000305,-4.533337782369841307
0.469000000000000306,-4.508293998249226497
0.470000000000000306,-4.483776848864790665
0.471000000000000307,-4.459773804711700151
0.472000000000000308,-4.436272448976454896
0.473000000000000309,-4.413260481949846437
0.474000000000000310,-4.390725725193503237
0.475000000000000311,-4.368656125466250373
0.476000000000000312,-4.347039758416467947
0.477000000000000313,-4.325864832046507402
0.478000000000000314,-4.305119689955324347
0.479000000000000314,-4.284792814365414593
0.480000000000000315,-4.264872828939880733
0.481000000000000316,-4.245348501395794116
0.482000000000000317,-4.226208745919487697
0.483000000000000318,-4.207442625389796298
0.484000000000000319,-4.189039353414814926
0.485000000000000320,-4.170988296187985611
0.486000000000000321,-4.153278974169007043
0.487000000000000322,-4.135901063595129656
0.488000000000000322,-4.118844397828246073
0.489000000000000323,-4.102098968543193003
0.490000000000000324,-4.085654926762460448
0.491000000000000325,-4.069502583742570678
0.492000000000000326,-4.053632411717140727
0.493000000000000327,-4.038035044501746107
0.494000000000000328,-4.022701277965422761
0.495000000000000329,-4.007622070373692225
0.496000000000000330,-3.992788542607820457
0.497000000000000330,-3.978191978265007034
0.498000000000000331,-3.963823823643980226
0.499000000000000332,-3.949675687620565867
0.500000000000000333,-3.935739341417540338
0.501000000000000334,-3.922006718273042480
0.502000000000000335,-3.908469913011761498
0.503000000000000336,-3.895121181522989584
0.504000000000000337,-3.881952940149523190
0.505000000000000338,-3.868957764991327597
0.506000000000000338,-3.856128391127799038
0.507000000000000339,-3.843457711762316986
0.508000000000000340,-3.830938777292733910
0.509000000000000341,-3.818564794311381405
0.510000000000000342,-3.806329124537974451
0.511000000000000343,-3.794225283688839490
0.512000000000000344,-3.782246940285708181
0.513000000000000345,-3.770387914407269392
0.514000000000000346,-3.758642176386634226
0.515000000000000346,-3.747003845457624660
0.516000000000000347,-3.735467188352909140
0.517000000000000348,-3.724026617856841082
0.518000000000000349,-3.712676691315665245
0.519000000000000350,-3.701412109107899084
0.520000000000000351,-3.690227713077427918
0.521000000000000352,-3.679118484931866995
0.522000000000000353,-3.668079544608619180
0.523000000000000353,-3.657106148611025898
0.524000000000000354,-3.646193688316916592
0.525000000000000355,-3.635337688261756739
0.526000000000000356,-3.624533804398561987
0.527000000000000357,-3.613777822336683876
0.528000000000000358,-3.603065655561446423
0.529000000000000359,-3.592393343636602232
0.530000000000000360,-3.581757050391475961
0.531000000000000361,-3.571153062094623465
0.532000000000000361,-3.560577785615751001
0.533000000000000362,-3.550027746577549159
0.534000000000000363,-3.539499587499141509
0.535000000000000364,-3.528990065932627651
0.536000000000000365,-3.518496052594286105
0.537000000000000366,-3.508014529491868760
0.538000000000000367,-3.497542588049344481
0.539000000000000368,-3.487077427230527604
0.540000000000000369,-3.476616351662725091
0.541000000000000369,-3.466156769761801204
0.542000000000000370,-3.455696191859698896
0.543000000000000371,-3.445232228335621816
0.544000000000000372,-3.434762587751967633
0.545000000000000373,-3.424285074995998546
0.546000000000000374,-3.413797589428275270
0.547000000000000375,-3.403298123038767553
0.548000000000000376,-3.392784758611606666
0.549000000000000377,-3.382255667899250362
0.550000000000000377,-3.371709109806929838
0.551000000000000378,-3.361143428588147852
0.552000000000000379,-3.350557052051963414
0.553000000000000380,-3.339948489782753605
0.554000000000000381,-3.329316331373119109
0.555000000000000382,-3.318659244670585373
0.556000000000000383,-3.307975974038625200
0.557000000000000384,-3.297265338632651144
0.558000000000000385,-3.286526230691416917
0.559000000000000385,-3.275757613844398008
0.560000000000000386,-3.264958521435537442
0.561000000000000387,-3.254128054863866915
0.562000000000000388,-3.243265381941339509
0.563000000000000389,-3.232369735268320277
0.564000000000000390,-3.221440410626998929
0.565000000000000391,-3.210476765393140308
0.566000000000000392,-3.199478216966401334
0.567000000000000393,-3.188444241219529740
0.568000000000000393,-3.177374370966662198
0.569000000000000394,-3.166268194450983398
0.570000000000000395,-3.155125353851942371
0.571000000000000396,-3.143945543812170396
0.572000000000000397,-3.132728509984356258
0.573000000000000398,-3.121474047598112644
0.574000000000000399,-3.110182000047059248
0.575000000000000400,-3.098852257496157669
0.576000000000000401,-3.087484755509422918
0.577000000000000401,-3.076079473698105637
0.578000000000000402,-3.064636434389343744
0.579000000000000403,-3.053155701315365178
0.580000000000000404,-3.041637378323295504
0.581000000000000405,-3.030081608105506863
0.582000000000000406,-3.018488570950585093
0.583000000000000407,-3.006858483514839087
0.584000000000000408,-2.995191597614390577
0.585000000000000409,-2.983488199037730659
0.586000000000000409,-2.971748606378756374
0.587000000000000410,-2.959973169890210976
0.588000000000000411,-2.948162270357411074
0.589000000000000412,-2.936316317992265557
0.590000000000000413,-2.924435751347403745
0.591000000000000414,-2.912521036250378170
0.592000000000000415,-2.900572664757817609
0.593000000000000416,-2.888591154129377170
0.594000000000000417,-2.876577045821414824
0.595000000000000417,-2.864530904500260711
0.596000000000000418,-2.852453317074843842
0.597000000000000419,-2.840344891748704192
0.598000000000000420,-2.828206257091059772
0.599000000000000421,-2.816038061126895808
0.600000000000000422,-2.803840970445858005
0.601000000000000423,-2.791615669329791327
0.602000000000000424,-2.779362858898754673
0.603000000000000425,-2.767083256275345793
0.604000000000000425,-2.754777593767122834
0.605000000000000426,-2.742446618066960884
0.606000000000000427,-2.730091089471193389
0.607000000000000428,-2.717711781115199621
0.608000000000000429,-2.705309478226497699
0.609000000000000430,-2.692884977394828017
0.610000000000000431,-2.680439085859332771
