# Tobermorite-004_MAMM-AC
# h[nm],U(h)[kJ/mol]
0.149999999999999994,93.175091380823829468
0.150999999999999995,92.421530138813352551
0.151999999999999996,90.732524312633188401
0.152999999999999997,88.823819886218515762
0.153999999999999998,86.976122450036015721
0.154999999999999999,85.258251799066414378
0.156000000000000000,83.650406093035655886
0.157000000000000001,82.107645613212326907
0.158000000000000002,80.588932099826365629
0.159000000000000002,79.067367935840962900
0.160000000000000003,77.531013513325461872
0.161000000000000004,75.979681984271081774
0.162000000000000005,74.420640366269040555
0.163000000000000006,72.864657511002988599
0.164000000000000007,71.322978807580412308
0.165000000000000008,69.805339613979171531
0.166000000000000009,68.318900218531979363
0.167000000000000010,66.867895283284667585
0.168000000000000010,65.453777464481362358
0.169000000000000011,64.075659673286949669
0.170000000000000012,62.730900397937318758
0.171000000000000013,61.415718869754371667
0.172000000000000014,60.125765091242975302
0.173000000000000015,58.856601095035841809
0.174000000000000016,57.604073668720069179
0.175000000000000017,56.364575708074781346
0.176000000000000018,55.135204416669388650
0.177000000000000018,53.913830974380445582
0.178000000000000019,52.699099224943140030
0.179000000000000020,51.490371410215665549
0.180000000000000021,50.287637849619429176
0.181000000000000022,49.091405384982024884
0.182000000000000023,47.902576873112316491
0.183000000000000024,46.722331357115230333
0.184000000000000025,45.552012013152577197
0.185000000000000026,44.393026692666197164
0.186000000000000026,43.246763934598092760
0.187000000000000027,42.114525733589672996
0.188000000000000028,40.997477111741318367
0.189000000000000029,39.896611625923767974
0.190000000000000030,38.812731310889418523
0.191000000000000031,37.746439166438776169
0.192000000000000032,36.698142099901183144
0.193000000000000033,35.668062190730054795
0.194000000000000034,34.656254213704329459
0.195000000000000034,33.662627507662449489
0.196000000000000035,32.686970479769527742
0.197000000000000036,31.728976268127588867
0.198000000000000037,30.788268330017206864
0.199000000000000038,29.864424965474746898
0.200000000000000039,28.957002016283759360
0.201000000000000040,28.065553191965371127
0.202000000000000041,27.189647662760574320
0.203000000000000042,26.328884722727952550
0.204000000000000042,25.482905463352686581
0.205000000000000043,24.651401510082965984
0.206000000000000044,23.834120962423625656
0.207000000000000045,23.030871744641707721
0.208000000000000046,22.241522621120715542
0.209000000000000047,21.466002160448809377
0.210000000000000048,20.704295947969946212
0.211000000000000049,19.956442350221401227
0.212000000000000050,19.222527128727019630
0.213000000000000050,18.502677187130846193
0.214000000000000051,17.797053716525883971
0.215000000000000052,17.105844980721709447
0.216000000000000053,16.429258957527387963
0.217000000000000054,15.767516025104679755
0.218000000000000055,15.120841855062824521
0.219000000000000056,14.489460647016324302
0.220000000000000057,13.873588813431643629
0.221000000000000058,13.273429199219410890
0.222000000000000058,12.689165898012742417
0.223000000000000059,12.120959706635327180
0.224000000000000060,11.568944241022546038
0.225000000000000061,11.033222720862427835
0.226000000000000062,10.513865416449799994
0.227000000000000063,10.010907739627047164
0.228000000000000064,9.524348951112996176
0.229000000000000065,9.054151448859991902
0.230000000000000066,8.600240596178917230
0.231000000000000066,8.162505044064808146
0.232000000000000067,7.740797499275577920
0.233000000000000068,7.334935888090887701
0.234000000000000069,6.944704865143769723
0.235000000000000070,6.569857617113649795
0.236000000000000071,6.210117912246305494
0.237000000000000072,5.865182348483426900
0.238000000000000073,5.534722755314136933
0.239000000000000073,5.218388707186551123
0.240000000000000074,4.915810109332978683
0.241000000000000075,4.626599820077975878
0.242000000000000076,4.350356277031035113
0.243000000000000077,4.086666097946132226
0.244000000000000078,3.835106630399345740
0.245000000000000079,3.595248427743508834
0.246000000000000080,3.366657632004470546
0.247000000000000081,3.148898247453631782
0.248000000000000081,2.941534291501786136
0.249000000000000082,2.744131812289553718
0.250000000000000111,2.556260764886988834
0.251000000000000112,2.377496740351108251
0.252000000000000113,2.207422544019931543
0.253000000000000114,2.045629621346532812
0.254000000000000115,1.891719331296247919
0.255000000000000115,1.745304068852672641
0.256000000000000116,1.606008239507672686
0.257000000000000117,1.473469089757810879
0.258000000000000118,1.347337398603411618
0.259000000000000119,1.227278035857605420
0.260000000000000120,1.112970393732260810
0.261000000000000121,1.004108698688304324
0.262000000000000122,0.900402210929562630
0.263000000000000123,0.801575319195580116
0.264000000000000123,0.707367538679251395
0.265000000000000124,0.617533419972964404
0.266000000000000125,0.531842376940539929
0.267000000000000126,0.450078441334228585
0.268000000000000127,0.372039951833799343
0.269000000000000128,0.297539184989329519
0.270000000000000129,0.226401935307708330
0.271000000000000130,0.158467051443639317
0.272000000000000131,0.093585935146242430
0.273000000000000131,0.031622009278426864
0.274000000000000132,-0.027549839125485320
0.275000000000000133,-0.084043835163157610
0.276000000000000134,-0.137963906500147171
0.277000000000000135,-0.189404283085825131
0.278000000000000136,-0.238450101672759013
0.279000000000000137,-0.285178011035272960
0.280000000000000138,-0.329656774149089504
0.281000000000000139,-0.371947863951455404
0.282000000000000139,-0.412106049647800177
0.283000000000000140,-0.450179970865523416
0.284000000000000141,-0.486212697275975991
0.285000000000000142,-0.520242271611674911
0.286000000000000143,-0.552302234296054073
0.287000000000000144,-0.582422128176973475
0.288000000000000145,-0.610627982113129297
0.289000000000000146,-0.636942772402957269
0.290000000000000147,-0.661386861270220061
0.291000000000000147,-0.683978411827753874
0.292000000000000148,-0.704733779132405203
0.293000000000000149,-0.723667877119328451
0.294000000000000150,-0.740794521363703717
0.295000000000000151,-0.756126747762814522
0.296000000000000152,-0.769677107361560586
0.297000000000000153,-0.781457937661342306
0.298000000000000154,-0.791481610855278350
0.299000000000000155,-0.799760759523884812
0.300000000000000155,-0.806308480404241523
0.301000000000000156,-0.811138516913674557
0.302000000000000157,-0.814265421166600945
0.303000000000000158,-0.815704696270939777
0.304000000000000159,-0.815472919729522738
0.305000000000000160,-0.813587848802125202
0.306000000000000161,-0.810068508706914825
0.307000000000000162,-0.804935264555630026
0.308000000000000163,-0.798209877926188915
0.309000000000000163,-0.789915548979986726
0.310000000000000164,-0.780076945029284485
0.311000000000000165,-0.768720216453571914
0.312000000000000166,-0.755873000853031107
0.313000000000000167,-0.741564416312757047
0.314000000000000168,-0.725825044633492844
0.315000000000000169,-0.708686905364018127
0.316000000000000170,-0.690183421447235879
0.317000000000000171,-0.670349377266638680
0.318000000000000171,-0.649220869852885518
0.319000000000000172,-0.626835253981810503
0.320000000000000173,-0.603231081865579610
0.321000000000000174,-0.578448038108170914
0.322000000000000175,-0.552526870565396955
0.323000000000000176,-0.525509317718120483
0.324000000000000177,-0.497438033135604418
0.325000000000000178,-0.468356507574247183
0.326000000000000179,-0.438308989225446033
0.327000000000000179,-0.407340402594991602
0.328000000000000180,-0.375496266465463191
0.329000000000000181,-0.342822611363148011
0.330000000000000182,-0.309365896920775652
0.331000000000000183,-0.275172929499017616
0.332000000000000184,-0.240290780401086673
0.333000000000000185,-0.204766704987757120
0.334000000000000186,-0.168648062973690671
0.335000000000000187,-0.131982240160485903
0.336000000000000187,-0.094816571837555055
0.337000000000000188,-0.057198268058370069
0.338000000000000189,-0.019174340977392391
0.339000000000000190,0.019208465588439427
0.340000000000000191,0.057903744230173346
0.341000000000000192,0.096865489524766174
0.342000000000000193,0.136048161014602265
0.343000000000000194,0.175406743499514656
0.344000000000000195,0.214896804568876748
0.345000000000000195,0.254474549316109022
0.346000000000000196,0.294096872192545544
0.347000000000000197,0.333721405970713925
0.348000000000000198,0.373306567799493394
0.349000000000000199,0.412811602345208750
0.350000000000000200,0.452196622023172512
0.351000000000000201,0.491422644334190140
0.352000000000000202,0.530451626329397463
0.353000000000000203,0.569246496235042643
0.354000000000000203,0.607771182276423239
0.355000000000000204,0.645990638746856805
0.356000000000000205,0.683870869373734203
0.357000000000000206,0.721378948039164025
0.358000000000000207,0.758483036917647291
0.359000000000000208,0.795152402097409228
0.360000000000000209,0.831357426755825579
0.361000000000000210,0.867069621962653359
0.362000000000000210,0.902261635187423083
0.363000000000000211,0.936907256589763926
0.364000000000000212,0.970981423173172375
0.365000000000000213,1.004460220884359822
0.366000000000000214,1.037320884741261606
0.367000000000000215,1.069541797073679801
0.368000000000000216,1.101102483960829215
0.369000000000000217,1.131983609950333758
0.370000000000000218,1.162166971142961192
0.371000000000000218,1.191635486727095516
0.372000000000000219,1.220373189046238149
0.373000000000000220,1.248365212282063208
0.374000000000000221,1.275597779834492185
0.375000000000000222,1.302058190479115529
0.376000000000000223,1.327734803380832052
0.377000000000000224,1.352617022041227246
0.378000000000000225,1.376695277255465699
0.379000000000000226,1.399961009152869362
0.380000000000000226,1.422406648393401252
0.381000000000000227,1.444025596590543303
0.382000000000000228,1.464812206028924146
0.383000000000000229,1.484761758743099680
0.384000000000000230,1.503870445021883384
0.385000000000000231,1.522135341400301156
0.386000000000000232,1.539554388199343871
0.387000000000000233,1.556126366671353622
0.388000000000000234,1.571850875806798609
0.389000000000000234,1.586728308855892555
0.390000000000000235,1.600759829616539731
0.391000000000000236,1.613947348537627446
0.392000000000000237,1.626293498684842076
0.393000000000000238,1.637801611613737718
0.394000000000000239,1.648475693192925196
0.395000000000000240,1.658320399417985813
0.396000000000000241,1.667341012254732302
0.397000000000000242,1.675543415548398585
0.398000000000000242,1.682934071033339807
0.399000000000000243,1.689519994475884301
0.400000000000000244,1.695308731981140182
0.401000000000000245,1.700308336492493355
0.402000000000000246,1.704527344511030496
0.403000000000000247,1.707974753060082618
0.404000000000000248,1.710659996918516113
0.405000000000000249,1.712592926144673289
0.406000000000000250,1.713783783911297931
0.407000000000000250,1.714243184670161124
0.408000000000000251,1.713982092663658419
0.409000000000000252,1.713011800799105533
0.410000000000000253,1.711343909900156390
0.411000000000000254,1.708990308348322440
0.412000000000000255,1.705963152126343640
0.413000000000000256,1.702274845273812787
0.414000000000000257,1.697938020764425904
0.415000000000000258,1.692965521812841434
0.416000000000000258,1.687370383618295389
0.417000000000000259,1.681165815550845988
0.418000000000000260,1.674365183785262001
0.419000000000000261,1.666981994386563359
0.420000000000000262,1.659029876850307783
0.421000000000000263,1.650522568099840104
0.422000000000000264,1.641473896942009958
0.423000000000000265,1.631897768981922514
0.424000000000000266,1.621808151996663394
0.425000000000000266,1.611219061767257488
0.426000000000000267,1.600144548367393948
0.427000000000000268,1.588598682906895210
0.428000000000000269,1.576595544727323661
0.429000000000000270,1.564149209046561406
0.430000000000000271,1.551273735048710911
0.431000000000000272,1.537983154415194731
0.432000000000000273,1.524291460292494182
0.433000000000000274,1.510212596691554943
0.434000000000000274,1.495760448313512070
0.435000000000000275,1.480948830796074533
0.436000000000000276,1.465791481374535410
0.437000000000000277,1.450302049951136985
0.438000000000000278,1.434494090566233337
0.439000000000000279,1.418381053264442748
0.440000000000000280,1.401976276348784189
0.441000000000000281,1.385292979015639858
0.442000000000000282,1.368344254363071055
0.443000000000000282,1.351143062765102654
0.444000000000000283,1.333702225604196601
0.445000000000000284,1.316034419354237706
0.446000000000000285,1.298152170006161121
0.447000000000000286,1.280067847828243455
0.448000000000000287,1.261793662453147835
0.449000000000000288,1.243341658283613427
0.450000000000000289,1.224723710208769578
0.451000000000000290,1.205951519622981083
0.452000000000000290,1.187036610739129472
0.453000000000000291,1.167990327188272337
0.454000000000000292,1.148823828897605592
0.455000000000000293,1.129548089238710196
0.456000000000000294,1.110173892438099053
0.457000000000000295,1.090711831242126229
0.458000000000000296,1.071172304828367006
0.459000000000000297,1.051565516955691226
0.460000000000000298,1.031901474345231495
0.461000000000000298,1.012189985284677629
0.462000000000000299,0.992440658448226598
0.463000000000000300,0.972662901924799095
0.464000000000000301,0.952865922447084679
0.465000000000000302,0.933058724814188500
0.466000000000000303,0.913250111500665485
0.467000000000000304,0.893448682444937248
0.468000000000000305,0.873662835010117433
0.469000000000000306,0.853900764110447907
0.470000000000000306,0.834170462496641507
0.471000000000000307,0.814479721193566042
0.472000000000000308,0.794836130083818593
0.473000000000000309,0.775247078630869724
0.474000000000000310,0.755719756735631631
0.475000000000000311,0.736261155720313809
0.476000000000000312,0.716878069433763088
0.477000000000000313,0.697577095472375008
0.478000000000000314,0.678364636511037511
0.479000000000000314,0.659246901738500757
0.480000000000000315,0.640229908391855895
0.481000000000000316,0.621319483384819238
0.482000000000000317,0.602521265024758446
0.483000000000000318,0.583840704813438416
0.484000000000000319,0.565283069326672050
0.485000000000000320,0.546853442168136250
0.486000000000000321,0.528556725992783472
0.487000000000000322,0.510397644595397715
0.488000000000000322,0.492380745059966762
0.489000000000000323,0.474510399965686613
0.490000000000000324,0.456790809645500506
0.491000000000000325,0.439226004493274202
0.492000000000000326,0.421819847315754448
0.493000000000000327,0.404576035725627725
0.494000000000000328,0.387498104572102542
0.495000000000000329,0.370589428405548760
0.496000000000000330,0.353853223972879882
0.497000000000000330,0.337292552740395379
0.498000000000000331,0.320910323441047307
0.499000000000000332,0.304709294643073947
0.500000000000000333,0.288692077337107444
0.501000000000000334,0.272861137539005871
0.502000000000000335,0.257218798905694379
0.503000000000000336,0.241767245361456606
0.504000000000000337,0.226508523732174727
0.505000000000000338,0.211444546385177290
0.506000000000000338,0.196577093872368297
0.507000000000000339,0.181907817574469999
0.508000000000000340,0.167438242344294552
0.509000000000000341,0.153169769147000506
0.510000000000000342,0.139103677695457312
0.511000000000000343,0.125241129078843744
0.512000000000000344,0.111583168382759432
0.513000000000000345,0.098130727299179779
0.514000000000000346,0.084884626724613457
0.515000000000000346,0.071845579345036353
0.516000000000000347,0.059014192206092900
0.517000000000000348,0.046390969267216350
0.518000000000000349,0.033976313938400525
0.519000000000000350,0.021770531598364284
0.520000000000000351,0.009773832092973311
0.521000000000000352,-0.002013667787198958
0.522000000000000353,-0.013591941851152622
0.523000000000000353,-0.024961052074624578
0.524000000000000354,-0.036121146190977081
0.525000000000000355,-0.047072455306708651
0.526000000000000356,-0.057815291542347901
0.527000000000000357,-0.068350045699511058
0.528000000000000358,-0.078677184954793949
0.529000000000000359,-0.088797250581120230
0.530000000000000360,-0.098710855697177635
0.531000000000000361,-0.108418683045455835
0.532000000000000361,-0.117921482799401733
0.533000000000000362,-0.127220070400136637
0.534000000000000363,-0.136315324423153694
0.535000000000000364,-0.145208184475378671
0.536000000000000365,-0.153899649122899884
0.537000000000000366,-0.162390773849701908
0.538000000000000367,-0.170682669047613783
0.539000000000000368,-0.178776498037759246
0.540000000000000369,-0.186673475123629001
0.541000000000000369,-0.194374863676003096
0.542000000000000370,-0.201881974249791346
0.543000000000000371,-0.209196162732929902
0.544000000000000372,-0.216318828527395896
0.545000000000000373,-0.223251412762367984
0.546000000000000374,-0.229995396539570685
0.547000000000000375,-0.236552299210769146
0.548000000000000376,-0.242923676687423068
0.549000000000000377,-0.249111119782391727
0.550000000000000377,-0.255116252583666436
0.551000000000000378,-0.260940730859992975
0.552000000000000379,-0.266586240498292493
0.553000000000000380,-0.272054495972742061
0.554000000000000381,-0.277347238845341737
0.555000000000000382,-0.282466236297845008
0.556000000000000383,-0.287413279694797963
0.557000000000000384,-0.292190183177566287
0.558000000000000385,-0.296798782289064256
0.559000000000000385,-0.301240932629007307
0.560000000000000386,-0.305518508539418143
0.561000000000000387,-0.309633401820151033
0.562000000000000388,-0.313587520474149895
0.563000000000000389,-0.317382787482202833
0.564000000000000390,-0.321021139606853467
0.565000000000000391,-0.324504526225232404
0.566000000000000392,-0.327834908190462293
0.567000000000000393,-0.331014256721359090
0.568000000000000393,-0.334044552320077126
0.569000000000000394,-0.336927783717418383
0.570000000000000395,-0.339665946845432831
0.571000000000000396,-0.342261043836986356
0.572000000000000397,-0.344715082051983923
0.573000000000000398,-0.347030073129850125
0.574000000000000399,-0.349208032067960139
0.575000000000000400,-0.351250976325641617
0.576000000000000401,-0.353160924953393685
0.577000000000000401,-0.354939897746985089
0.578000000000000402,-0.356589914426027998
0.579000000000000403,-0.358112993836686044
0.580000000000000404,-0.359511153178165233
0.581000000000000405,-0.360786407252573105
0.582000000000000406,-0.361940767737823577
0.583000000000000407,-0.362976242483179834
0.584000000000000408,-0.363894834827094615
0.585000000000000409,-0.364698542936949255
0.586000000000000409,-0.365389359170333272
0.587000000000000410,-0.365969269457507240
0.588000000000000411,-0.366440252704635760
0.589000000000000412,-0.366804280217479572
0.590000000000000413,-0.367063315145122526
0.591000000000000414,-0.367219311943396076
0.592000000000000415,-0.367274215857644915
0.593000000000000416,-0.367229962424430123
0.594000000000000417,-0.367088476991844714
0.595000000000000417,-0.366851674258078020
0.596000000000000418,-0.366521457827832353
0.597000000000000419,-0.366099719786301236
0.598000000000000420,-0.365588340290285363
0.599000000000000421,-0.364989187176158691
0.600000000000000422,-0.364304115584290933
0.601000000000000423,-0.363534967599605519
0.602000000000000424,-0.362683571907919222
0.603000000000000425,-0.361751743467757014
0.604000000000000425,-0.360741283197239970
0.605000000000000426,-0.359653977675784831
0.606000000000000427,-0.358491598860263161
0.607000000000000428,-0.357255903815249354
0.608000000000000429,-0.355948634457140201
0.609000000000000430,-0.354571517311692008
0.610000000000000431,-0.353126263284803898
0.611000000000000432,-0.351614567446117410
0.612000000000000433,-0.350038108825195482
0.613000000000000433,-0.348398550219970293
0.614000000000000434,-0.346697538017136264
0.615000000000000435,-0.344936702024201902
0.616000000000000436,-0.343117655312937531
0.617000000000000437,-0.341241994073904986
0.618000000000000438,-0.339311297481785401
