# Tobermorite-004_HIDSCA-JS
# h[nm],U(h)[kJ/mol]
0.149999999999999994,134.515384451901752527
0.150999999999999995,132.414073910292160008
0.151999999999999996,130.322932097117984540
0.152999999999999997,128.231556829548708265
0.153999999999999998,126.157275321669615664
0.154999999999999999,124.118925773438576243
0.156000000000000000,122.127847660198881385
0.157000000000000001,120.186976115243240315
0.158000000000000002,118.293086220781702878
0.159000000000000002,116.439688078287957751
0.160000000000000003,114.619470342925609430
0.161000000000000004,112.825941089201222667
0.162000000000000005,111.054283779199835180
0.163000000000000006,109.301597820513819670
0.164000000000000007,107.566728875617883432
0.165000000000000008,105.849873840340933384
0.166000000000000009,104.152103504979507420
0.167000000000000010,102.474900661839313898
0.168000000000000010,100.819771600215489116
0.169000000000000011,99.187957829074619553
0.170000000000000012,97.580252831627461774
0.171000000000000013,95.996914600041975518
0.172000000000000014,94.437656996614535387
0.173000000000000015,92.901699956561259341
0.174000000000000016,91.387858686475553327
0.175000000000000017,89.894654098449024104
0.176000000000000018,88.420429822477316861
0.177000000000000018,86.963464594940745656
0.178000000000000019,85.522072187019688272
0.179000000000000020,84.094684046881141626
0.180000000000000021,82.679912346275202140
0.181000000000000022,81.276593100250707380
0.182000000000000023,79.883810482980436518
0.183000000000000024,78.500904444726884890
0.184000000000000025,77.127464315342152190
0.185000000000000026,75.763311335618467979
0.186000000000000026,74.408473064998645441
0.187000000000000027,73.063152441785462088
0.188000000000000028,71.727693979989112449
0.189000000000000029,70.402549224963181018
0.190000000000000030,69.088243197396565165
0.191000000000000031,67.785343161925055711
0.192000000000000032,66.494430684075567228
0.193000000000000033,65.216077601791511142
0.194000000000000034,63.950826243946423233
0.195000000000000034,62.699173981964314351
0.196000000000000035,61.461562002410587979
0.197000000000000036,60.238368036168324693
0.198000000000000037,59.029902669844560137
0.199000000000000038,57.836408792602966855
0.200000000000000039,56.658063691404322526
0.201000000000000040,55.494983294236888582
0.202000000000000041,54.347228069066702005
0.203000000000000042,53.214810111015978578
0.204000000000000042,52.097700987238646064
0.205000000000000043,50.995839954204946309
0.206000000000000044,49.909142212294383967
0.207000000000000045,48.837506914959291748
0.208000000000000046,47.780824702020126438
0.209000000000000047,46.738984577144215393
0.210000000000000048,45.711879996936573889
0.211000000000000049,44.699414082415600546
0.212000000000000050,43.701503902362773601
0.213000000000000050,42.718083811812590511
0.214000000000000051,41.749107857683767975
0.215000000000000052,40.794551287331714207
0.216000000000000053,39.854411214838798116
0.217000000000000054,38.928706514464437305
0.218000000000000055,38.017477021234704182
0.219000000000000056,37.120782125581648359
0.220000000000000057,36.238698852683661755
0.221000000000000058,35.371319518162792406
0.222000000000000058,34.518749050485048713
0.223000000000000059,33.681102067209842232
0.224000000000000060,32.858499787523683722
0.225000000000000061,32.051066857625713169
0.226000000000000062,31.258928158829341726
0.227000000000000063,30.482205660982447881
0.228000000000000064,29.721015376238074879
0.229000000000000065,28.975464460532585065
0.230000000000000066,28.245648502530194435
0.231000000000000066,27.531649032410548728
0.232000000000000067,26.833531275828693907
0.233000000000000068,26.151342171750606269
0.234000000000000069,25.485108666729111349
0.235000000000000070,24.834836292578874151
0.236000000000000071,24.200508029362467255
0.237000000000000072,23.582083451122962003
0.238000000000000073,22.979498147892400084
0.239000000000000073,22.392663414158132440
0.240000000000000074,21.821466191157956160
0.241000000000000075,21.265769248077692311
0.242000000000000076,20.725411585406426695
0.243000000000000077,20.200209042330790510
0.244000000000000078,19.689955089084218542
0.245000000000000079,19.194421784569946965
0.246000000000000080,18.713360879309590246
0.247000000000000081,18.246505043793433742
0.248000000000000081,17.793569202587089961
0.249000000000000082,17.354251955045739919
0.250000000000000111,16.928237064167081627
0.251000000000000112,16.515194995946551160
0.252000000000000113,16.114784492551475381
0.253000000000000114,15.726654163680725773
0.254000000000000115,15.350444081593551005
0.255000000000000115,14.985787366458088954
0.256000000000000116,14.632311749862486394
0.257000000000000117,14.289641105534608201
0.258000000000000118,13.957396937513545154
0.259000000000000119,13.635199817194418870
0.260000000000000120,13.322670761815444962
0.261000000000000121,13.019432548065324795
0.262000000000000122,12.725110955549574498
0.263000000000000123,12.439335935862638749
0.264000000000000123,12.161742703961998302
0.265000000000000124,11.891972749429170264
0.266000000000000125,11.629674766026848687
0.267000000000000126,11.374505498721484642
0.268000000000000127,11.126130508034767885
0.269000000000000128,10.884224852217446511
0.270000000000000129,10.648473688304532558
0.271000000000000130,10.418572793614567118
0.272000000000000131,10.194229009699165900
0.273000000000000131,9.975160611134757715
0.274000000000000132,9.761097601879342278
0.275000000000000133,9.551781942195550101
0.276000000000000134,9.346967709371105215
0.277000000000000135,9.146421195652170155
0.278000000000000136,8.949920946945873368
0.279000000000000137,8.757257745951148920
0.280000000000000138,8.568234543443239204
0.281000000000000139,8.382666341470603300
0.282000000000000139,8.200380032227132077
0.283000000000000140,8.021214196339798264
0.284000000000000141,7.845018864265580483
0.285000000000000142,7.671655244424151476
0.286000000000000143,7.500995421607353997
0.287000000000000144,7.332922029105223949
0.288000000000000145,7.167327897873297715
0.289000000000000146,7.004115685940469405
0.290000000000000147,6.843197491120815990
0.291000000000000147,6.684494449950991957
0.292000000000000148,6.527936325625931957
0.293000000000000149,6.373461087554150417
0.294000000000000150,6.221014484998816485
0.295000000000000151,6.070549617114794572
0.296000000000000152,5.922026501535980536
0.297000000000000153,5.775411643511832338
0.298000000000000154,5.630677607438849819
0.299000000000000155,5.487802592481968667
0.300000000000000155,5.346770013833592294
0.301000000000000156,5.207568091014691092
0.302000000000000157,5.070189444483339081
0.303000000000000158,4.934630701682385379
0.304000000000000159,4.800892113528856697
0.305000000000000160,4.668977182224892886
0.306000000000000161,4.538892301152229081
0.307000000000000162,4.410646407500761867
0.308000000000000163,4.284250648176188392
0.309000000000000163,4.159718059432025328
0.310000000000000164,4.037063260577783197
0.311000000000000165,3.916302162027528677
0.312000000000000166,3.797451687871421289
0.313000000000000167,3.680529513076950643
0.314000000000000168,3.565553815356611089
0.315000000000000169,3.452543041674096091
0.316000000000000170,3.341515689301948644
0.317000000000000171,3.232490101289762663
0.318000000000000171,3.125484276153081886
0.319000000000000172,3.020515691548945725
0.320000000000000173,2.917601141664766029
0.321000000000000174,2.816756588012009566
0.322000000000000175,2.717997023285275482
0.323000000000000176,2.621336347920498078
0.324000000000000177,2.526787258962765126
0.325000000000000178,2.434361150834655874
0.326000000000000179,2.344068027579471192
0.327000000000000179,2.255916426140722741
0.328000000000000180,2.169913350228701354
0.329000000000000181,2.086064214317193688
0.330000000000000182,2.004372797308504595
0.331000000000000183,1.924841205401589095
0.332000000000000184,1.847469843697686631
0.333000000000000185,1.772257396078728675
0.334000000000000186,1.699200812896747959
0.335000000000000187,1.628295306016958932
0.336000000000000187,1.559534350763052801
0.337000000000000188,1.492909694320618375
0.338000000000000189,1.428411370162681049
0.339000000000000190,1.366027718070855546
0.340000000000000191,1.305745409336000806
0.341000000000000192,1.247549476732968454
0.342000000000000193,1.191423348876060384
0.343000000000000194,1.137348888573740835
0.344000000000000195,1.085306434814316212
0.345000000000000195,1.035274848026760619
0.346000000000000196,0.987231558274892285
0.347000000000000197,0.941152616056232127
0.348000000000000198,0.897012745390824762
0.349000000000000199,0.854785398899129967
0.350000000000000200,0.814442814581758490
0.351000000000000201,0.775956074027846721
0.352000000000000202,0.739295161792408506
0.353000000000000203,0.704429025696648003
0.354000000000000203,0.671325637818598553
0.355000000000000204,0.639952055954750021
0.356000000000000205,0.610274485346170459
0.357000000000000206,0.582258340475303116
0.358000000000000207,0.555868306752318020
0.359000000000000208,0.531068401921577227
0.360000000000000209,0.507822037030826068
0.361000000000000210,0.486092076817130458
0.362000000000000210,0.465840899374463824
0.363000000000000211,0.447030454978798897
0.364000000000000212,0.429622323956611041
0.365000000000000213,0.413577773492899425
0.366000000000000214,0.398857813284191676
0.367000000000000215,0.385423249951285574
0.368000000000000216,0.373234740135146237
0.369000000000000217,0.362252842207939796
0.370000000000000218,0.352438066538969585
0.371000000000000218,0.343750924263175883
0.372000000000000219,0.336151974506832207
0.373000000000000220,0.329601870032144251
0.374000000000000221,0.324061401268904536
0.375000000000000222,0.319491538707595613
0.376000000000000223,0.315853473633903037
0.377000000000000224,0.313108657190408035
0.378000000000000225,0.311218837756101152
0.379000000000000226,0.310146096639324909
0.380000000000000226,0.309852882084069692
0.381000000000000227,0.310302041594062161
0.382000000000000228,0.311456852582598587
0.383000000000000229,0.313281051359983409
0.384000000000000230,0.315738860473726901
0.385000000000000231,0.318795014419542111
0.386000000000000232,0.322414783744345512
0.387000000000000233,0.326563997564722430
0.388000000000000234,0.331209064526962416
0.389000000000000234,0.336316992236641077
0.390000000000000235,0.341855405187899364
0.391000000000000236,0.347792561224074315
0.392000000000000237,0.354097366563061233
0.393000000000000238,0.360739389421944112
0.394000000000000239,0.367688872276818124
0.395000000000000240,0.374916742794528302
0.396000000000000241,0.382394623474066497
0.397000000000000242,0.390094840036036394
0.398000000000000242,0.397990428599084567
0.399000000000000243,0.406055141682812759
0.400000000000000244,0.414263453076869403
0.401000000000000245,0.422590561616121962
0.402000000000000246,0.431012393902092394
0.403000000000000247,0.439505606010617278
0.404000000000000248,0.448047584225757078
0.405000000000000249,0.456616444839745950
0.406000000000000250,0.465191033058573233
0.407000000000000250,0.473750921052378982
0.408000000000000251,0.482276405189558388
0.409000000000000252,0.490748502492924288
0.410000000000000253,0.499148946355837897
0.411000000000000254,0.507460181555596912
0.412000000000000255,0.515665358600855273
0.413000000000000256,0.523748327449039430
0.414000000000000257,0.531693630629270997
0.415000000000000258,0.539486495805317823
0.416000000000000258,0.547112827812615721
0.417000000000000259,0.554559200202390690
0.418000000000000260,0.561812846325296600
0.419000000000000261,0.568861649986051710
0.420000000000000262,0.575694135699802323
0.421000000000000263,0.582299458580012419
0.422000000000000264,0.588667393886944113
0.423000000000000265,0.594788326264835687
0.424000000000000266,0.600653238694981662
0.425000000000000266,0.606253701191254657
0.426000000000000267,0.611581859263449656
0.427000000000000268,0.616630422173213733
0.428000000000000269,0.621392651006325569
0.429000000000000270,0.625862346584202145
0.430000000000000271,0.630033837236828154
0.431000000000000272,0.633901966458201738
0.432000000000000273,0.637462080464800129
0.433000000000000274,0.640710015676545952
0.434000000000000274,0.643642086139062930
0.435000000000000275,0.646255070905147999
0.436000000000000276,0.648546201392580235
0.437000000000000277,0.650513148734673363
0.438000000000000278,0.652154011139147061
0.439000000000000279,0.653467301270149181
0.440000000000000280,0.654451933667587693
0.441000000000000281,0.655107212217165724
0.442000000000000282,0.655432817683740732
0.443000000000000282,0.655428795320167623
0.444000000000000283,0.655095542562802002
0.445000000000000284,0.654433796824480440
0.446000000000000285,0.653444623395024848
0.447000000000000286,0.652129403458617030
0.448000000000000287,0.650489822237050985
0.449000000000000288,0.648527857266986141
0.450000000000000289,0.646245766819003031
0.451000000000000290,0.643646078465598515
0.452000000000000290,0.640731577804721564
0.453000000000000291,0.637505297345043909
0.454000000000000292,0.633970505558540842
0.455000000000000293,0.630130696105579369
0.456000000000000294,0.625989577237204053
0.457000000000000295,0.621551061378879277
0.458000000000000296,0.616819254899538039
0.459000000000000297,0.611798448069369227
0.460000000000000298,0.606493105209360062
0.461000000000000298,0.600907855035292870
0.462000000000000299,0.595047481198456518
0.463000000000000300,0.588916913025090527
0.464000000000000301,0.582521216456117763
0.465000000000000302,0.575865585188530149
0.466000000000000303,0.568955332019435600
0.467000000000000304,0.561795880393449742
0.468000000000000305,0.554392756153944233
0.469000000000000306,0.546751579498288676
0.470000000000000306,0.538878057137039734
0.471000000000000307,0.530777974656830076
0.472000000000000308,0.522457189086374063
0.473000000000000309,0.513921621664907957
0.474000000000000310,0.505177250812145151
0.475000000000000311,0.496230105298597846
0.476000000000000312,0.487086257615013341
0.477000000000000313,0.477751817539440737
0.478000000000000314,0.468232925900354924
0.479000000000000314,0.458535748534014964
0.480000000000000315,0.448666470434244402
0.481000000000000316,0.438631290092530768
0.482000000000000317,0.428436414026367784
0.483000000000000318,0.418088051493545165
0.484000000000000319,0.407592409390054311
0.485000000000000320,0.396955687329162310
0.486000000000000321,0.386184072899107278
0.487000000000000322,0.375283737096805237
0.488000000000000322,0.364260829934927921
0.489000000000000323,0.353121476219513730
0.490000000000000324,0.341871771495393106
0.491000000000000325,0.330517778156511233
0.492000000000000326,0.319065521718282619
0.493000000000000327,0.307520987248987299
0.494000000000000328,0.295890115957264999
0.495000000000000329,0.284178801932669423
0.496000000000000330,0.272392889036284169
0.497000000000000330,0.260538167938254683
0.498000000000000331,0.248620373299308112
0.499000000000000332,0.236645181093031537
0.500000000000000333,0.224618206065888060
0.501000000000000334,0.212544999331906237
0.502000000000000335,0.200431046098860755
0.503000000000000336,0.188281763522941847
0.504000000000000337,0.176102498688763320
0.505000000000000338,0.163898526711684311
0.506000000000000338,0.151675048959354214
0.507000000000000339,0.139437191389437248
0.508000000000000340,0.127190003000530599
0.509000000000000341,0.114938454393190101
0.510000000000000342,0.102687436438184232
0.511000000000000343,0.090441759048918713
0.512000000000000344,0.078206150055183221
0.513000000000000345,0.065985254175285890
0.514000000000000346,0.053783632083664337
0.515000000000000346,0.041605759571237043
0.516000000000000347,0.029456026795603628
0.517000000000000348,0.017338737618344646
0.518000000000000349,0.005258109026730106
0.519000000000000350,-0.006781729362907563
0.520000000000000351,-0.018776735722749294
0.521000000000000352,-0.030722956354676544
0.522000000000000353,-0.042616525957580684
0.523000000000000353,-0.054453667823393892
0.524000000000000354,-0.066230693964280024
0.525000000000000355,-0.077944005173478811
0.526000000000000356,-0.089590091022155177
0.527000000000000357,-0.101165529794679382
0.528000000000000358,-0.112666988364608422
0.529000000000000359,-0.124091222013662475
0.530000000000000360,-0.135435074195914634
0.531000000000000361,-0.146695476249401213
0.532000000000000361,-0.157869447057274875
0.533000000000000362,-0.168954092660600436
0.534000000000000363,-0.179946605824838957
0.535000000000000364,-0.190844265562058968
0.536000000000000365,-0.201644436610777161
0.537000000000000366,-0.212344568875423301
0.538000000000000367,-0.222942196827206202
0.539000000000000368,-0.233434938868334052
0.540000000000000369,-0.243820496661246888
0.541000000000000369,-0.254096654424708246
0.542000000000000370,-0.264261278198375638
0.543000000000000371,-0.274312315077565039
0.544000000000000372,-0.284247792419795975
0.545000000000000373,-0.294065817024686260
0.546000000000000374,-0.303764574288746148
0.547000000000000375,-0.313342327336533222
0.548000000000000376,-0.322797416129655457
0.549000000000000377,-0.332128256554985790
0.550000000000000377,-0.341333339493507748
0.551000000000000378,-0.350411229871060492
0.552000000000000379,-0.359360565692343925
0.553000000000000380,-0.368180057059381505
0.554000000000000381,-0.376868485175671064
0.555000000000000382,-0.385424701337240883
0.556000000000000383,-0.393847625911675991
0.557000000000000384,-0.402136247306314421
0.558000000000000385,-0.410289620926594378
0.559000000000000385,-0.418306868125660869
0.560000000000000386,-0.426187175146199082
0.561000000000000387,-0.433929792055471775
0.562000000000000388,-0.441534031674480798
0.563000000000000389,-0.448999268502217941
0.564000000000000390,-0.456324937635785965
0.565000000000000391,-0.463510533687320092
0.566000000000000392,-0.470555609698455612
0.567000000000000393,-0.477459776053191010
0.568000000000000393,-0.484222699389815159
0.569000000000000394,-0.490844101512715292
0.570000000000000395,-0.497323758304701879
0.571000000000000396,-0.503661498640526006
0.572000000000000397,-0.509857203302286566
0.573000000000000398,-0.515910803897260739
0.574000000000000399,-0.521822281778834718
0.575000000000000400,-0.527591666971036877
0.576000000000000401,-0.533219037097247606
0.577000000000000401,-0.538704516313630144
0.578000000000000402,-0.544048274247723507
0.579000000000000403,-0.549250524942695550
0.580000000000000404,-0.554311525807763994
0.581000000000000405,-0.559231576575106470
0.582000000000000406,-0.564011018263784081
0.583000000000000407,-0.568650232150986423
0.584000000000000408,-0.573149638751022095
0.585000000000000409,-0.577509696802370853
0.586000000000000409,-0.581730902263151939
0.587000000000000410,-0.585813787315333290
0.588000000000000411,-0.589758919377929125
0.589000000000000412,-0.593566900129552044
0.590000000000000413,-0.597238364540487843
0.591000000000000414,-0.600773979914612788
0.592000000000000415,-0.604174444941364297
0.593000000000000416,-0.607440488757959862
0.594000000000000417,-0.610572870022094927
0.595000000000000417,-0.613572375995323105
0.596000000000000418,-0.616439821637217777
0.597000000000000419,-0.619176048710587623
0.598000000000000420,-0.621781924897784277
0.599000000000000421,-0.624258342928327048
0.600000000000000422,-0.626606219717912305
0.601000000000000423,-0.628826495518926221
0.602000000000000424,-0.630920133082598977
0.603000000000000425,-0.632888116832860059
0.604000000000000425,-0.634731452051950251
0.605000000000000426,-0.636451164077911691
0.606000000000000427,-0.638048297514013374
0.607000000000000428,-0.639523915450052827
0.608000000000000429,-0.640879098695792515
0.609000000000000430,-0.642114945026288964
0.610000000000000431,-0.643232568439399577
0.611000000000000432,-0.644233098425291084
0.612000000000000433,-0.645117679248039866
0.613000000000000433,-0.645887469239347922
0.614000000000000434,-0.646543640104294326
0.615000000000000435,-0.647087376239155465
0.616000000000000436,-0.647519874061258216
0.617000000000000437,-0.647842341350876039
0.618000000000000438,-0.648055996605062634
