# Tobermorite-004_HIESCA-JS
# h[nm],U(h)[kJ/mol]
0.149999999999999994,126.349331779879364035
0.150999999999999995,124.476015704931569417
0.151999999999999996,122.518907359955349534
0.152999999999999997,120.495328398162953931
0.153999999999999998,118.448753274960793647
0.154999999999999999,116.417961318589917141
0.156000000000000000,114.427258330952582810
0.157000000000000001,112.486569218201481135
0.158000000000000002,110.595280765268483947
0.159000000000000002,108.746733935871731092
0.160000000000000003,106.931994688847112229
0.161000000000000004,105.142469878771933622
0.162000000000000005,103.371400143627028001
0.163000000000000006,101.614456365542949356
0.164000000000000007,99.869714656210319959
0.165000000000000008,98.137261379035706454
0.166000000000000009,96.418627390710753389
0.167000000000000010,94.716192759956214786
0.168000000000000010,93.032651146121807528
0.169000000000000011,91.370581355130795487
0.170000000000000012,89.732143117429671975
0.171000000000000013,88.118893752194580316
0.172000000000000014,86.531710226376048922
0.173000000000000015,84.970795172350022995
0.174000000000000016,83.435743851316985342
0.175000000000000017,81.925650305636096959
0.176000000000000018,80.439233836350894080
0.177000000000000018,78.974970594848656447
0.178000000000000019,77.531218884341924991
0.179000000000000020,76.106330340001605350
0.180000000000000021,74.698742274235200966
0.181000000000000022,73.307049033926020343
0.182000000000000023,71.930052199866779006
0.183000000000000024,70.566790898248342501
0.184000000000000025,69.216554453418666526
0.185000000000000026,67.878880168076960899
0.186000000000000026,66.553539252808448623
0.187000000000000027,65.240513918805362437
0.188000000000000028,63.939968465176832524
0.189000000000000029,62.652216894780849543
0.190000000000000030,61.377689228668316446
0.191000000000000031,60.116898297295882969
0.192000000000000032,58.870408395463186935
0.193000000000000033,57.638806818016611544
0.194000000000000034,56.422678958375129810
0.195000000000000034,55.222587359881018187
0.196000000000000035,54.039054864482864105
0.197000000000000036,52.872551804632323069
0.198000000000000037,51.723487030460603364
0.199000000000000038,50.592202451639380456
0.200000000000000039,49.478970697200260531
0.201000000000000040,48.383995451875208005
0.202000000000000041,47.307414009011679923
0.203000000000000042,46.249301582744941186
0.204000000000000042,45.209676941152466156
0.205000000000000043,44.188508953307191973
0.206000000000000044,43.185723682735812190
0.207000000000000045,42.201211704576714112
0.208000000000000046,41.234835371046735020
0.209000000000000047,40.286435797510598888
0.210000000000000048,39.355839387808373431
0.211000000000000049,38.442863761263843969
0.212000000000000050,37.547322984059896100
0.213000000000000050,36.669032043836054413
0.214000000000000051,35.807810538098735265
0.215000000000000052,34.963485574219497209
0.216000000000000053,34.135893901473536971
0.217000000000000054,33.324883313917851524
0.218000000000000055,32.530313377194310931
0.219000000000000056,31.752055542904479069
0.220000000000000057,30.989992721414598265
0.221000000000000058,30.244018388213039117
0.222000000000000058,29.514035300653933547
0.223000000000000059,28.799953901481138985
0.224000000000000060,28.101690483307699253
0.225000000000000061,27.419165184583203398
0.226000000000000062,26.752299882836773293
0.227000000000000063,26.101016045430405654
0.228000000000000064,25.465232591953572694
0.229000000000000065,24.844863815961414133
0.230000000000000066,24.239817407200380472
0.231000000000000066,23.649992608936358351
0.232000000000000067,23.075278538638936965
0.233000000000000068,22.515552694183973870
0.234000000000000069,21.970679662002684296
0.235000000000000070,21.440510038286756611
0.236000000000000071,20.924879569501143806
0.237000000000000072,20.423608514082840060
0.238000000000000073,19.936501223329450738
0.239000000000000073,19.463345936105646672
0.240000000000000074,19.003914779107297761
0.241000000000000075,18.557963962009420555
0.242000000000000076,18.125234154857547964
0.243000000000000077,17.705451033517924486
0.244000000000000078,17.298325977847746060
0.245000000000000079,16.903556906449811237
0.246000000000000080,16.520829231402210269
0.247000000000000081,16.149816916167786474
0.248000000000000081,15.790183619956684069
0.249000000000000082,15.441583912104647425
0.250000000000000111,15.103664540507002911
0.251000000000000112,14.776065738784708969
0.252000000000000113,14.458422557623416438
0.253000000000000114,14.150366206596469709
0.254000000000000115,13.851525393729295033
0.255000000000000115,13.561527651067990519
0.256000000000000116,13.280000635556140409
0.257000000000000117,13.006573395584869246
0.258000000000000118,12.740877594646558890
0.259000000000000119,12.482548684577595921
0.260000000000000120,12.231227021909800712
0.261000000000000121,11.986558921853752935
0.262000000000000122,11.748197645401125655
0.263000000000000123,11.515804315952545167
0.264000000000000123,11.289048762744890553
0.265000000000000124,11.067610289166296411
0.266000000000000125,10.851178364803002907
0.267000000000000126,10.639453240760049724
0.268000000000000127,10.432146488435323661
0.269000000000000128,10.228981462504773248
0.270000000000000129,10.029693689395459799
0.271000000000000130,9.834031182984213970
0.272000000000000131,9.641754689664718825
0.273000000000000131,9.452637865276681595
0.274000000000000132,9.266467386690086627
0.275000000000000133,9.083043001087698798
0.276000000000000134,8.902177516192962159
0.277000000000000135,8.723696734851698054
0.278000000000000136,8.547439337496163247
0.279000000000000137,8.373256716103984587
0.280000000000000138,8.201012763314007969
0.281000000000000139,8.030583620379500687
0.282000000000000139,7.861857387629815896
0.283000000000000140,7.694733801076959701
0.284000000000000141,7.529123878746536214
0.285000000000000142,7.364949540235940617
0.286000000000000143,7.202143202908669828
0.287000000000000144,7.040647358025469593
0.288000000000000145,6.880414129991367034
0.289000000000000146,6.721404821766976845
0.290000000000000147,6.563589449351901806
0.291000000000000147,6.406946268102290176
0.292000000000000148,6.251461293492701188
0.293000000000000149,6.097127818778194985
0.294000000000000150,5.943945931855557419
0.295000000000000151,5.791922033465239927
0.296000000000000152,5.641068358718491993
0.297000000000000153,5.491402503778529898
0.298000000000000154,5.342946959371193572
0.299000000000000155,5.195728652650179136
0.300000000000000155,5.049778498795333803
0.301000000000000156,4.905130963580372594
0.302000000000000157,4.761823638008483073
0.303000000000000158,4.619896825982488409
0.304000000000000159,4.479393145848940883
0.305000000000000160,4.340357146534881139
0.306000000000000161,4.202834938880738669
0.307000000000000162,4.066873842663810024
0.308000000000000163,3.932522049704204825
0.309000000000000163,3.799828303348223635
0.310000000000000164,3.668841594533930106
0.311000000000000165,3.539610874559252718
0.312000000000000166,3.412184784594761489
0.313000000000000167,3.286611401910904728
0.314000000000000168,3.162938002723040487
0.315000000000000169,3.041210841496648332
0.316000000000000170,2.921474946499710956
0.317000000000000171,2.803773931339114345
0.318000000000000171,2.688149822172949399
0.319000000000000172,2.574642900250050381
0.320000000000000173,2.463291559392953634
0.321000000000000174,2.354132178008931042
0.322000000000000175,2.247199005186924836
0.323000000000000176,2.142524060415123888
0.324000000000000177,2.040137046434575829
0.325000000000000178,1.940065274728548506
0.326000000000000179,1.842333603134500120
0.327000000000000179,1.746964385056446023
0.328000000000000180,1.653977429748515249
0.329000000000000181,1.563389973136590338
0.330000000000000182,1.475216658643435208
0.331000000000000183,1.389469527483140343
0.332000000000000184,1.306158017893562562
0.333000000000000185,1.225288972779930763
0.334000000000000186,1.146866655248954814
0.335000000000000187,1.070892771520575604
0.336000000000000187,0.997366500713508963
0.337000000000000188,0.926284531011227541
0.338000000000000189,0.857641101726111521
0.339000000000000190,0.791428050792003956
0.340000000000000191,0.727634867228553750
0.341000000000000192,0.666248748134277369
0.342000000000000193,0.607254659779916439
0.343000000000000194,0.550635402388229944
0.344000000000000195,0.496371678201970590
0.345000000000000195,0.444442162456694212
0.346000000000000196,0.394823576891399408
0.347000000000000197,0.347490765445317762
0.348000000000000198,0.302416771805295803
0.349000000000000199,0.259572918484051562
0.350000000000000200,0.218928887125248994
0.351000000000000201,0.180452799747201797
0.352000000000000202,0.144111300652387253
0.353000000000000203,0.109869638745260900
0.354000000000000203,0.077691750015913191
0.355000000000000204,0.047540339961947356
0.356000000000000205,0.019376965735231087
0.357000000000000206,-0.006837882185707400
0.358000000000000207,-0.031144698982874086
0.359000000000000208,-0.053584885317910655
0.360000000000000209,-0.074200668142185136
0.361000000000000210,-0.093035022644438040
0.362000000000000210,-0.110131595470615018
0.363000000000000211,-0.125534629338649145
0.364000000000000212,-0.139288889159904533
0.365000000000000213,-0.151439589768008254
0.366000000000000214,-0.162032325345649125
0.367000000000000215,-0.171113000629828177
0.368000000000000216,-0.178727763966797321
0.369000000000000217,-0.184922942278652858
0.370000000000000218,-0.189744977995212227
0.371000000000000218,-0.193240367996414697
0.372000000000000219,-0.195455604602947114
0.373000000000000220,-0.196437118645361869
0.374000000000000221,-0.196231224635081608
0.375000000000000222,-0.194884068054062165
0.376000000000000223,-0.192441574774042390
0.377000000000000224,-0.188949402610175982
0.378000000000000225,-0.184452895008777512
0.379000000000000226,-0.178997036863644515
0.380000000000000226,-0.172626412451020894
0.381000000000000227,-0.165385165468533657
0.382000000000000228,-0.157316961159798652
0.383000000000000229,-0.148464950502422088
0.384000000000000230,-0.138871736433719750
0.385000000000000231,-0.128579342085564707
0.386000000000000232,-0.117629180996558086
0.387000000000000233,-0.106062029267485508
0.388000000000000234,-0.093917999623363266
0.389000000000000234,-0.081236517343539025
0.390000000000000235,-0.068056298019226524
0.391000000000000236,-0.054415327096323553
0.392000000000000237,-0.040350841159842069
0.393000000000000238,-0.025899310915080243
0.394000000000000239,-0.011096425819491707
0.395000000000000240,0.004022919681550619
0.396000000000000241,0.019424638362736869
0.397000000000000242,0.035075460918779999
0.398000000000000242,0.050942945204858960
0.399000000000000243,0.066995484066572075
0.400000000000000244,0.083202311808442619
0.401000000000000245,0.099533509350011512
0.402000000000000246,0.115960008118726157
0.403000000000000247,0.132453592728395186
0.404000000000000248,0.148986902491863832
0.405000000000000249,0.165533431816172000
0.406000000000000250,0.182067529528042005
0.407000000000000250,0.198564397176956897
0.408000000000000251,0.215000086362615944
0.409000000000000252,0.231351495132796986
0.410000000000000253,0.247596363497045363
0.411000000000000254,0.263713268100774556
0.412000000000000255,0.279681616103647834
0.413000000000000256,0.295481638305131911
0.414000000000000257,0.311094381559451461
0.415000000000000258,0.326501700520950344
0.416000000000000258,0.341686248760277589
0.417000000000000259,0.356631469290524472
0.418000000000000260,0.371321584541688121
0.419000000000000261,0.385741585820700839
0.420000000000000262,0.399877222293306411
0.421000000000000263,0.413714989522980248
0.422000000000000264,0.427242117601152216
0.423000000000000265,0.440446558901862795
0.424000000000000266,0.453316975492892293
0.425000000000000266,0.465842726234578286
0.426000000000000267,0.478013853596203131
0.427000000000000268,0.489821070219037757
0.428000000000000269,0.501255745253965768
0.429000000000000270,0.512309890500586063
0.430000000000000271,0.522976146373806849
0.431000000000000272,0.533247767722741295
0.432000000000000273,0.543118609525917728
0.433000000000000274,0.552583112485694472
0.434000000000000274,0.561636288543900131
0.435000000000000275,0.570273706339730291
0.436000000000000276,0.578491476629980572
0.437000000000000277,0.586286237690866185
0.438000000000000278,0.593655140719677066
0.439000000000000279,0.600595835253697197
0.440000000000000280,0.607106454622975078
0.441000000000000281,0.613185601452674756
0.442000000000000282,0.618832333229833886
0.443000000000000282,0.624046147948782215
0.444000000000000283,0.628826969848391815
0.445000000000000284,0.633175135253844723
0.446000000000000285,0.637091378534742847
0.447000000000000286,0.640576818190586317
0.448000000000000287,0.643632943074203379
0.449000000000000288,0.646261598762729594
0.450000000000000289,0.648464974085367407
0.451000000000000290,0.650245587816305148
0.452000000000000290,0.651606275540698388
0.453000000000000291,0.652550176700982920
0.454000000000000292,0.653080721830191058
0.455000000000000293,0.653201619978449388
0.456000000000000294,0.652916846338259083
0.457000000000000295,0.652230630073664108
0.458000000000000296,0.651147442357929540
0.459000000000000297,0.649671984623884091
0.460000000000000298,0.647809177030583827
0.461000000000000298,0.645564147149595091
0.462000000000000299,0.642942218873677640
0.463000000000000300,0.639948901550384752
0.464000000000000301,0.636589879342539966
0.465000000000000302,0.632871000817353702
0.466000000000000303,0.628798268765486723
0.467000000000000304,0.624377830251074184
0.468000000000000305,0.619615966893391934
0.469000000000000306,0.614519085380577090
0.470000000000000306,0.609093708215448948
0.471000000000000307,0.603346464693337525
0.472000000000000308,0.597284082111414372
0.473000000000000309,0.590913377208887036
0.474000000000000310,0.584241247837155808
0.475000000000000311,0.577274664858779096
0.476000000000000312,0.570020664273940270
0.477000000000000313,0.562486339572870198
0.478000000000000314,0.554678834312554492
0.479000000000000314,0.546605334915780228
0.480000000000000315,0.538273063690565490
0.481000000000000316,0.529689272067704886
0.482000000000000317,0.520861234054170397
0.483000000000000318,0.511796239899854899
0.484000000000000319,0.502501589975129725
0.485000000000000320,0.492984588856492933
0.486000000000000321,0.483252539617537724
0.487000000000000322,0.473312738322344273
0.488000000000000322,0.463172468718367536
0.489000000000000323,0.452838997125706744
0.490000000000000324,0.442319567519702084
0.491000000000000325,0.431621396803653024
0.492000000000000326,0.420751670268433298
0.493000000000000327,0.409717537235706697
0.494000000000000328,0.398526106881431585
0.495000000000000329,0.387184444236275516
0.496000000000000330,0.375699566359574633
0.497000000000000330,0.364078438683348049
0.498000000000000331,0.352327971523032690
0.499000000000000332,0.340455016751371464
0.500000000000000333,0.328466364632043151
0.501000000000000334,0.316368740809575222
0.502000000000000335,0.304168803451989933
0.503000000000000336,0.291873140542796394
0.504000000000000337,0.279488267318774852
0.505000000000000338,0.267020623850159899
0.506000000000000338,0.254476572759715969
0.507000000000000339,0.241862397077306973
0.508000000000000340,0.229184298226546762
0.509000000000000341,0.216448394140090178
0.510000000000000342,0.203660717500264099
0.511000000000000343,0.190827214101623455
0.512000000000000344,0.177953741332177617
0.513000000000000345,0.165046066769973104
0.514000000000000346,0.152109866891762008
0.515000000000000346,0.139150725890594462
0.516000000000000347,0.126174134599118692
0.517000000000000348,0.113185489515430684
0.518000000000000349,0.100190091928429953
0.519000000000000350,0.087193147139565649
0.520000000000000351,0.074199763777987648
0.521000000000000352,0.061214953206096004
0.522000000000000353,0.048243629012620026
0.523000000000000353,0.035290606590258053
0.524000000000000354,0.022360602795116685
0.525000000000000355,0.009458235685094034
0.526000000000000356,-0.003411975665466840
0.527000000000000357,-0.016245611277631619
0.528000000000000358,-0.029038350308820265
0.529000000000000359,-0.041785971025473503
0.530000000000000360,-0.054484350709970285
0.531000000000000361,-0.067129465504324123
0.532000000000000361,-0.079717390193086587
0.533000000000000362,-0.092244297927869007
0.534000000000000363,-0.104706459895817866
0.535000000000000364,-0.117100244934389086
0.536000000000000365,-0.129422119094607491
0.537000000000000366,-0.141668645155082984
0.538000000000000367,-0.153836482088866966
0.539000000000000368,-0.165922384485337165
0.540000000000000369,-0.177923201929075514
0.541000000000000369,-0.189835878337824615
0.542000000000000370,-0.201657451261414128
0.543000000000000371,-0.213385051143629323
0.544000000000000372,-0.225015900548837383
0.545000000000000373,-0.236547313355210870
0.546000000000000374,-0.247976693916321794
0.547000000000000375,-0.259301536192795778
0.548000000000000376,-0.270519422855761138
0.549000000000000377,-0.281628024363664353
0.550000000000000377,-0.292625098014088592
0.551000000000000378,-0.303508486972081992
0.552000000000000379,-0.314276119276528321
0.553000000000000380,-0.324926006825989933
0.554000000000000381,-0.335456244345450627
0.555000000000000382,-0.345865008335349222
0.556000000000000383,-0.356150556004189045
0.557000000000000384,-0.366311224186080864
0.558000000000000385,-0.376345428244403424
0.559000000000000385,-0.386251660962853516
0.560000000000000386,-0.396028491425026441
0.561000000000000387,-0.405674563883675288
0.562000000000000388,-0.415188596620740369
0.563000000000000389,-0.424569380799245555
0.564000000000000390,-0.433815779308035221
0.565000000000000391,-0.442926725600401583
0.566000000000000392,-0.451901222527515245
0.567000000000000393,-0.460738341167633514
0.568000000000000393,-0.469437219651918647
0.569000000000000394,-0.477997061987785687
0.570000000000000395,-0.486417136880578138
0.571000000000000396,-0.494696776554353235
0.572000000000000397,-0.502835375572611265
0.573000000000000398,-0.510832389659609754
0.574000000000000399,-0.518687334523070143
0.575000000000000400,-0.526399784678887595
0.576000000000000401,-0.533969372278518040
0.577000000000000401,-0.541395785939705054
0.578000000000000402,-0.548678769581094072
0.579000000000000403,-0.555818121261321130
0.580000000000000404,-0.562813692023173662
0.581000000000000405,-0.569665384743274106
0.582000000000000406,-0.576373152987853632
0.583000000000000407,-0.582936999875053208
0.584000000000000408,-0.589356976944228395
0.585000000000000409,-0.595633183032685531
0.586000000000000409,-0.601765763160256095
0.587000000000000410,-0.607754907422134671
0.588000000000000411,-0.613600849890278521
0.589000000000000412,-0.619303867523831375
0.590000000000000413,-0.624864279088783725
0.591000000000000414,-0.630282444087279625
0.592000000000000415,-0.635558761696818908
0.593000000000000416,-0.640693669719641923
0.594000000000000417,-0.645687643542560918
0.595000000000000417,-0.650541195107501302
0.596000000000000418,-0.655254871892935742
0.597000000000000419,-0.659829255906490664
0.598000000000000420,-0.664264962688852711
0.599000000000000421,-0.668562640329229185
0.600000000000000422,-0.672722968492480478
0.601000000000000423,-0.676746657458096146
0.602000000000000424,-0.680634447171175827
0.603000000000000425,-0.684387106305545001
0.604000000000000425,-0.688005431339068774
0.605000000000000426,-0.691490245641351864
0.606000000000000427,-0.694842398573887077
0.607000000000000428,-0.698062764602672470
0.608000000000000429,-0.701152242423524030
0.609000000000000430,-0.704111754099945308
0.610000000000000431,-0.706942244213805915
0.611000000000000432,-0.709644679028722858
0.612000000000000433,-0.712220045666242862
0.613000000000000433,-0.714669351294878408
0.614000000000000434,-0.716993622331939306
0.615000000000000435,-0.719193903658224554
0.616000000000000436,-0.721271257845550240
0.617000000000000437,-0.723226764397144506
