# Tobermorite-004_LYSSCA-JS
# h[nm],U(h)[kJ/mol]
0.149999999999999994,142.983587306144443119
0.150999999999999995,142.297481792205644524
0.151999999999999996,140.060113269386704360
0.152999999999999997,137.497869306518310850
0.153999999999999998,135.075439816394435866
0.154999999999999999,132.892224076368762553
0.156000000000000000,130.899270204038316479
0.157000000000000001,129.009517280318334542
0.158000000000000002,127.147070662294822796
0.159000000000000002,125.263577721829022948
0.160000000000000003,123.338405587693301868
0.161000000000000004,121.372144201898478855
0.162000000000000005,119.378530702676556530
0.163000000000000006,117.377244958561917088
0.164000000000000007,115.388512380845710936
0.165000000000000008,113.429640066014400190
0.166000000000000009,111.513226188436220809
0.167000000000000010,109.646641091475430585
0.168000000000000010,107.832369269151243429
0.169000000000000011,106.068855882996672335
0.170000000000000012,104.351579537005136444
0.171000000000000013,102.674152676907127102
0.172000000000000014,101.029321255813314906
0.173000000000000015,99.409791907577144343
0.174000000000000016,97.808857217489688196
0.175000000000000017,96.220819126636072838
0.176000000000000018,94.641229226791281803
0.177000000000000018,93.066975062429605714
0.178000000000000019,91.496245768528325470
0.179000000000000020,89.928410338377290145
0.180000000000000021,88.363839071359720378
0.181000000000000022,86.803694477802281426
0.182000000000000023,85.249712981382486987
0.183000000000000024,83.703993759540111341
0.184000000000000025,82.168806388117829442
0.185000000000000026,80.646424835804765507
0.186000000000000026,79.138991895978676894
0.187000000000000027,77.648415374094511776
0.188000000000000028,76.176295238498141771
0.189000000000000029,74.723879428427025573
0.190000000000000030,73.292045014163733185
0.191000000000000031,71.881300833540009876
0.192000000000000032,70.491807500163602640
0.193000000000000033,69.123410711867151690
0.194000000000000034,67.775684011873892132
0.195000000000000034,66.447977509143157704
0.196000000000000035,65.139469497854449287
0.197000000000000036,63.849218388563507176
0.198000000000000037,62.576212843916820816
0.199000000000000038,61.319418476678151819
0.200000000000000039,60.077819900826227695
0.201000000000000040,58.850457316934765117
0.202000000000000041,57.636457154869752628
0.203000000000000042,56.435056587553333429
0.204000000000000042,55.245621969402051832
0.205000000000000043,54.067661444292795636
0.206000000000000044,52.900832114137166684
0.207000000000000045,51.744942264823876599
0.208000000000000046,50.599949216331950197
0.209000000000000047,49.465953403297660884
0.210000000000000048,48.343189306220502033
0.211000000000000049,47.232013846561336834
0.212000000000000050,46.132892835598894976
0.213000000000000050,45.046386031029555852
0.214000000000000051,43.973131310411503136
0.215000000000000052,42.913828419694453942
0.216000000000000053,41.869222700806389525
0.217000000000000054,40.840089146714028345
0.218000000000000055,39.827217077262218936
0.219000000000000056,38.831395675785060462
0.220000000000000057,37.853400576001078548
0.221000000000000058,36.893981641809475036
0.222000000000000058,35.953852039794021778
0.223000000000000059,35.033678665822513665
0.224000000000000060,34.134073953230313236
0.225000000000000061,33.255589060691505665
0.226000000000000062,32.398708412896056075
0.227000000000000063,31.563845546368849426
0.228000000000000064,30.751340195928975163
0.229000000000000065,29.961456544092403220
0.230000000000000066,29.194382545845712684
0.231000000000000066,28.450230234317370304
0.232000000000000067,27.729036908609721479
0.233000000000000068,27.030767103086098757
0.234000000000000069,26.355315237413584839
0.235000000000000070,25.702508848331184765
0.236000000000000071,25.072112307161411593
0.237000000000000072,24.463830931241552946
0.238000000000000073,23.877315402482583551
0.239000000000000073,23.312166411949640121
0.240000000000000074,22.767939455504937030
0.241000000000000075,22.244149711997188490
0.242000000000000076,21.740276942070302368
0.243000000000000077,21.255770352276897484
0.244000000000000078,20.790053375711988082
0.245000000000000079,20.342528326743689604
0.246000000000000080,19.912580893540241078
0.247000000000000081,19.499584437920237434
0.248000000000000081,19.102904077545353800
0.249000000000000082,18.721900530600883883
0.250000000000000111,18.355933707849480641
0.251000000000000112,18.004366041286584021
0.252000000000000113,17.666565542568971381
0.253000000000000114,17.341908587933819064
0.254000000000000115,17.029782429481524986
0.255000000000000115,16.729587435475593793
0.256000000000000116,16.440739064731126007
0.257000000000000117,16.162669582239427513
0.258000000000000118,15.894829524930027986
0.259000000000000119,15.636688927923973580
0.260000000000000120,15.387738322806233882
0.261000000000000121,15.147489520364141313
0.262000000000000122,14.915476190923380173
0.263000000000000123,14.691254255888150482
0.264000000000000123,14.474402104377185552
0.265000000000000124,14.264520648964861493
0.266000000000000125,14.061233234505730039
0.267000000000000126,13.864185413861216389
0.268000000000000127,13.673044604075712982
0.269000000000000128,13.487499636184008267
0.270000000000000129,13.307260211386784832
0.271000000000000130,13.132056275820939817
0.272000000000000131,12.961637325589865810
0.273000000000000131,12.795771653116437605
0.274000000000000132,12.634245545250072595
0.275000000000000133,12.476862442907346917
0.276000000000000134,12.323442071362691763
0.277000000000000135,12.173819549638583482
0.278000000000000136,12.027844486779759592
0.279000000000000137,11.885380072139792418
0.280000000000000138,11.746302166164678482
0.281000000000000139,11.610498397532024839
0.282000000000000139,11.477867271898521295
0.283000000000000140,11.348317296925856112
0.284000000000000141,11.221766127698554527
0.285000000000000142,11.098139736117230925
0.286000000000000143,10.977371607349633464
0.287000000000000144,10.859401965949899704
0.288000000000000145,10.744177033813965494
0.289000000000000146,10.631648321727025674
0.290000000000000147,10.521771955875923510
0.291000000000000147,10.414508040346412088
0.292000000000000148,10.309820056300448954
0.293000000000000149,10.207674298232536358
0.294000000000000150,10.108039347434630173
0.295000000000000151,10.010885582556184659
0.296000000000000152,9.916184726927760096
0.297000000000000153,9.823909432122615470
0.298000000000000154,9.734032897059183398
0.299000000000000155,9.646528521797380407
0.300000000000000155,9.561369595051884218
0.301000000000000156,9.478529014334799996
0.302000000000000157,9.397979037546601688
0.303000000000000158,9.319691064757762433
0.304000000000000159,9.243635448861576620
0.305000000000000160,9.169781333731233275
0.306000000000000161,9.098096518479213302
0.307000000000000162,9.028547346394038442
0.308000000000000163,8.961098617116913800
0.309000000000000163,8.895713520617933412
0.310000000000000164,8.832353591537225768
0.311000000000000165,8.770978682469982246
0.312000000000000166,8.711546954794442854
0.313000000000000167,8.654014885668418700
0.314000000000000168,8.598337289851304632
0.315000000000000169,8.544467355044735868
0.316000000000000170,8.492356689484770627
0.317000000000000171,8.441955380561799061
0.318000000000000171,8.393212063290075520
0.319000000000000172,8.346073997496651131
0.320000000000000173,8.300487152648985401
0.321000000000000174,8.256396299291454355
0.322000000000000175,8.213745106112188665
0.323000000000000176,8.172476241713875211
0.324000000000000177,8.132531480214044706
0.325000000000000178,8.093851809852370849
0.326000000000000179,8.056377543833692201
0.327000000000000179,8.020048432686360584
0.328000000000000180,7.984803777465356411
0.329000000000000181,7.950582543178039252
0.330000000000000182,7.917323471858479067
0.331000000000000183,7.884965194761906382
0.332000000000000184,7.853446343195976453
0.333000000000000185,7.822705657548513436
0.334000000000000186,7.792682094113013491
0.335000000000000187,7.763314929353003713
0.336000000000000187,7.734543861284604915
0.337000000000000188,7.706309107693051885
0.338000000000000189,7.678551500933485485
0.339000000000000190,7.651212579099298416
0.340000000000000191,7.624234673372562554
0.341000000000000192,7.597560991400176711
0.342000000000000193,7.571135696567369067
0.343000000000000194,7.544903983065763597
0.344000000000000195,7.518812146678042652
0.345000000000000195,7.492807651223293064
0.346000000000000196,7.466839190628784095
0.347000000000000197,7.440856746613047967
0.348000000000000198,7.414811641983499513
0.349000000000000199,7.388656589568265431
0.350000000000000200,7.362345736817202280
0.351000000000000201,7.335834706121064919
0.352000000000000202,7.309080630910306908
0.353000000000000203,7.282042187606519335
0.354000000000000203,7.254679623509699304
0.355000000000000204,7.226954780713855442
0.356000000000000205,7.198831116151367837
0.357000000000000206,7.170273717873745234
0.358000000000000207,7.141249317682735409
0.359000000000000208,7.111726300230830411
0.360000000000000209,7.081674708714787769
0.361000000000000210,7.051066247289608846
0.362000000000000210,7.019874280333125327
0.363000000000000211,6.988073828693922351
0.364000000000000212,6.955641563056765619
0.365000000000000213,6.922555794560911302
0.366000000000000214,6.888796462807151855
0.367000000000000215,6.854345121389540552
0.368000000000000216,6.819184921087165563
0.369000000000000217,6.783300590850693368
0.370000000000000218,6.746678416717041493
0.371000000000000218,6.709306218783984477
0.372000000000000219,6.671173326374568724
0.373000000000000220,6.632270551519084734
0.374000000000000221,6.592590160879870709
0.375000000000000222,6.552125846241608542
0.376000000000000223,6.510872693686712509
0.377000000000000224,6.468827151572744683
0.378000000000000225,6.425986997425175318
0.379000000000000226,6.382351303855833713
0.380000000000000226,6.337920403613746423
0.381000000000000227,6.292695853871697054
0.382000000000000228,6.246680399848162146
0.383000000000000229,6.199877937860683197
0.384000000000000230,6.152293477903100438
0.385000000000000231,6.103933105835268158
0.386000000000000232,6.054803945270327503
0.387000000000000233,6.004914119240769566
0.388000000000000234,5.954272711720919098
0.389000000000000234,5.902889729079773495
0.390000000000000235,5.850776061534553207
0.391000000000000236,5.797943444671606272
0.392000000000000237,5.744404421097982549
0.393000000000000238,5.690172302283299288
0.394000000000000239,5.635261130648249406
0.395000000000000240,5.579685641952687902
0.396000000000000241,5.523461228033001547
0.397000000000000242,5.466603899935184252
0.398000000000000242,5.409130251487045626
0.399000000000000243,5.351057423349850239
0.400000000000000244,5.292403067586791465
0.401000000000000245,5.233185312782727472
0.402000000000000246,5.173422729747113813
0.403000000000000247,5.113134297829004637
0.404000000000000248,5.052339371870754547
0.405000000000000249,4.991057649824310438
0.406000000000000250,4.929309141051781751
0.407000000000000250,4.867114135329473790
0.408000000000000251,4.804493172572493975
0.409000000000000252,4.741467013294885291
0.410000000000000253,4.678056609818132650
0.411000000000000254,4.614283078239050262
0.412000000000000255,4.550167671166155614
0.413000000000000256,4.485731751231787356
0.414000000000000257,4.420996765385744709
0.415000000000000258,4.355984219974331495
0.416000000000000258,4.290715656607535067
0.417000000000000259,4.225212628815247839
0.418000000000000260,4.159496679492434623
0.419000000000000261,4.093589319131557325
0.420000000000000262,4.027512004839693738
0.421000000000000263,3.961286120136235489
0.422000000000000264,3.894932955526499541
0.423000000000000265,3.828473689845099948
0.424000000000000266,3.761929372362315060
0.425000000000000266,3.695320905645749665
0.426000000000000267,3.628669029168707372
0.427000000000000268,3.561994303656033534
0.428000000000000269,3.495317096157503300
0.429000000000000270,3.428657565838155286
0.430000000000000271,3.362035650474391790
0.431000000000000272,3.295471053644217108
0.432000000000000273,3.228983232599436093
0.433000000000000274,3.162591386807252825
0.434000000000000274,3.096314447148228233
0.435000000000000275,3.030171065757424120
0.436000000000000276,2.964179606495027208
0.437000000000000277,2.898358136032599397
0.438000000000000278,2.832724415540937901
0.439000000000000279,2.767295892965185633
0.440000000000000280,2.702089695872795794
0.441000000000000281,2.637122624859858266
0.442000000000000282,2.572411147501012074
0.443000000000000282,2.507971392828402202
0.444000000000000283,2.443819146324778924
0.445000000000000284,2.379969845416125107
0.446000000000000285,2.316438575448969139
0.447000000000000286,2.253240066137723652
0.448000000000000287,2.190388688467395539
0.449000000000000288,2.127898452037102039
0.450000000000000289,2.065783002829875592
0.451000000000000290,2.004055621394442710
0.452000000000000290,1.942729221424679853
0.453000000000000291,1.881816348722705312
0.454000000000000292,1.821329180531619185
0.455000000000000293,1.761279525224118458
0.456000000000000294,1.701678822333435814
0.457000000000000295,1.642538142913129606
0.458000000000000296,1.583868190212590621
0.459000000000000297,1.525679300655216952
0.460000000000000298,1.467981445106480987
0.461000000000000298,1.410784230419396490
0.462000000000000299,1.354096901244953965
0.463000000000000300,1.297928342095535204
0.464000000000000301,1.242287079649373238
0.465000000000000302,1.187181285284562238
0.466000000000000303,1.132618777831109647
0.467000000000000304,1.078607026530054247
0.468000000000000305,1.025153154188763960
0.469000000000000306,0.972263940521770342
0.470000000000000306,0.919945825666852457
0.471000000000000307,0.868204913866282846
0.472000000000000308,0.817046977303394484
0.473000000000000309,0.766477460084878048
0.474000000000000310,0.716501482359613084
0.475000000000000311,0.667123844564786239
0.476000000000000312,0.618349031790768833
0.477000000000000313,0.570181218255913391
0.478000000000000314,0.522624271883251779
0.479000000000000314,0.475681758970873336
0.480000000000000315,0.429356948948293571
0.481000000000000316,0.383652819211229734
0.482000000000000317,0.338572060027509170
0.483000000000000318,0.294117079507028478
0.484000000000000319,0.250290008628959337
0.485000000000000320,0.207092706319639136
0.486000000000000321,0.164526764574715406
0.487000000000000322,0.122593513619505698
0.488000000000000322,0.081294027101617622
0.489000000000000323,0.040629127310158331
0.490000000000000324,0.000599390416044976
0.491000000000000325,-0.038794848271794267
0.492000000000000326,-0.077553489039432058
0.493000000000000327,-0.115676662494977545
0.494000000000000328,-0.153164724294277799
0.495000000000000329,-0.190018249869783273
0.496000000000000330,-0.226238029166738130
0.497000000000000330,-0.261825061390929703
0.498000000000000331,-0.296780549771684332
0.499000000000000332,-0.331105896343978690
0.500000000000000333,-0.364802696753167621
0.501000000000000334,-0.397872735085630425
0.502000000000000335,-0.430317978728633588
0.503000000000000336,-0.462140573262366128
0.504000000000000337,-0.493342837387120370
0.505000000000000338,-0.523927257888249454
0.506000000000000338,-0.553896484641569486
0.507000000000000339,-0.583253325661628574
0.508000000000000340,-0.612000742195074610
0.509000000000000341,-0.640141843861414261
0.510000000000000342,-0.667679883843042443
0.511000000000000343,-0.694618254126596724
0.512000000000000344,-0.720960480797287140
0.513000000000000345,-0.746710219387928142
0.514000000000000346,-0.771871250284259069
0.515000000000000346,-0.796447474187846227
0.516000000000000347,-0.820442907638027519
0.517000000000000348,-0.843861678594057252
0.518000000000000349,-0.866708022078548468
0.519000000000000350,-0.888986275883281829
0.520000000000000351,-0.910700876338233933
0.521000000000000352,-0.931856354144763421
0.522000000000000353,-0.952457330273549063
0.523000000000000353,-0.972508511928092512
0.524000000000000354,-0.992014688574260894
0.525000000000000355,-1.010980728036415588
0.526000000000000356,-1.029411572660517304
0.527000000000000357,-1.047312235544593850
0.528000000000000358,-1.064687796836859990
0.529000000000000359,-1.081543400101648178
0.530000000000000360,-1.097884248753355552
0.531000000000000361,-1.113715602558489559
0.532000000000000361,-1.129042774205842203
0.533000000000000362,-1.143871125944750933
0.534000000000000363,-1.158206066291393110
0.535000000000000364,-1.172053046803007259
0.536000000000000365,-1.185417558919793057
0.537000000000000366,-1.198305130874374402
0.538000000000000367,-1.210721324668428522
0.539000000000000368,-1.222671733116336590
0.540000000000000369,-1.234161976955344242
0.541000000000000369,-1.245197702021989761
0.542000000000000370,-1.255784576494253013
0.543000000000000371,-1.265928288199089202
0.544000000000000372,-1.275634541984781878
0.545000000000000373,-1.284909057157629153
0.546000000000000374,-1.293757564982434216
0.547000000000000375,-1.302185806246182631
0.548000000000000376,-1.310199528884389952
0.549000000000000377,-1.317804485669404446
0.550000000000000377,-1.325006431960140008
0.551000000000000378,-1.331811123512438355
0.552000000000000379,-1.338224314349551802
0.553000000000000380,-1.344251754691883960
0.554000000000000381,-1.349899188945382189
0.555000000000000382,-1.355172353747860381
0.556000000000000383,-1.360076976072400745
0.557000000000000384,-1.364618771387246188
0.558000000000000385,-1.368803441871256910
0.559000000000000385,-1.372636674684280633
0.560000000000000386,-1.376124140291596243
0.561000000000000387,-1.379271490841639913
0.562000000000000388,-1.382084358596215035
0.563000000000000389,-1.384568354412440305
0.564000000000000390,-1.386729066275516287
0.565000000000000391,-1.388572057881605648
0.566000000000000392,-1.390102867269932485
0.567000000000000393,-1.391327005503352865
0.568000000000000393,-1.392249955396478445
0.569000000000000394,-1.392877170290624633
0.570000000000000395,-1.393214072874732867
0.571000000000000396,-1.393266054051368608
0.572000000000000397,-1.393038471847112270
0.573000000000000398,-1.392536650366392958
0.574000000000000399,-1.391765878788020494
0.575000000000000400,-1.390731410403567292
0.576000000000000401,-1.389438461696781424
0.577000000000000401,-1.387892211463277459
0.578000000000000402,-1.386097799969606692
0.579000000000000403,-1.384060328150961583
0.580000000000000404,-1.381784856846751897
0.581000000000000405,-1.379276406073147498
0.582000000000000406,-1.376539954331936988
0.583000000000000407,-1.373580437954790900
0.584000000000000408,-1.370402750482285770
0.585000000000000409,-1.367011742076801095
0.586000000000000409,-1.363412218968593770
0.587000000000000410,-1.359608942934323217
0.588000000000000411,-1.355606630807165702
0.589000000000000412,-1.351409954017944282
0.590000000000000413,-1.347023538166370216
0.591000000000000414,-1.342451962621804551
0.592000000000000415,-1.337699760152783801
0.593000000000000416,-1.332771416584549229
0.594000000000000417,-1.327671370483955560
0.595000000000000417,-1.322404012871081225
0.596000000000000418,-1.316973686956721457
0.597000000000000419,-1.311384687905313040
0.598000000000000420,-1.305641262622395660
0.599000000000000421,-1.299747609566155759
0.600000000000000422,-1.293707878582265325
0.601000000000000423,-1.287526170761450928
0.602000000000000424,-1.281206538319159316
0.603000000000000425,-1.274752984496710040
0.604000000000000425,-1.268169463483264980
0.605000000000000426,-1.261459880358115182
0.606000000000000427,-1.254628091052652827
0.607000000000000428,-1.247677902331372879
0.608000000000000429,-1.240613071791527577
0.609000000000000430,-1.233437307880627776
0.610000000000000431,-1.226154269931476914
0.611000000000000432,-1.218767568214019992
0.612000000000000433,-1.211280764003565213
0.613000000000000433,-1.203697369664853634
0.614000000000000434,-1.196020848751440324
0.615000000000000435,-1.188254616119867269
0.616000000000000436,-1.180402038058179004
