# Tobermorite-004_BUTENE13-AC
# h[nm],U(h)[kJ/mol]
0.149999999999999994,113.701500085941830775
0.150999999999999995,112.343230064438031945
0.151999999999999996,110.749793297765876332
0.152999999999999997,109.068158627007079531
0.153999999999999998,107.385616746259159981
0.154999999999999999,105.745700807101655982
0.156000000000000000,104.163109433201924503
0.157000000000000001,102.635742049224589323
0.158000000000000002,101.153441949025562963
0.159000000000000002,99.703761767398930260
0.160000000000000003,98.275347221732815228
0.161000000000000004,96.859580666378590763
0.162000000000000005,95.451057572702438847
0.163000000000000006,94.047356471916117471
0.164000000000000007,92.648444148264459841
0.165000000000000008,91.255951568734332113
0.166000000000000009,89.872469530872123755
0.167000000000000010,88.500947442643536078
0.168000000000000010,87.144232044742238941
0.169000000000000011,85.804751988363705095
0.170000000000000012,84.484335472286062441
0.171000000000000013,83.184138373454729276
0.172000000000000014,81.904656727570596786
0.173000000000000015,80.645797845646086444
0.174000000000000016,79.406987138064451415
0.175000000000000017,78.187291670627288909
0.176000000000000018,76.985545785489676973
0.177000000000000018,75.800468264684994324
0.178000000000000019,74.630764194116551380
0.179000000000000020,73.475207755972434143
0.180000000000000021,72.332704597738469943
0.181000000000000022,71.202334224000793483
0.182000000000000023,70.083374099869530482
0.183000000000000024,68.975307927987842049
0.184000000000000025,67.877820955944429215
0.185000000000000026,66.790785275288399703
0.186000000000000026,65.714237966467777596
0.187000000000000027,64.648354693902234658
0.188000000000000028,63.593421018051046190
0.189000000000000029,62.549803311039035236
0.190000000000000030,61.517920772713488020
0.191000000000000031,60.498219669130982368
0.192000000000000032,59.491150571749884080
0.193000000000000033,58.497149072986168505
0.194000000000000034,57.516620197235944545
0.195000000000000034,56.549926517151888561
0.196000000000000035,55.597379821348717144
0.197000000000000036,54.659236058407671521
0.198000000000000037,53.735693198518085012
0.199000000000000038,52.826891603196621361
0.200000000000000039,51.932916469945801907
0.201000000000000040,51.053801917248428310
0.202000000000000041,50.189536291070659502
0.203000000000000042,49.340068302643658171
0.204000000000000042,48.505313644823729646
0.205000000000000043,47.685161777467769184
0.206000000000000044,46.879482618227669377
0.207000000000000045,46.088132921722134938
0.208000000000000046,45.310962175427398790
0.209000000000000047,44.547817883514959192
0.210000000000000048,43.798550149312461599
0.211000000000000049,43.063015502453616534
0.212000000000000050,42.341079947764754365
0.213000000000000050,41.632621239380846134
0.214000000000000051,40.937530405536001865
0.215000000000000052,40.255712567110009559
0.216000000000000053,39.587087106608024101
0.217000000000000054,38.931587254144098154
0.218000000000000055,38.289159163576677258
0.219000000000000056,37.659760555605004129
0.220000000000000057,37.043359005788865090
0.221000000000000058,36.439929954499334031
0.222000000000000058,35.849454513121813193
0.223000000000000059,35.271917136774000312
0.224000000000000060,34.707303228690847163
0.225000000000000061,34.155596735560280308
0.226000000000000062,33.616777786724384214
0.227000000000000063,33.090820423515474147
0.228000000000000064,32.577690458265060158
0.229000000000000065,32.077343495866287526
0.230000000000000066,31.589723144317428449
0.231000000000000066,31.114759434528252768
0.232000000000000067,30.652367463912717938
0.233000000000000068,30.202446272977010011
0.234000000000000069,29.764877959281442088
0.235000000000000070,29.339527028830552524
0.236000000000000071,28.926239981135097423
0.237000000000000072,28.524845120892177164
0.238000000000000073,28.135152586431125599
0.239000000000000073,27.756954582754410410
0.240000000000000074,27.390025805138009218
0.241000000000000075,27.034124037816248176
0.242000000000000076,26.688990911226738945
0.243000000000000077,26.354352800599457396
0.244000000000000078,26.029921848302262077
0.245000000000000079,25.715397092269206780
0.246000000000000080,25.410465683001952186
0.247000000000000081,25.114804172013705852
0.248000000000000081,24.828079855148025956
0.249000000000000082,24.549952154920173797
0.250000000000000111,24.280074026866998338
0.251000000000000112,24.018093375827753277
0.252000000000000113,23.763654469086482379
0.253000000000000114,23.516399334366802520
0.254000000000000115,23.275969131760518849
0.255000000000000115,23.042005489776496319
0.256000000000000116,22.814151796799595928
0.257000000000000117,22.592054440338319665
0.258000000000000118,22.375363987503227747
0.259000000000000119,22.163736301185895883
0.260000000000000120,21.956833587393433049
0.261000000000000121,21.754325370129624417
0.262000000000000122,21.555889391095981011
0.263000000000000123,21.361212432310942688
0.264000000000000123,21.169991060510604086
0.265000000000000124,20.981932292898676451
0.266000000000000125,20.796754184455441106
0.267000000000000126,20.614186337597615761
0.268000000000000127,20.433970335500642790
0.269000000000000128,20.255860100858022577
0.270000000000000129,20.079622182256198215
0.271000000000000130,19.905035970694147096
0.272000000000000131,19.731893849074364056
0.273000000000000131,19.560001277740735048
0.274000000000000132,19.389176819340686819
0.275000000000000133,19.219252106447804351
0.276000000000000134,19.050071755499722315
0.277000000000000135,18.881493230687500073
0.278000000000000136,18.713386661480335249
0.279000000000000137,18.545634617486012274
0.280000000000000138,18.378131844336667911
0.281000000000000139,18.210784964253068807
0.282000000000000139,18.043512144882779324
0.283000000000000140,17.876242739929807612
0.284000000000000141,17.708916904999000508
0.285000000000000142,17.541485191969435675
0.286000000000000143,17.373908125089890575
0.287000000000000144,17.206155761858319408
0.288000000000000145,17.038207241607459252
0.289000000000000146,16.870050324573281131
0.290000000000000147,16.701680924071983014
0.291000000000000147,16.533102634257758723
0.292000000000000148,16.364326255777740471
0.293000000000000149,16.195369321484374581
0.294000000000000150,16.026255624209731820
0.295000000000000151,15.857014748451893738
0.296000000000000152,15.687681607671709827
0.297000000000000153,15.518295988749386538
0.298000000000000154,15.348902105005237217
0.299000000000000155,15.179548159048142253
0.300000000000000155,15.010285916579277909
0.301000000000000156,14.841170292148017751
0.302000000000000157,14.672258947731048551
0.303000000000000158,14.503611904886721362
0.304000000000000159,14.335291171122364062
0.305000000000000160,14.167360381004783676
0.306000000000000161,13.999884452442511673
0.307000000000000162,13.832929258472512757
0.308000000000000163,13.666561314794893889
0.309000000000000163,13.500847483215375533
0.310000000000000164,13.335854691077997813
0.311000000000000165,13.171649666698462156
0.312000000000000166,13.008298690742858383
0.313000000000000167,12.845867363435619524
0.314000000000000168,12.684420387425634047
0.315000000000000169,12.524021366089261420
0.316000000000000170,12.364732617003991066
0.317000000000000171,12.206615000286022976
0.318000000000000171,12.049727761449512187
0.319000000000000172,11.894128388413344410
0.320000000000000173,11.739872482254181563
0.321000000000000174,11.587013641280851317
0.322000000000000175,11.435603357985147710
0.323000000000000176,11.285690928407749567
0.324000000000000177,11.137323373444484531
0.325000000000000178,10.990545371607980840
0.326000000000000179,10.845399202751965007
0.327000000000000179,10.701924702260772193
0.328000000000000180,10.560159225203658906
0.329000000000000181,10.420137619953324659
0.330000000000000182,10.281892210769466800
0.331000000000000183,10.145452788851553549
0.332000000000000184,10.010846611370022075
0.333000000000000185,9.878098407991734220
0.334000000000000186,9.747230394423066713
0.335000000000000187,9.618262292503386490
0.336000000000000187,9.491211356391415777
0.337000000000000188,9.366092404398310478
0.338000000000000189,9.242917856032777379
0.339000000000000190,9.121697773836192624
0.340000000000000191,9.002439909598827228
0.341000000000000192,8.885149754561608049
0.342000000000000193,8.769830593221993098
0.343000000000000194,8.656483560376505793
0.344000000000000195,8.545107701047333748
0.345000000000000195,8.435700032954425609
0.346000000000000196,8.328255611209678833
0.347000000000000197,8.222767594924230039
0.348000000000000198,8.119227315434512704
0.349000000000000199,8.017624345867442770
0.350000000000000200,7.917946571779248544
0.351000000000000201,7.820180262616910127
0.352000000000000202,7.724310143765097614
0.353000000000000203,7.630319468955174322
0.354000000000000203,7.538190092826392963
0.355000000000000204,7.447902543442618040
0.356000000000000205,7.359436094580567911
0.357000000000000206,7.272768837618232673
0.358000000000000207,7.187877752864179293
0.359000000000000208,7.104738780180222868
0.360000000000000209,7.023326888761208586
0.361000000000000210,6.943616145946824858
0.362000000000000210,6.865579784950698539
0.363000000000000211,6.789190271402349097
0.364000000000000212,6.714419368607245531
0.365000000000000213,6.641238201439593425
0.366000000000000214,6.569617318791413751
0.367000000000000215,6.499526754510019266
0.368000000000000216,6.430936086764026172
0.369000000000000217,6.363814495786006553
0.370000000000000218,6.298130819946957892
0.371000000000000218,6.233853610124977074
0.372000000000000219,6.170951182336918528
0.373000000000000220,6.109391668608182613
0.374000000000000221,6.049143066061560603
0.375000000000000222,5.990173284211674165
0.376000000000000223,5.932450190456520112
0.377000000000000224,5.875941653762749795
0.378000000000000225,5.820615586545621056
0.379000000000000226,5.766439984748897629
0.380000000000000226,5.713382966133778496
0.381000000000000227,5.661412806789748231
0.382000000000000228,5.610497975883386168
0.383000000000000229,5.560607168664384758
0.384000000000000230,5.511709337750916760
0.385000000000000231,5.463773722718824111
0.386000000000000232,5.416769878021836959
0.387000000000000233,5.370667699271768569
0.388000000000000234,5.325437447909871835
0.389000000000000234,5.281049774302069011
0.390000000000000235,5.237475739292323240
0.391000000000000236,5.194686834249847784
0.392000000000000237,5.152654999646905765
0.393000000000000238,5.111352642205007513
0.394000000000000239,5.070752650648192805
0.395000000000000240,5.030828410102702541
0.396000000000000241,4.991553815183009668
0.397000000000000242,4.952903281804545976
0.398000000000000242,4.914851757763765150
0.399000000000000243,4.877374732126513734
0.400000000000000244,4.840448243465580447
0.401000000000000245,4.804048886988399936
0.402000000000000246,4.768153820595938619
0.403000000000000247,4.732740769913201362
0.404000000000000248,4.697788032332058883
0.405000000000000249,4.663274480106323061
0.406000000000000250,4.629179562538882742
0.407000000000000250,4.595483307300121112
0.408000000000000251,4.562166320916355211
0.409000000000000252,4.529209788466499020
0.410000000000000253,4.496595472524495207
0.411000000000000254,4.464305711384437991
0.412000000000000255,4.432323416604651456
0.413000000000000256,4.400632069906154520
0.414000000000000257,4.369215719460385117
0.415000000000000258,4.338058975600024070
0.416000000000000258,4.307147005986267096
0.417000000000000259,4.276465530264754733
0.418000000000000260,4.246000814241847721
0.419000000000000261,4.215739663611814514
0.420000000000000262,4.185669417264888281
0.421000000000000263,4.155777940205081400
0.422000000000000264,4.126053616105950006
0.423000000000000265,4.096485339531521497
0.424000000000000266,4.067062507848749675
0.425000000000000266,4.037775012857073520
0.426000000000000267,4.008613232159648376
0.427000000000000268,3.979568020300115361
0.428000000000000269,3.950630699687800895
0.429000000000000270,3.921793051333432256
0.430000000000000271,3.893047305416676096
0.431000000000000272,3.864386131705839666
0.432000000000000273,3.835802629849442091
0.433000000000000274,3.807290319558398917
0.434000000000000274,3.778843130696829089
0.435000000000000275,3.750455393298793183
0.436000000000000276,3.722121827527337778
0.437000000000000277,3.693837533591671107
0.438000000000000278,3.665597981637385594
0.439000000000000279,3.637399001624062489
0.440000000000000280,3.609236773203765125
0.441000000000000281,3.581107815613425949
0.442000000000000282,3.553008977593199003
0.443000000000000282,3.524937427342513807
0.444000000000000283,3.496890642524632220
0.445000000000000284,3.468866400330131938
0.446000000000000285,3.440862767609013328
0.447000000000000286,3.412878091080539633
0.448000000000000287,3.384910987629473844
0.449000000000000288,3.356960334696677872
0.450000000000000289,3.329025260771623529
0.451000000000000290,3.301105135993817719
0.452000000000000290,3.273199562869613999
0.453000000000000291,3.245308367110490089
0.454000000000000292,3.217431588598316239
0.455000000000000293,3.189569472482750800
0.456000000000000294,3.161722460415492097
0.457000000000000295,3.133891181925620550
0.458000000000000296,3.106076445939954134
0.459000000000000297,3.078279232451954783
0.460000000000000298,3.050500684342245084
0.461000000000000298,3.022742099353648015
0.462000000000000299,2.995004922223103883
0.463000000000000300,2.967290736972694187
0.464000000000000301,2.939601259361535934
0.465000000000000302,2.911938329500146416
0.466000000000000303,2.884303904628504167
0.467000000000000304,2.856700052058809280
0.468000000000000305,2.829128942283705150
0.469000000000000306,2.801592842250449245
0.470000000000000306,2.774094108801284264
0.471000000000000307,2.746635182280114496
0.472000000000000308,2.719218580305304833
0.473000000000000309,2.691846891708228995
0.474000000000000310,2.664522770637124616
0.475000000000000311,2.637248930825427884
0.476000000000000312,2.610028140023860299
0.477000000000000313,2.582863214595097379
0.478000000000000314,2.555757014269988581
0.479000000000000314,2.528712437063921126
0.480000000000000315,2.501732414351971912
0.481000000000000316,2.474819906101241251
0.482000000000000317,2.447977896258765274
0.483000000000000318,2.421209388293193765
0.484000000000000319,2.394517400888413139
0.485000000000000320,2.367904963787173855
0.486000000000000321,2.341375113782659056
0.487000000000000322,2.314930890855937839
0.488000000000000322,2.288575334457127131
0.489000000000000323,2.262311479928022173
0.490000000000000324,2.236142355063923670
0.491000000000000325,2.210070976812338550
0.492000000000000326,2.184100348106157607
0.493000000000000327,2.158233454828909270
0.494000000000000328,2.132473262909648337
0.495000000000000329,2.106822715544969693
0.496000000000000330,2.081284730545700956
0.497000000000000330,2.055862197805652158
0.498000000000000331,2.030557976890013272
0.499000000000000332,2.005374894740736380
0.500000000000000333,1.980315743496367631
0.501000000000000334,1.955383278423826976
0.502000000000000335,1.930580215959445400
0.503000000000000336,1.905909231856818042
0.504000000000000337,1.881372959438804227
0.505000000000000338,1.856973987951192395
0.506000000000000338,1.832714861015428243
0.507000000000000339,1.808598075177886511
0.508000000000000340,1.784626078553199546
0.509000000000000341,1.760801269559058468
0.510000000000000342,1.737125995740085527
0.511000000000000343,1.713602552678227697
0.512000000000000344,1.690233182987304961
0.513000000000000345,1.667020075389238798
0.514000000000000346,1.643965363869562157
0.515000000000000346,1.621071126909880089
0.516000000000000347,1.598339386794917161
0.517000000000000348,1.575772108991823961
0.518000000000000349,1.553371201599486717
0.519000000000000350,1.531138514865577838
0.520000000000000351,1.509075840769144028
0.521000000000000352,1.487184912666493775
0.522000000000000353,1.465467404998341605
0.523000000000000353,1.443924933055943383
0.524000000000000354,1.422559052804305724
0.525000000000000355,1.401371260760267079
0.526000000000000356,1.380362993923579973
0.527000000000000357,1.359535629758920283
0.528000000000000358,1.338890486226935739
0.529000000000000359,1.318428821862428935
0.530000000000000360,1.298151835897819240
0.531000000000000361,1.278060668430040625
0.532000000000000361,1.258156400629105942
0.533000000000000362,1.238440054986587047
0.534000000000000363,1.218912595602310356
0.535000000000000364,1.199574928507557869
0.536000000000000365,1.180427902023201359
0.537000000000000366,1.161472307151103944
0.538000000000000367,1.142708877997296701
0.539000000000000368,1.124138292225341562
0.540000000000000369,1.105761171538446108
0.541000000000000369,1.087578082188849882
0.542000000000000370,1.069589535513105982
0.543000000000000371,1.051795988491825762
0.544000000000000372,1.034197844332596983
0.545000000000000373,1.016795453074754274
0.546000000000000374,0.999589112214709252
0.547000000000000375,0.982579067350649593
0.548000000000000376,0.965765512845358942
0.549000000000000377,0.949148592506039557
0.550000000000000377,0.932728400279930980
0.551000000000000378,0.916504980964734095
0.552000000000000379,0.900478330932650062
0.553000000000000380,0.884648398867088459
0.554000000000000381,0.869015086511015555
0.555000000000000382,0.853578249425922531
0.556000000000000383,0.838337697760564771
0.557000000000000384,0.823293197028449719
0.558000000000000385,0.808444468893298684
0.559000000000000385,0.793791191961540576
0.560000000000000386,0.779333002581049983
0.561000000000000387,0.765069495645347097
0.562000000000000388,0.751000225402464805
0.563000000000000389,0.737124706267728413
0.564000000000000390,0.723442413639777682
0.565000000000000391,0.709952784719090735
0.566000000000000392,0.696655219328381481
0.567000000000000393,0.683549080734192405
0.568000000000000393,0.670633696469117302
0.569000000000000394,0.657908359154007361
0.570000000000000395,0.645372327319620132
0.571000000000000396,0.633024826227182702
0.572000000000000397,0.620865048687280541
0.573000000000000398,0.608892155876653574
0.574000000000000399,0.597105278152345487
0.575000000000000400,0.585503515862782709
0.576000000000000401,0.574085940155352636
0.577000000000000401,0.562851593780007153
0.578000000000000402,0.551799491888541938
0.579000000000000403,0.540928622829172312
0.580000000000000404,0.530237948935961212
0.581000000000000405,0.519726407312873340
0.582000000000000406,0.509392910612006200
0.583000000000000407,0.499236347805775693
0.584000000000000408,0.489255584952699052
0.585000000000000409,0.479449465956528875
0.586000000000000409,0.469816813318463922
0.587000000000000410,0.460356428882152724
0.588000000000000411,0.451067094571336979
0.589000000000000412,0.441947573119793102
0.590000000000000413,0.432996608793485227
0.591000000000000414,0.424212928104641562
0.592000000000000415,0.415595240517622977
0.593000000000000416,0.407142239146398743
0.594000000000000417,0.398852601443473287
0.595000000000000417,0.390724989880094131
0.596000000000000418,0.382758052617672540
0.597000000000000419,0.374950424170199192
0.598000000000000420,0.367300726057639193
0.599000000000000421,0.359807567450113663
0.600000000000000422,0.352469545802841400
0.601000000000000423,0.345285247481748048
0.602000000000000424,0.338253248379615901
0.603000000000000425,0.331372114522765104
0.604000000000000425,0.324640402668215589
0.605000000000000426,0.318056660891223975
0.606000000000000427,0.311619429163194295
0.607000000000000428,0.305327239919968962
0.608000000000000429,0.299178618620349501
0.609000000000000430,0.293172084295005297
0.610000000000000431,0.287306150085587908
0.611000000000000432,0.281579323774167611
0.612000000000000433,0.275990108302942017
0.613000000000000433,0.270537002284219230
0.614000000000000434,0.265218500500717158
0.615000000000000435,0.260033094396181608
0.616000000000000436,0.254979272556358549
0.617000000000000437,0.250055521180318041
0.618000000000000438,0.245260324542211361
0.619000000000000439,0.240592165443483941
