# Tobermorite-004_CS-730-AC
# h[nm],U(h)[kJ/mol]
0.149999999999999994,128.552254695060128142
0.150999999999999995,126.826946670306284659
0.151999999999999996,124.749708160916014776
0.152999999999999997,122.569835962343816504
0.153999999999999998,120.408885613452298458
0.154999999999999999,118.313886790796644277
0.156000000000000000,116.292197192945792494
0.157000000000000001,114.333206289411549506
0.158000000000000002,112.420960716089709308
0.159000000000000002,110.540774424451299751
0.160000000000000003,108.682048609223059543
0.161000000000000004,106.838861449964525718
0.162000000000000005,105.009379558695286505
0.163000000000000006,103.194767701028325746
0.164000000000000007,101.398005270065226568
0.165000000000000008,99.622833277713453981
0.166000000000000009,97.872933630414337358
0.167000000000000010,96.151366173690064443
0.168000000000000010,94.460244957151004996
0.169000000000000011,92.800613064465750313
0.170000000000000012,91.172467487868047442
0.171000000000000013,89.574886353268283301
0.172000000000000014,88.006216436406276671
0.173000000000000015,86.464286735709947607
0.174000000000000016,84.946622202821615133
0.175000000000000017,83.450639569166028764
0.176000000000000018,81.973814007213235300
0.177000000000000018,80.513810903504889893
0.178000000000000019,79.068581273291457023
0.179000000000000020,77.636422409497427566
0.180000000000000021,76.216007390248378783
0.181000000000000022,74.806388252673585271
0.182000000000000023,73.406978159906174142
0.183000000000000024,72.017517912848376227
0.184000000000000025,70.638031836387568774
0.185000000000000026,69.268777524689895131
0.186000000000000026,67.910193260616807720
0.187000000000000027,66.562846205911853303
0.188000000000000028,65.227383747087429811
0.189000000000000029,63.904489715301920683
0.190000000000000030,62.594846601410452536
0.191000000000000031,61.299104373259908130
0.192000000000000032,60.017856076295323930
0.193000000000000033,58.751620059666223028
0.194000000000000034,57.500828413091618074
0.195000000000000034,56.265821016881815808
0.196000000000000035,55.046844489352054097
0.197000000000000036,53.844055252418534963
0.198000000000000037,52.657525917517411074
0.199000000000000038,51.487254210719811454
0.200000000000000039,50.333173699424023084
0.201000000000000040,49.195165645660196674
0.202000000000000041,48.073071386268033223
0.203000000000000042,46.966704722489645007
0.204000000000000042,45.875863886354920851
0.205000000000000043,44.800342735074600853
0.206000000000000044,43.739940904779189168
0.207000000000000045,42.694472729389488563
0.208000000000000046,41.663774797839622011
0.209000000000000047,40.647712082500987663
0.210000000000000048,39.646182623106980714
0.211000000000000049,38.659120793738715349
0.212000000000000050,37.686499215741285695
0.213000000000000050,36.728329407251557370
0.214000000000000051,35.784661280903215186
0.215000000000000052,34.855581615912690552
0.216000000000000053,33.941211639851900372
0.217000000000000054,33.041703859718317915
0.218000000000000055,32.157238282142479591
0.219000000000000056,31.288018159423550912
0.220000000000000057,30.434265392204668643
0.221000000000000058,29.596215711598375719
0.222000000000000058,28.774113753981545472
0.223000000000000059,27.968208130990511506
0.224000000000000060,27.178746585873806652
0.225000000000000061,26.405971315667709831
0.226000000000000062,25.650114526950211769
0.227000000000000063,24.911394281453986821
0.228000000000000064,24.190010676780651977
0.229000000000000065,23.486142397011043670
0.230000000000000066,22.799943658271924818
0.231000000000000066,22.131541565375471237
0.232000000000000067,21.481033887551422623
0.233000000000000068,20.848487254065258156
0.234000000000000069,20.233935764167238602
0.235000000000000070,19.637380000331685181
0.236000000000000071,19.058786429097615667
0.237000000000000072,18.498087169970553134
0.238000000000000073,17.955180109745825234
0.239000000000000073,17.429929337212552554
0.240000000000000074,16.922165871435129958
0.241000000000000075,16.431688655630768636
0.242000000000000076,15.958265788002810481
0.243000000000000077,15.501635960693443295
0.244000000000000078,15.061510078226330478
0.245000000000000079,14.637573027364794598
0.246000000000000080,14.229485571160674695
0.247000000000000081,13.836886341062449191
0.248000000000000081,13.459393902244267238
0.249000000000000082,13.096608868765548195
0.250000000000000111,12.748116046736269524
0.251000000000000112,12.413486585310995025
0.252000000000000113,12.092280117033006093
0.253000000000000114,11.784046870773483562
0.254000000000000115,11.488329742232233244
0.255000000000000115,11.204666308668711494
0.256000000000000116,10.932590776195045379
0.257000000000000117,10.671635849573046784
0.258000000000000118,10.421334516002957571
0.259000000000000119,10.181221735862342470
0.260000000000000120,9.950836034742362557
0.261000000000000121,9.729720992431108328
0.262000000000000122,9.517426625704098697
0.263000000000000123,9.313510662900380765
0.264000000000000123,9.117539709286848648
0.265000000000000124,8.929090303144466390
0.266000000000000125,8.747749863349033816
0.267000000000000126,8.573117529968765638
0.268000000000000127,8.404804900063234996
0.269000000000000128,8.242436661447911206
0.270000000000000129,8.085651127688242568
0.271000000000000130,7.934100678011965613
0.272000000000000131,7.787452106182554346
0.273000000000000131,7.645386882664643835
0.274000000000000132,7.507601334638975388
0.275000000000000133,7.373806748594502025
0.276000000000000134,7.243729400343430491
0.277000000000000135,7.117110517375960121
0.278000000000000136,6.993706178499496495
0.279000000000000137,6.873287155696860218
0.280000000000000138,6.755638703093479691
0.281000000000000139,6.640560297848796090
0.282000000000000139,6.527865337685864411
0.283000000000000140,6.417380799649097689
0.284000000000000141,6.308946864536456367
0.285000000000000142,6.202416511292473622
0.286000000000000143,6.097655085474870340
0.287000000000000144,5.994539845723537042
0.288000000000000145,5.892959491967552310
0.289000000000000146,5.792813678907734243
0.290000000000000147,5.694012518108847232
0.291000000000000147,5.596476071831016696
0.292000000000000148,5.500133841523846101
0.293000000000000149,5.404924253702300341
0.294000000000000150,5.310794145720683090
0.295000000000000151,5.217698253761693827
0.296000000000000152,5.125598705162732749
0.297000000000000153,5.034464517011613793
0.298000000000000154,4.944271102759904224
0.299000000000000155,4.854999788424573026
0.300000000000000155,4.766637339777824778
0.301000000000000156,4.679175501761960732
0.302000000000000157,4.592610551209967973
0.303000000000000158,4.506942863804950683
0.304000000000000159,4.422176496071243967
0.305000000000000160,4.338318783058205952
0.306000000000000161,4.255379952253585785
0.307000000000000162,4.173372754147259833
0.308000000000000163,4.092312109758111660
0.309000000000000163,4.012214775336115480
0.310000000000000164,3.933099024358971629
0.311000000000000165,3.854984346856973332
0.312000000000000166,3.777891166021360991
0.313000000000000167,3.701840571979964523
0.314000000000000168,3.626854072558931996
0.315000000000000169,3.552953360790895854
0.316000000000000170,3.480160098877346453
0.317000000000000171,3.408495718266345342
0.318000000000000171,3.337981235465609764
0.319000000000000172,3.268637083174770197
0.320000000000000173,3.200482956289685710
0.321000000000000174,3.133537672305178212
0.322000000000000175,3.067819045620252094
0.323000000000000176,3.003343775231835711
0.324000000000000177,2.940127345288632288
0.325000000000000178,2.878183937965809847
0.326000000000000179,2.817526358113409124
0.327000000000000179,2.758165969126873840
0.328000000000000180,2.700112639485960919
0.329000000000000181,2.643374699408691519
0.330000000000000182,2.587958907070064818
0.331000000000000183,2.533870423839666763
0.332000000000000184,2.481112797999321717
0.333000000000000185,2.429687956410011562
0.334000000000000186,2.379596203607141636
0.335000000000000187,2.330836227814348405
0.336000000000000187,2.283405113378104812
0.337000000000000188,2.237298359138857773
0.338000000000000189,2.192509902268095168
0.339000000000000190,2.149032147115753855
0.340000000000000191,2.106855998627712445
0.341000000000000192,2.065970899908619707
0.342000000000000193,2.026364873521864673
0.343000000000000194,1.988024566134501070
0.344000000000000195,1.950935296131988350
0.345000000000000195,1.915081103843791155
0.346000000000000196,1.880444804038018614
0.347000000000000197,1.847008040359698899
0.348000000000000198,1.814751341403831209
0.349000000000000199,1.783654178130886336
0.350000000000000200,1.753695022348313204
0.351000000000000201,1.724851405997764431
0.352000000000000202,1.697099981003180158
0.353000000000000203,1.670416579450110905
0.354000000000000203,1.644776273881622286
0.355000000000000204,1.620153437510596373
0.356000000000000205,1.596521804162266855
0.357000000000000206,1.573854527774436907
0.358000000000000207,1.552124241296246376
0.359000000000000208,1.531303114838806545
0.360000000000000209,1.511362912943426284
0.361000000000000210,1.492275050845064621
0.362000000000000210,1.474010649619719615
0.363000000000000211,1.456540590115558587
0.364000000000000212,1.439835565577768817
0.365000000000000213,1.423866132887146474
0.366000000000000214,1.408602762341771397
0.367000000000000215,1.394015885920149467
0.368000000000000216,1.380075943972559394
0.369000000000000217,1.366753430295620575
0.370000000000000218,1.354018935552447234
0.371000000000000218,1.341843189008151915
0.372000000000000219,1.330197098557007074
0.373000000000000220,1.319051789024077381
0.374000000000000221,1.308378638729927435
0.375000000000000222,1.298149314312765368
0.376000000000000223,1.288335803807226565
0.377000000000000224,1.278910447984171750
0.378000000000000225,1.269845969960074594
0.379000000000000226,1.261115503088841905
0.380000000000000226,1.252692617152552534
0.381000000000000227,1.244551342871333510
0.382000000000000228,1.236666194755489112
0.383000000000000229,1.229012192326103037
0.384000000000000230,1.221564879732961684
0.385000000000000231,1.214300343800801540
0.386000000000000232,1.207195230537344788
0.387000000000000233,1.200226760138140225
0.388000000000000234,1.193372740525179054
0.389000000000000234,1.186611579457431009
0.390000000000000235,1.179922295252991749
0.391000000000000236,1.173284526163322905
0.392000000000000237,1.166678538441179080
0.393000000000000238,1.160085233144358741
0.394000000000000239,1.153486151718136954
0.395000000000000240,1.146863480399510582
0.396000000000000241,1.140200053486781995
0.397000000000000242,1.133479355518100862
0.398000000000000242,1.126685522402585571
0.399000000000000243,1.119803341547684683
0.400000000000000244,1.112818251026145067
0.401000000000000245,1.105716337825644713
0.402000000000000246,1.098484335224013675
0.403000000000000247,1.091109619332206737
0.404000000000000248,1.083580204846938067
0.405000000000000249,1.075884740054144029
0.406000000000000250,1.068012501123903668
0.407000000000000250,1.059953385736656761
0.408000000000000251,1.051697906079890332
0.409000000000000252,1.043237181253620971
0.410000000000000253,1.034562929122213593
0.411000000000000254,1.025667457649165337
0.412000000000000255,1.016543655750682840
0.413000000000000256,1.007184983702795744
0.414000000000000257,0.997585463136069550
0.415000000000000258,0.987739666650707449
0.416000000000000258,0.977642707084196538
0.417000000000000259,0.967290226462374614
0.418000000000000260,0.956678384664033543
0.419000000000000261,0.945803847828037947
0.420000000000000262,0.934663776531044155
0.421000000000000263,0.923255813762792088
0.422000000000000264,0.911578072725133026
0.423000000000000265,0.899629124479790709
0.424000000000000266,0.887407985468925076
0.425000000000000266,0.874914104931717396
0.426000000000000267,0.862147352239046372
0.427000000000000268,0.849108004167508312
0.428000000000000269,0.835796732133073483
0.429000000000000270,0.822214589403689522
0.430000000000000271,0.808362998309338776
0.431000000000000272,0.794243737467054456
0.432000000000000273,0.779858929037634985
0.433000000000000274,0.765211026029861463
0.434000000000000274,0.750302799667197817
0.435000000000000275,0.735137326831216353
0.436000000000000276,0.719717977595058178
0.437000000000000277,0.704048402859583811
0.438000000000000278,0.688132522104052402
0.439000000000000279,0.671974511262419583
0.440000000000000280,0.655578790735672712
0.441000000000000281,0.638950013549928975
0.442000000000000282,0.622093053669234286
0.443000000000000282,0.605012994471584076
0.444000000000000283,0.587715117395748665
0.445000000000000284,0.570204890766175199
0.446000000000000285,0.552487958802452161
0.447000000000000286,0.534570130819273959
0.448000000000000287,0.516457370622443568
0.449000000000000288,0.498155786105697274
0.450000000000000289,0.479671619052831066
0.451000000000000290,0.461011235149001053
0.452000000000000290,0.442181114204625136
0.453000000000000291,0.423187840594916598
0.454000000000000292,0.404038093917569174
0.455000000000000293,0.384738639870764232
0.456000000000000294,0.365296321353261899
0.457000000000000295,0.345718049787934023
0.458000000000000296,0.326010796669792491
0.459000000000000297,0.306181585339176998
0.460000000000000298,0.286237482980457647
0.461000000000000298,0.266185592846336083
0.462000000000000299,0.246033046707449632
0.463000000000000300,0.225786997526832595
0.464000000000000301,0.205454612358382471
0.465000000000000302,0.185043065468373097
0.466000000000000303,0.164559531678709403
0.467000000000000304,0.144011179930461919
0.468000000000000305,0.123405167066017007
0.469000000000000306,0.102748631827944331
0.470000000000000306,0.082048689072511616
0.471000000000000307,0.061312424195684237
0.472000000000000308,0.040546887769152884
0.473000000000000309,0.019759090383900280
0.474000000000000310,-0.001044002301331792
0.475000000000000311,-0.021855474309535671
0.476000000000000312,-0.042668463895690380
0.477000000000000313,-0.063476167900894873
0.478000000000000314,-0.084271845913360663
0.479000000000000314,-0.105048824239572000
0.480000000000000315,-0.125800499688775769
0.481000000000000316,-0.146520343174220247
0.482000000000000317,-0.167201903134475860
0.483000000000000318,-0.187838808778342192
0.484000000000000319,-0.208424773156807769
0.485000000000000320,-0.228953596065611859
0.486000000000000321,-0.249419166782007817
0.487000000000000322,-0.269815466639299895
0.488000000000000322,-0.290136571442779545
0.489000000000000323,-0.310376653730735974
0.490000000000000324,-0.330529984884168682
0.491000000000000325,-0.350590937088858801
0.492000000000000326,-0.370553985153471155
0.493000000000000327,-0.390413708187345387
0.494000000000000328,-0.410164791141613694
0.495000000000000329,-0.429802026217303290
0.496000000000000330,-0.449320314144002975
0.497000000000000330,-0.468714665332794322
0.498000000000000331,-0.487980200906880435
0.499000000000000332,-0.507112153613604510
0.500000000000000333,-0.526105868621332573
0.501000000000000334,-0.544956804204658418
0.502000000000000335,-0.563660532321475616
0.503000000000000336,-0.582212739085251396
0.504000000000000337,-0.600609225135980140
0.505000000000000338,-0.618845905913080752
0.506000000000000338,-0.636918811833594334
0.507000000000000339,-0.654824088378939573
0.508000000000000340,-0.672557996093396726
0.509000000000000341,-0.690116910497557967
0.510000000000000342,-0.707497321919778988
0.511000000000000343,-0.724695835248790998
0.512000000000000344,-0.741709169610407337
0.513000000000000345,-0.758534157971330059
0.514000000000000346,-0.775167746673011471
0.515000000000000346,-0.791606994898333416
0.516000000000000347,-0.807849074073982210
0.517000000000000348,-0.823891267211279477
0.518000000000000349,-0.839730968188101778
0.519000000000000350,-0.855365680974599085
0.520000000000000351,-0.870793018805244956
0.521000000000000352,-0.886010703299801916
0.522000000000000353,-0.901016563535609771
0.523000000000000353,-0.915808535073692753
0.524000000000000354,-0.930384658940982767
0.525000000000000355,-0.944743080571017635
0.526000000000000356,-0.958882048705312129
0.527000000000000357,-0.972799914257657328
0.528000000000000358,-0.986495129143464267
0.529000000000000359,-0.999966245076217120
0.530000000000000360,-1.013211912333099596
0.531000000000000361,-1.026230878491772414
0.532000000000000361,-1.039021987140213321
0.533000000000000362,-1.051584176561498385
0.534000000000000363,-1.063916478395338538
0.535000000000000364,-1.076018016278169620
0.536000000000000365,-1.087888004463456237
0.537000000000000366,-1.099525746423950512
0.538000000000000367,-1.110930633437429593
0.539000000000000368,-1.122102143157589715
0.540000000000000369,-1.133039838171508773
0.541000000000000369,-1.143743364545234620
0.542000000000000370,-1.154212450358842679
0.543000000000000371,-1.164446904232417479
0.544000000000000372,-1.174446613844228882
0.545000000000000373,-1.184211544442425046
0.546000000000000374,-1.193741737351465604
0.547000000000000375,-1.203037308474485867
0.548000000000000376,-1.212098446792795325
0.549000000000000377,-1.220925412863539838
0.550000000000000377,-1.229518537316702131
0.551000000000000378,-1.237878219352365416
0.552000000000000379,-1.246004925239340810
0.553000000000000380,-1.253899186816018752
0.554000000000000381,-1.261561599994407423
0.555000000000000382,-1.268992823268270342
0.556000000000000383,-1.276193576226099635
0.557000000000000384,-1.283164638069871355
0.558000000000000385,-1.289906846140223440
0.559000000000000385,-1.296421094448901190
0.560000000000000386,-1.302708332219111087
0.561000000000000387,-1.308769562434482170
0.562000000000000388,-1.314605840397266245
0.563000000000000389,-1.320218272296419082
0.564000000000000390,-1.325608013786089945
0.565000000000000391,-1.330776268575125876
0.566000000000000392,-1.335724287028082546
0.567000000000000393,-1.340453364778267487
0.568000000000000393,-1.344964841353227580
0.569000000000000394,-1.349260098813205078
0.570000000000000395,-1.353340560402932935
0.571000000000000396,-1.357207689217131197
0.572000000000000397,-1.360862986880173597
0.573000000000000398,-1.364307992240158862
0.574000000000000399,-1.367544280077791496
0.575000000000000400,-1.370573459830333851
0.576000000000000401,-1.373397174330902804
0.577000000000000401,-1.376017098563428576
0.578000000000000402,-1.378434938433438006
0.579000000000000403,-1.380652429554921179
0.580000000000000404,-1.382671336053517219
0.581000000000000405,-1.384493449386113184
0.582000000000000406,-1.386120587177126495
0.583000000000000407,-1.387554592071523762
0.584000000000000408,-1.388797330604791380
0.585000000000000409,-1.389850692089913187
0.586000000000000409,-1.390716587521471315
0.587000000000000410,-1.391396948497011010
0.588000000000000411,-1.391893726155625677
0.589000000000000412,-1.392208890133967314
0.590000000000000413,-1.392344427539584206
0.591000000000000414,-1.392302341941725308
0.592000000000000415,-1.392084652379590670
0.593000000000000416,-1.391693392388013706
0.594000000000000417,-1.391130609040609478
0.595000000000000417,-1.390398362010392574
0.596000000000000418,-1.389498722647745321
0.597000000000000419,-1.388433773075840261
0.598000000000000420,-1.387205605303339029
0.599000000000000421,-1.385816320354428921
0.600000000000000422,-1.384268027416048819
0.601000000000000423,-1.382562843002274944
0.602000000000000424,-1.380702890135795169
0.603000000000000425,-1.378690297546384169
0.604000000000000425,-1.376527198886235315
0.605000000000000426,-1.374215731962129983
0.606000000000000427,-1.371758037984310397
0.607000000000000428,-1.369156260831857264
0.608000000000000429,-1.366412546334647260
0.609000000000000430,-1.363529041571524436
0.610000000000000431,-1.360507894184782129
0.611000000000000432,-1.357351251710654072
0.612000000000000433,-1.354061260925756516
0.613000000000000433,-1.350640067209342821
0.614000000000000434,-1.347089813921181989
0.615000000000000435,-1.343412641794915929
0.616000000000000436,-1.339610688346767331
0.617000000000000437,-1.335686087299444713
