# Tobermorite-004_CS-1057-AC
# h[nm],U(h)[kJ/mol]
0.149999999999999994,145.026343258003720393
0.150999999999999995,142.666959368261728969
0.151999999999999996,140.242096935997693663
0.152999999999999997,137.812468442399534752
0.153999999999999998,135.415383245951005620
0.154999999999999999,133.069020702768455067
0.156000000000000000,130.778349769153976467
0.157000000000000001,128.540598412748920509
0.158000000000000002,126.349472063247546316
0.159000000000000002,124.197993760124589357
0.160000000000000003,122.080148598238480417
0.161000000000000004,119.991622620557905066
0.162000000000000005,117.929929196359438492
0.163000000000000006,115.894171501254874102
0.164000000000000007,113.884630058773694827
0.165000000000000008,111.902306051449613733
0.166000000000000009,109.948501773826450290
0.167000000000000010,108.024481539682057019
0.168000000000000010,106.131229226976259383
0.169000000000000011,104.269300862115045447
0.170000000000000012,102.438760221717643617
0.171000000000000013,100.639180419809392220
0.172000000000000014,98.869693160345846650
0.173000000000000015,97.129068407458092338
0.174000000000000016,95.415809626158747392
0.175000000000000017,93.728252734082445841
0.176000000000000018,92.064659980831592634
0.177000000000000018,90.423302824414449219
0.178000000000000019,88.802530332650292166
0.179000000000000020,87.200821628734317414
0.180000000000000021,85.616822418076992562
0.181000000000000022,84.049366712788781797
0.182000000000000023,82.497485568140376699
0.183000000000000024,80.960405028945018557
0.184000000000000025,79.437535620952530735
0.185000000000000026,77.928455676334834834
0.186000000000000026,76.432890608936375543
0.187000000000000027,74.950690000977061800
0.188000000000000028,73.481804066016962906
0.189000000000000029,72.026260742263602310
0.190000000000000030,70.584144367052957136
0.191000000000000031,69.155576602284540400
0.192000000000000032,67.740700031026435113
0.193000000000000033,66.339664632378770648
0.194000000000000034,64.952617166653482172
0.195000000000000034,63.579693365217543999
0.196000000000000035,62.221012716509946472
0.197000000000000036,60.876675568264047911
0.198000000000000037,59.546762221734709897
0.199000000000000038,58.231333672415658498
0.200000000000000039,56.930433649050186773
0.201000000000000040,55.644091614636998600
0.202000000000000041,54.372326415916084841
0.203000000000000042,53.115150298225763947
0.204000000000000042,51.872573037837675258
0.205000000000000043,50.644605981561781505
0.206000000000000044,49.431265821658939785
0.207000000000000045,48.232577971412794682
0.208000000000000046,47.048579441968584547
0.209000000000000047,45.879321153436194436
0.210000000000000048,44.724869642254027724
0.211000000000000049,43.585308152117292479
0.212000000000000050,42.460737117277922437
0.213000000000000050,41.351274064763337890
0.214000000000000051,40.257052976184652948
0.215000000000000052,39.178223160546558290
0.216000000000000053,38.114947697123284343
0.217000000000000054,37.067401512349469783
0.218000000000000055,36.035769157138119567
0.219000000000000056,35.020242351425835636
0.220000000000000057,34.021017361392900114
0.221000000000000058,33.038292272043790376
0.222000000000000058,32.072264213950219869
0.223000000000000059,31.123126598241789509
0.224000000000000060,30.191066408614140926
0.225000000000000061,29.276261593434696806
0.226000000000000062,28.378878595146641572
0.227000000000000063,27.499070048262797883
0.228000000000000064,26.636972671436296878
0.229000000000000065,25.792705373499273946
0.230000000000000066,24.966367588062695404
0.231000000000000066,24.158037846330092435
0.232000000000000067,23.367772593244556134
0.233000000000000068,22.595605247989240638
0.234000000000000069,21.841545506213929428
0.235000000000000070,21.105578878168664403
0.236000000000000071,20.387666454184138587
0.237000000000000072,19.687744886634433783
0.238000000000000073,19.005726575631662456
0.239000000000000073,18.341500044211720422
0.240000000000000074,17.694930487643379280
0.241000000000000075,17.065860480706525948
0.242000000000000076,16.454110826301921122
0.243000000000000077,15.859481528546325535
0.244000000000000078,15.281752873540543902
0.245000000000000079,14.720686601242306324
0.246000000000000080,14.176027152302870249
0.247000000000000081,13.647502974304137169
0.248000000000000081,13.134827872538895832
0.249000000000000082,12.637702391283273329
0.250000000000000111,12.155815212394813329
0.251000000000000112,11.688844559012391500
0.252000000000000113,11.236459593114215494
0.253000000000000114,10.798321796694393626
0.254000000000000115,10.374086327327264101
0.255000000000000115,9.963403339893915245
0.256000000000000116,9.565919267232242618
0.257000000000000117,9.181278053433022279
0.258000000000000118,8.809122334432201384
0.259000000000000119,8.449094561435899209
0.260000000000000120,8.100838063555801938
0.261000000000000121,7.763998046825238752
0.262000000000000122,7.438222527505605974
0.263000000000000123,7.123163198279605979
0.264000000000000123,6.818476226558791708
0.265000000000000124,6.523822984709829242
0.266000000000000125,6.238870712525665496
0.267000000000000126,5.963293112736704593
0.268000000000000127,5.696770880773054380
0.269000000000000128,5.438992170355760436
0.270000000000000129,5.189652996812666785
0.271000000000000130,4.948457580286877544
0.272000000000000131,4.715118631235086788
0.273000000000000131,4.489357580801319969
0.274000000000000132,4.270904758802474888
0.275000000000000133,4.059499522177420161
0.276000000000000134,3.854890336834726927
0.277000000000000135,3.656834815888070800
0.278000000000000136,3.465099717294803927
0.279000000000000137,3.279460903916156411
0.280000000000000138,3.099703268998492245
0.281000000000000139,2.925620630036631642
0.282000000000000139,2.757015593925226327
0.283000000000000140,2.593699396234163679
0.284000000000000141,2.435491717361506936
0.285000000000000142,2.282220478224119997
0.286000000000000143,2.133721618043888490
0.287000000000000144,1.989838856678345369
0.288000000000000145,1.850423443828708825
0.289000000000000146,1.715333897339856195
0.290000000000000147,1.584435732683392661
0.291000000000000147,1.457601185591560267
0.292000000000000148,1.334708929684027101
0.293000000000000149,1.215643790805250202
0.294000000000000150,1.100296459665957682
0.295000000000000151,0.988563204260100470
0.296000000000000152,0.880345583409048893
0.297000000000000153,0.775550162667629106
0.298000000000000154,0.674088233713344476
0.299000000000000155,0.575875538230178674
0.300000000000000155,0.480831997192796401
0.301000000000000156,0.388881446355816562
0.302000000000000157,0.299951378655774148
0.303000000000000158,0.213972694141769504
0.304000000000000159,0.130879457963162610
0.305000000000000160,0.050608666860783955
0.306000000000000161,-0.026899975469733016
0.307000000000000162,-0.101704273846285109
0.308000000000000163,-0.173859747671788079
0.309000000000000163,-0.243419827443487946
0.310000000000000164,-0.310436041593011747
0.311000000000000165,-0.374958193603825429
0.312000000000000166,-0.437034529402324345
0.313000000000000167,-0.496711895063710052
0.314000000000000168,-0.554035884914912069
0.315000000000000169,-0.609050980153807209
0.316000000000000170,-0.661800678137359877
0.317000000000000171,-0.712327612520831654
0.318000000000000171,-0.760673664456486764
0.319000000000000172,-0.806880065083338316
0.320000000000000173,-0.850987489559249966
0.321000000000000174,-0.893036142903812391
0.322000000000000175,-0.933065837934833886
0.323000000000000176,-0.971116065593035538
0.324000000000000177,-1.007226057959037746
0.325000000000000178,-1.041434844273940730
0.326000000000000179,-1.073781300280288953
0.327000000000000179,-1.104304191203298702
0.328000000000000180,-1.133042208694074793
0.329000000000000181,-1.160034002056871572
0.330000000000000182,-1.185318204080578752
0.331000000000000183,-1.208933451792784997
0.332000000000000184,-1.230918402450338123
0.333000000000000185,-1.251311745075939008
0.334000000000000186,-1.270152207844466474
0.335000000000000187,-1.287478561616132833
0.336000000000000187,-1.303329619906530734
0.337000000000000188,-1.317744235575370126
0.338000000000000189,-1.330761294507806891
0.339000000000000190,-1.342419706553058756
0.340000000000000191,-1.352758393975800999
0.341000000000000192,-1.361816277666650254
0.342000000000000193,-1.369632261347825120
0.343000000000000194,-1.376245214000729078
0.344000000000000195,-1.381693950731521126
0.345000000000000195,-1.386017212281422717
0.346000000000000196,-1.389253643377746483
0.347000000000000197,-1.391441770112017862
0.348000000000000198,-1.392619976521433767
0.349000000000000199,-1.392826480539967715
0.350000000000000200,-1.392099309475880675
0.351000000000000201,-1.390476275162599640
0.352000000000000202,-1.387994948920701521
0.353000000000000203,-1.384692636459564863
0.354000000000000203,-1.380606352838222417
0.355000000000000204,-1.375772797596290786
0.356000000000000205,-1.370228330157459151
0.357000000000000206,-1.364008945599889389
0.358000000000000207,-1.357150250879766817
0.359000000000000208,-1.349687441586927106
0.360000000000000209,-1.341655279304080350
0.361000000000000210,-1.333088069633965533
0.362000000000000210,-1.324019640952358134
0.363000000000000211,-1.314483323938157922
0.364000000000000212,-1.304511931925887325
0.365000000000000213,-1.294137742119905621
0.366000000000000214,-1.283392477704284662
0.367000000000000215,-1.272307290876899533
0.368000000000000216,-1.260912746831524434
0.369000000000000217,-1.249238808706778503
0.370000000000000218,-1.237314823516661111
0.371000000000000218,-1.225169509072999263
0.372000000000000219,-1.212830941906495541
0.373000000000000220,-1.200326546189301125
0.374000000000000221,-1.187683083658723548
0.375000000000000222,-1.174926644538437426
0.376000000000000223,-1.162082639450929378
0.377000000000000224,-1.149175792311871280
0.378000000000000225,-1.136230134194953667
0.379000000000000226,-1.123268998153227338
0.380000000000000226,-1.110315014981168913
0.381000000000000227,-1.097390109899518684
0.382000000000000228,-1.084515500143550026
0.383000000000000229,-1.071711693433722301
0.384000000000000230,-1.058998487306296976
0.385000000000000231,-1.046394969280509457
0.386000000000000232,-1.033919517837547986
0.387000000000000233,-1.021589804185945916
0.388000000000000234,-1.009422794786984046
0.389000000000000234,-0.997434754613313102
0.390000000000000235,-0.985641251113175132
0.391000000000000236,-0.974057158852475569
0.392000000000000237,-0.962696664806382052
0.393000000000000238,-0.951573274272140446
0.394000000000000239,-0.940699817374464842
0.395000000000000240,-0.930088456134978481
0.396000000000000241,-0.919750692077138998
0.397000000000000242,-0.909697374338177767
0.398000000000000242,-0.899938708259861442
0.399000000000000243,-0.890484264429997396
0.400000000000000244,-0.881342988146951334
0.401000000000000245,-0.872523209279945200
0.402000000000000246,-0.864032652497962239
0.403000000000000247,-0.855878447840920820
0.404000000000000248,-0.848067141606964059
0.405000000000000249,-0.840604707530415496
0.406000000000000250,-0.833496558225366613
0.407000000000000250,-0.826747556870551903
0.408000000000000251,-0.820362029111680768
0.409000000000000252,-0.814343775158095307
0.410000000000000253,-0.808696082051178267
0.411000000000000254,-0.803421736082684523
0.412000000000000255,-0.798523035341726306
0.413000000000000256,-0.794001802370000620
0.414000000000000257,-0.789859396905250088
0.415000000000000258,-0.786096728694002600
0.416000000000000258,-0.782714270354953889
0.417000000000000259,-0.779712070275384472
0.418000000000000260,-0.777089765523445331
0.419000000000000261,-0.774846594760012053
0.420000000000000262,-0.772981411134374685
0.421000000000000263,-0.771492695148869090
0.422000000000000264,-0.770378567477999376
0.423000000000000265,-0.769636801728504794
0.424000000000000266,-0.769264837127426437
0.425000000000000266,-0.769259791125738390
0.426000000000000267,-0.769618471905950452
0.427000000000000268,-0.770337390782625198
0.428000000000000269,-0.771412774485337849
0.429000000000000270,-0.772840577314321875
0.430000000000000271,-0.774616493159512975
0.431000000000000272,-0.776735967374409864
0.432000000000000273,-0.779194208496609364
0.433000000000000274,-0.781986199807552684
0.434000000000000274,-0.785106710724460921
0.435000000000000275,-0.788550308017990864
0.436000000000000276,-0.792311366849691723
0.437000000000000277,-0.796384081623756956
0.438000000000000278,-0.800762476648105403
0.439000000000000279,-0.805440416600283093
0.440000000000000280,-0.810411616794083800
0.441000000000000281,-0.815669653243211279
0.442000000000000282,-0.821207972518883111
0.443000000000000282,-0.827019901398329260
0.444000000000000283,-0.833098656301975327
0.445000000000000284,-0.839437352517059865
0.446000000000000285,-0.846029013206017866
0.447000000000000286,-0.852866578198333114
0.448000000000000287,-0.859942912564645390
0.449000000000000288,-0.867250814972541972
0.450000000000000289,-0.874783025823462568
0.451000000000000290,-0.882532235170612855
0.452000000000000290,-0.890491090418029430
0.453000000000000291,-0.898652203801083793
0.454000000000000292,-0.907008159649121737
0.455000000000000293,-0.915551521431042681
0.456000000000000294,-0.924274838584884906
0.457000000000000295,-0.933170653132722849
0.458000000000000296,-0.942231506082301884
0.459000000000000297,-0.951449943617104110
0.460000000000000298,-0.960818523076661934
0.461000000000000298,-0.970329818729088522
0.462000000000000299,-0.979976427338029366
0.463000000000000300,-0.989750973526228206
0.464000000000000301,-0.999646114938231301
0.465000000000000302,-1.009654547204682951
0.466000000000000303,-1.019769008710925906
0.467000000000000304,-1.029982285172638568
0.468000000000000305,-1.040287214021374140
0.469000000000000306,-1.050676688602935727
0.470000000000000306,-1.061143662191659232
0.471000000000000307,-1.071681151823611788
0.472000000000000308,-1.082282241951965762
0.473000000000000309,-1.092940087927721127
0.474000000000000310,-1.103647919309021175
0.475000000000000311,-1.114399043002461287
0.476000000000000312,-1.125186846239660365
0.477000000000000313,-1.136004799392554387
0.478000000000000314,-1.146846458630755183
0.479000000000000314,-1.157705468424508721
0.480000000000000315,-1.168575563896601999
0.481000000000000316,-1.179450573026779914
0.482000000000000317,-1.190324418712067400
0.483000000000000318,-1.201191120686536440
0.484000000000000319,-1.212044797303942101
0.485000000000000320,-1.222879667186736574
0.486000000000000321,-1.233690050744891575
0.487000000000000322,-1.244470371568003664
0.488000000000000322,-1.255215157694057115
0.489000000000000323,-1.265919042758338886
0.490000000000000324,-1.276576767025828563
0.491000000000000325,-1.287183178310439713
0.492000000000000326,-1.297733232784455515
0.493000000000000327,-1.308221995681472460
0.494000000000000328,-1.318644641896092207
0.495000000000000329,-1.328996456483643840
0.496000000000000330,-1.339272835063062050
0.497000000000000330,-1.349469284126211699
0.498000000000000331,-1.359581421256596201
0.499000000000000332,-1.369604975260705348
0.500000000000000333,-1.379535786214948656
0.501000000000000334,-1.389369805431147631
0.502000000000000335,-1.399103095343596559
0.503000000000000336,-1.408731829320536200
0.504000000000000337,-1.418252291402931409
0.505000000000000338,-1.427660875973308263
0.506000000000000338,-1.436954087357445342
0.507000000000000339,-1.446128539361605458
0.508000000000000340,-1.455180954747929967
0.509000000000000341,-1.464108164650675503
0.510000000000000342,-1.472907107935730986
0.511000000000000343,-1.481574830506023233
0.512000000000000344,-1.490108484555162427
0.513000000000000345,-1.498505327771769924
0.514000000000000346,-1.506762722496862494
0.515000000000000346,-1.514878134836480150
0.516000000000000347,-1.522849133731873250
0.517000000000000348,-1.530673389989445132
0.518000000000000349,-1.538348675272498411
0.519000000000000350,-1.545872861056951209
0.520000000000000351,-1.553243917552997067
0.521000000000000352,-1.560459912594730936
0.522000000000000353,-1.567519010499609067
0.523000000000000353,-1.574419470899671936
0.524000000000000354,-1.581159647546344971
0.525000000000000355,-1.587737987090567016
0.526000000000000356,-1.594153027839990688
0.527000000000000357,-1.600403398494948393
0.528000000000000358,-1.606487816864795137
0.529000000000000359,-1.612405088566209344
0.530000000000000360,-1.618154105704993739
0.531000000000000361,-1.623733845542870258
0.532000000000000361,-1.629143369150709120
0.533000000000000362,-1.634381820049590983
0.534000000000000363,-1.639448422841036646
0.535000000000000364,-1.644342481827774094
0.536000000000000365,-1.649063379626223291
0.537000000000000366,-1.653610575772014757
0.538000000000000367,-1.657983605319628184
0.539000000000000368,-1.662182077437423855
0.540000000000000369,-1.666205673999011649
0.541000000000000369,-1.670054148172176456
0.542000000000000370,-1.673727323006251266
0.543000000000000371,-1.677225090019025533
0.544000000000000372,-1.680547407784081404
0.545000000000000373,-1.683694300519493536
0.546000000000000374,-1.686665856678763786
0.547000000000000375,-1.689462227544822115
0.548000000000000376,-1.692083625827943916
0.549000000000000377,-1.694530324268299637
0.550000000000000377,-1.696802654243933617
0.551000000000000378,-1.698901004384834490
0.552000000000000379,-1.700825819193833244
0.553000000000000380,-1.702577597674920895
0.554000000000000381,-1.704156891969625942
0.555000000000000382,-1.705564306002095964
0.556000000000000383,-1.706800494133320800
0.557000000000000384,-1.707866159825185859
0.558000000000000385,-1.708762054314724166
0.559000000000000385,-1.709488975299152003
0.560000000000000386,-1.710047765632083827
0.561000000000000387,-1.710439312031392323
0.562000000000000388,-1.710664543799077508
0.563000000000000389,-1.710724431553610980
0.564000000000000390,-1.710619985975009971
0.565000000000000391,-1.710352256563071105
0.566000000000000392,-1.709922330409028080
0.567000000000000393,-1.709331330980973451
0.568000000000000393,-1.708580416923256795
0.569000000000000394,-1.707670780870193639
0.570000000000000395,-1.706603648274278795
0.571000000000000396,-1.705380276249099936
0.572000000000000397,-1.704001952427246280
0.573000000000000398,-1.702469993833276574
0.574000000000000399,-1.700785745772017687
0.575000000000000400,-1.698950580732278670
0.576000000000000401,-1.696965897306134563
0.577000000000000401,-1.694833119123951848
0.578000000000000402,-1.692553693805168180
0.579000000000000403,-1.690129091924980287
0.580000000000000404,-1.687560805997044611
0.581000000000000405,-1.684850349472161835
0.582000000000000406,-1.681999255753119815
0.583000000000000407,-1.679009077225605440
0.584000000000000408,-1.675881384305352828
0.585000000000000409,-1.672617764501423965
0.586000000000000409,-1.669219821495697476
0.587000000000000410,-1.665689174238573544
0.588000000000000411,-1.662027456060797492
0.589000000000000412,-1.658236313801516815
0.590000000000000413,-1.654317406952379610
0.591000000000000414,-1.650272406817765658
0.592000000000000415,-1.646102995691058890
0.593000000000000416,-1.641810866046848449
0.594000000000000417,-1.637397719749076774
0.595000000000000417,-1.632865267275050103
0.596000000000000418,-1.628215226955135098
0.597000000000000419,-1.623449324228230406
0.598000000000000420,-1.618569290912724723
0.599000000000000421,-1.613576864493024843
0.600000000000000422,-1.608473787421407453
0.601000000000000423,-1.603261806435162473
0.602000000000000424,-1.597942671888904265
0.603000000000000425,-1.592518137101923692
0.604000000000000425,-1.586989957720426281
0.605000000000000426,-1.581359891094580528
0.606000000000000427,-1.575629695670250907
0.607000000000000428,-1.569801130395146460
0.608000000000000429,-1.563875954139499092
0.609000000000000430,-1.557855925130817720
0.610000000000000431,-1.551742800402861278
0.611000000000000432,-1.545538335258472618
0.612000000000000433,-1.539244282746209391
0.613000000000000433,-1.532862393150646207
