# Tobermorite-004_CS-29107-AC
# h[nm],U(h)[kJ/mol]
0.149999999999999994,161.526738765431559841
0.150999999999999995,159.151228730127002109
0.151999999999999996,156.447063392447006436
0.152999999999999997,153.649299103451284054
0.153999999999999998,150.881625304056228742
0.154999999999999999,148.196280391213889516
0.156000000000000000,145.603616731337240253
0.157000000000000001,143.092606129331898046
0.158000000000000002,140.644094574957705390
0.159000000000000002,138.238633385488270733
0.160000000000000003,135.860494236267925316
0.161000000000000004,133.499168613420437168
0.162000000000000005,131.149339601842370939
0.163000000000000006,128.810035515871902589
0.164000000000000007,126.483446159628854844
0.165000000000000008,124.173705449834045567
0.166000000000000009,121.885813933450975810
0.167000000000000010,119.624783749589440163
0.168000000000000010,117.395028600261227325
0.169000000000000011,115.199984672268257668
0.170000000000000012,113.041928662468507127
0.171000000000000013,110.921950824516713396
0.172000000000000014,108.840040202070824193
0.173000000000000015,106.795242919760397626
0.174000000000000016,104.785860418084979528
0.175000000000000017,102.809661379745122645
0.176000000000000018,100.864087865070871430
0.177000000000000018,98.946442300963184380
0.178000000000000019,97.054047171537263239
0.179000000000000020,95.184373444644307938
0.180000000000000021,93.335136960141682039
0.181000000000000022,91.504364296351695884
0.182000000000000023,89.690431149102977315
0.183000000000000024,87.892077143599124156
0.184000000000000025,86.108401390627378191
0.185000000000000026,84.338843120894082972
0.186000000000000026,82.583151493580288616
0.187000000000000027,80.841348268321013393
0.188000000000000028,79.113686526452781322
0.189000000000000029,77.400608083597944642
0.190000000000000030,75.702701692832093272
0.191000000000000031,74.020663624749985843
0.192000000000000032,72.355261746454601735
0.193000000000000033,70.707303816531421603
0.194000000000000034,69.077610371956424729
0.195000000000000034,67.466992305586785506
0.196000000000000035,65.876233016198881387
0.197000000000000036,64.306074851685210092
0.198000000000000037,62.757209453509815944
0.199000000000000038,61.230271539826127025
0.200000000000000039,59.725835628700245650
0.201000000000000040,58.244415194869461061
0.202000000000000041,56.786463767141981407
0.203000000000000042,55.352377503305930873
0.204000000000000042,53.942498820391264758
0.205000000000000043,52.557120706189820680
0.206000000000000044,51.196491389672317496
0.207000000000000045,49.860819100619494293
0.208000000000000046,48.550276700275396990
0.209000000000000047,47.265006013558128473
0.210000000000000048,46.005121738203243353
0.211000000000000049,44.770714846449109814
0.212000000000000050,43.561855430095114627
0.213000000000000050,42.378594969841387297
0.214000000000000051,41.220968034809295943
0.215000000000000052,40.088993438268289538
0.216000000000000053,38.982674891183890509
0.217000000000000054,37.902001206655157262
0.218000000000000055,36.846946116076829014
0.219000000000000056,35.817467762408981002
0.220000000000000057,34.813507937728481068
0.221000000000000058,33.834991131737815806
0.222000000000000058,32.881823455532696698
0.223000000000000059,31.953891501094481953
0.224000000000000060,31.051061192026701008
0.225000000000000061,30.173176675326992324
0.226000000000000062,29.320059297754891503
0.227000000000000063,28.491506703867127470
0.228000000000000064,27.687292086250657519
0.229000000000000065,26.907163612054926460
0.230000000000000066,26.150844043750460344
0.231000000000000066,25.418030566220249256
0.232000000000000067,24.708394826907593256
0.233000000000000068,24.021583190849732148
0.234000000000000069,23.357217208059331881
0.235000000000000070,22.714894286889180108
0.236000000000000071,22.094188563735013275
0.237000000000000072,21.494651956684315053
0.238000000000000073,20.915815388488887550
0.239000000000000073,20.357190162498536523
0.240000000000000074,19.818269473907385247
0.241000000000000075,19.298530037801967296
0.242000000000000076,18.797433815017676295
0.243000000000000077,18.314429816670219964
0.244000000000000078,17.848955968390015414
0.245000000000000079,17.400441015710534032
0.246000000000000080,16.968306452707771825
0.247000000000000081,16.551968456819857067
0.248000000000000081,16.150839813759521491
0.249000000000000082,15.764331817535065738
0.250000000000000111,15.391856131786914474
0.251000000000000112,15.032826599901422782
0.252000000000000113,14.686660992654797298
0.253000000000000114,14.352782683449376577
0.254000000000000115,14.030622242508778541
0.255000000000000115,13.719618942685588792
0.256000000000000116,13.419222170787904247
0.257000000000000117,13.128892739539205436
0.258000000000000118,12.848104096440128075
0.259000000000000119,12.576343426891938293
0.260000000000000120,12.313112649964725875
0.261000000000000121,12.057929306145050319
0.262000000000000122,11.810327337273193393
0.263000000000000123,11.569857759679885945
0.264000000000000123,11.336089232254080272
0.265000000000000124,11.108608521819274273
0.266000000000000125,10.887020868765507231
0.267000000000000126,10.670950256381816601
0.268000000000000127,10.460039587759464297
0.269000000000000128,10.253950774495617537
0.270000000000000129,10.052364741721696362
0.271000000000000130,9.854981354214618960
0.272000000000000131,9.661519268527335669
0.273000000000000131,9.471715716200336033
0.274000000000000132,9.285326223192903683
0.275000000000000133,9.102124270705756359
0.276000000000000134,8.921900902559473323
0.277000000000000135,8.744464284249847452
0.278000000000000136,8.569639218725479068
0.279000000000000137,8.397266623828832266
0.280000000000000138,8.227202976213064289
0.281000000000000139,8.059319726396152461
0.282000000000000139,7.893502689445158538
0.283000000000000140,7.729651415599332331
0.284000000000000141,7.567678544944337560
0.285000000000000142,7.407509150043514623
0.286000000000000143,7.249080070218492544
0.287000000000000144,7.092339240952929558
0.288000000000000145,6.937245021670749523
0.289000000000000146,6.783765524917816592
0.290000000000000147,6.631877949752532864
0.291000000000000147,6.481567921930438736
0.292000000000000148,6.332828843249671102
0.293000000000000149,6.185661252210981509
0.294000000000000150,6.040072197937556453
0.295000000000000151,5.896074629097810771
0.296000000000000152,5.753686799379072347
0.297000000000000153,5.612931690872182244
0.298000000000000154,5.473836456547067186
0.299000000000000155,5.336431882827662676
0.300000000000000155,5.200751873111381762
0.301000000000000156,5.066832952924139377
0.302000000000000157,4.934713797256048196
0.303000000000000158,4.804434780486720236
0.304000000000000159,4.676037549180960262
0.305000000000000160,4.549564617917087439
0.306000000000000161,4.425058988199641163
0.307000000000000162,4.302563790406527033
0.308000000000000163,4.182121948627491648
0.309000000000000163,4.063775868165227401
0.310000000000000164,3.947567145393097832
0.311000000000000165,3.833536299593572672
0.312000000000000166,3.721722526338576920
0.313000000000000167,3.612163471917458679
0.314000000000000168,3.504895028268950163
0.315000000000000169,3.399951147830766907
0.316000000000000170,3.297363677683434524
0.317000000000000171,3.197162212333794162
0.318000000000000171,3.099373964457583508
0.319000000000000172,3.004023652899303620
0.320000000000000173,2.911133407211320634
0.321000000000000174,2.820722688001982004
0.322000000000000175,2.732808222354266015
0.323000000000000176,2.647403953572177393
0.324000000000000177,2.564521004510998292
0.325000000000000178,2.484167653749602689
0.326000000000000179,2.406349323867718049
0.327000000000000179,2.331068581098870940
0.328000000000000180,2.258325145639219045
0.329000000000000181,2.188115911904332744
0.330000000000000182,2.120434978040105278
0.331000000000000183,2.055273684008736446
0.332000000000000184,1.992620657588085153
0.333000000000000185,1.932461867640423936
0.334000000000000186,1.874780684025797672
0.335000000000000187,1.819557943555317525
0.336000000000000187,1.766772021400209169
0.337000000000000188,1.716398907394199425
0.338000000000000189,1.668412286688129242
0.339000000000000190,1.622783624238153255
0.340000000000000191,1.579482252631238648
0.341000000000000192,1.538475462773816860
0.342000000000000193,1.499728596992368379
0.343000000000000194,1.463205144116568546
0.344000000000000195,1.428866836138551921
0.345000000000000195,1.396673746063048727
0.346000000000000196,1.366584386585558253
0.347000000000000197,1.338555809256687379
0.348000000000000198,1.312543703811796636
0.349000000000000199,1.288502497365755728
0.350000000000000200,1.266385453192359511
0.351000000000000201,1.246144768827674110
0.352000000000000202,1.227731673255442413
0.353000000000000203,1.211096522950915411
0.354000000000000203,1.196188896577412120
0.355000000000000204,1.182957688147006081
0.356000000000000205,1.171351198473177924
0.357000000000000206,1.161317224759127464
0.358000000000000207,1.152803148181017479
0.359000000000000208,1.145756019339543741
0.360000000000000209,1.140122641467486542
0.361000000000000210,1.135849651294279283
0.362000000000000210,1.132883597481048055
0.363000000000000211,1.131171016551934416
0.364000000000000212,1.130658506258712892
0.365000000000000213,1.131292796326763161
0.366000000000000214,1.133020816540523779
0.367000000000000215,1.135789762136366843
0.368000000000000216,1.139547156479686629
0.369000000000000217,1.144240911011847661
0.370000000000000218,1.149819382460262940
0.371000000000000218,1.156231427312671700
0.372000000000000219,1.163426453563334961
0.373000000000000220,1.171354469745530036
0.374000000000000221,1.179966131270582474
0.375000000000000222,1.189212784099372922
0.376000000000000223,1.199046505777006999
0.377000000000000224,1.209420143866379860
0.378000000000000225,1.220287351820339428
0.379000000000000226,1.231602622336188002
0.380000000000000226,1.243321318239544837
0.381000000000000227,1.255399700948058417
0.382000000000000228,1.267794956567889653
0.383000000000000229,1.280465219678608380
0.384000000000000230,1.293369594864327343
0.385000000000000231,1.306468176050537000
0.386000000000000232,1.319722063708066440
0.387000000000000233,1.333093379986631799
0.388000000000000234,1.346545281841840414
0.389000000000000234,1.360041972220066508
0.390000000000000235,1.373548709366638310
0.391000000000000236,1.387031814322949419
0.392000000000000237,1.400458676678596914
0.393000000000000238,1.413797758644578906
0.394000000000000239,1.427018597513696641
0.395000000000000240,1.440091806573937649
0.396000000000000241,1.452989074540353531
0.397000000000000242,1.465683163570481451
0.398000000000000242,1.478147905927615025
0.399000000000000243,1.490358199355732882
0.400000000000000244,1.502290001228937077
0.401000000000000245,1.513920321537259195
0.402000000000000246,1.525227214770022766
0.403000000000000247,1.536189770756549944
0.404000000000000248,1.546788104523040275
0.405000000000000249,1.557003345223249680
0.406000000000000250,1.566817624199350778
0.407000000000000250,1.576214062228012081
0.408000000000000251,1.585176756005509224
0.409000000000000252,1.593690763924203724
0.410000000000000253,1.601742091191449946
0.411000000000000254,1.609317674340472903
0.412000000000000255,1.616405365181439624
0.413000000000000256,1.622993914239328372
0.414000000000000257,1.629072953724031381
0.415000000000000258,1.634632980076267561
0.416000000000000258,1.639665336131863382
0.417000000000000259,1.644162192945089584
0.418000000000000260,1.648116531310603206
0.419000000000000261,1.651522123021869515
0.420000000000000262,1.654373511902667016
0.421000000000000263,1.656665994646677076
0.422000000000000264,1.658395601498951377
0.423000000000000265,1.659559076811514045
0.424000000000000266,1.660153859503915807
0.425000000000000266,1.660178063458479958
0.426000000000000267,1.659630457878295218
0.427000000000000268,1.658510447634988338
0.428000000000000269,1.656818053631843757
0.429000000000000270,1.654553893206647031
0.430000000000000271,1.651719160597432179
0.431000000000000272,1.648315607492988333
0.432000000000000273,1.644345523688973909
0.433000000000000274,1.639811717869161356
0.434000000000000274,1.634717498530340318
0.435000000000000275,1.629066655068294622
0.436000000000000276,1.622863439041135836
0.437000000000000277,1.616112545625380648
0.438000000000000278,1.608819095279013123
0.439000000000000279,1.600988615624922673
0.440000000000000280,1.592627023567090516
0.441000000000000281,1.583740607651095367
0.442000000000000282,1.574336010679424414
0.443000000000000282,1.564420212591546067
0.444000000000000283,1.554000513617524115
0.445000000000000284,1.543084517713458670
0.446000000000000285,1.531680116286173288
0.447000000000000286,1.519795472213690823
0.448000000000000287,1.507439004167676178
0.449000000000000288,1.494619371242973838
0.450000000000000289,1.481345457899012397
0.451000000000000290,1.467626359217071075
0.452000000000000290,1.453471366476837057
0.453000000000000291,1.438889953055191517
0.454000000000000292,1.423891760649486082
0.455000000000000293,1.408486585827194659
0.456000000000000294,1.392684366903225834
0.457000000000000295,1.376495171145768248
0.458000000000000296,1.359929182311078399
0.459000000000000297,1.342996688507211100
0.460000000000000298,1.325708070386240500
0.461000000000000298,1.308073789664234265
0.462000000000000299,1.290104377967756122
0.463000000000000300,1.271810426005483441
0.464000000000000301,1.253202573063034730
0.465000000000000302,1.234291496818974876
0.466000000000000303,1.215087903479533438
0.467000000000000304,1.195602518229410549
0.468000000000000305,1.175846075995735207
0.469000000000000306,1.155829312522035579
0.470000000000000306,1.135562955748856906
0.471000000000000307,1.115057717497475398
0.472000000000000308,1.094324285452937584
0.473000000000000309,1.073373315442510245
0.474000000000000310,1.052215424005500610
0.475000000000000311,1.030861181250129155
0.476000000000000312,1.009321103993227720
0.477000000000000313,0.987605649178152412
0.478000000000000314,0.965725207566456412
0.479000000000000314,0.943690097698515196
0.480000000000000315,0.921510560118454114
0.481000000000000316,0.899196751858436394
0.482000000000000317,0.876758741177474432
0.483000000000000318,0.854206502549743285
0.484000000000000319,0.831549911897428329
0.485000000000000320,0.808798742063010834
0.486000000000000321,0.785962658515927282
0.487000000000000322,0.763051215288473750
0.488000000000000322,0.740073851135884087
0.489000000000000323,0.717039885915354391
0.490000000000000324,0.693958517178949408
0.491000000000000325,0.670838816975219632
0.492000000000000326,0.647689728854422775
0.493000000000000327,0.624520065072212471
0.494000000000000328,0.601338503986721395
0.495000000000000329,0.578153587643961075
0.496000000000000330,0.554973719546519417
0.497000000000000330,0.531807162600494765
0.498000000000000331,0.508662037235797726
0.499000000000000332,0.485546319694804773
0.500000000000000333,0.462467840484509174
0.501000000000000334,0.439434282987392177
0.502000000000000335,0.416453182226142915
0.503000000000000336,0.393531923777584780
0.504000000000000337,0.370677742831093282
0.505000000000000338,0.347897723386915936
0.506000000000000338,0.325198797589841715
0.507000000000000339,0.302587745193729218
0.508000000000000340,0.280071193152519660
0.509000000000000341,0.257655615333304500
0.510000000000000342,0.235347332347264182
0.511000000000000343,0.213152511494176355
0.512000000000000344,0.191077166816423422
0.513000000000000345,0.169127159258418647
0.514000000000000346,0.147308196927380092
0.515000000000000346,0.125625835451674328
0.516000000000000347,0.104085478432772854
0.517000000000000348,0.082692377987063664
0.518000000000000349,0.061451635373889646
0.519000000000000350,0.040368201706120196
0.520000000000000351,0.019446878739762807
0.521000000000000352,-0.001307680260900157
0.522000000000000353,-0.021890969585953091
0.523000000000000353,-0.042298630073712082
0.524000000000000354,-0.062526448038905905
0.525000000000000355,-0.082570354138477242
0.526000000000000356,-0.102426422177950754
0.527000000000000357,-0.122090867861512908
0.528000000000000358,-0.141560047488662799
0.529000000000000359,-0.160830456600305816
0.530000000000000360,-0.179898728577101763
0.531000000000000361,-0.198761633192786002
0.532000000000000361,-0.217416075125094810
0.533000000000000362,-0.235859092426879163
0.534000000000000363,-0.254087854959904935
0.535000000000000364,-0.272099662793798491
0.536000000000000365,-0.289891944572458704
0.537000000000000366,-0.307462255850290578
0.538000000000000367,-0.324808277400415624
0.539000000000000368,-0.341927813497132749
0.540000000000000369,-0.358818790174599500
0.541000000000000369,-0.375479253463892604
0.542000000000000370,-0.391907367610311197
0.543000000000000371,-0.408101413272916602
0.544000000000000372,-0.424059785708111314
0.545000000000000373,-0.439780992939051374
0.546000000000000374,-0.455263653912642341
0.547000000000000375,-0.470506496645743344
0.548000000000000376,-0.485508356362260085
0.549000000000000377,-0.500268173622610668
0.550000000000000377,-0.514784992447133716
0.551000000000000378,-0.529057958434826059
0.552000000000000379,-0.543086316878861219
0.553000000000000380,-0.556869410880193483
0.554000000000000381,-0.570406679460545574
0.555000000000000382,-0.583697655676068905
0.556000000000000383,-0.596741964732783736
0.557000000000000384,-0.609539322105056014
0.558000000000000385,-0.622089531658100103
0.559000000000000385,-0.634392483775664928
0.560000000000000386,-0.646448153493845212
0.561000000000000387,-0.658256598642022572
0.562000000000000388,-0.669817957991834856
0.563000000000000389,-0.681132449415115859
0.564000000000000390,-0.692200368051562154
0.565000000000000391,-0.703022084487029186
0.566000000000000392,-0.713598042943139332
0.567000000000000393,-0.723928759479021133
0.568000000000000393,-0.734014820205771246
0.569000000000000394,-0.743856879514402825
0.570000000000000395,-0.753455658317843002
0.571000000000000396,-0.762811942307560331
0.572000000000000397,-0.771926580225469339
0.573000000000000398,-0.780800482151519981
0.574000000000000399,-0.789434617807576400
0.575000000000000400,-0.797830014877985327
0.576000000000000401,-0.805987757347292444
0.577000000000000401,-0.813908983855557544
0.578000000000000402,-0.821594886071590147
0.579000000000000403,-0.829046707084482692
0.580000000000000404,-0.836265739813834452
0.581000000000000405,-0.843253325438870660
0.582000000000000406,-0.850010851846836113
0.583000000000000407,-0.856539752100856311
0.584000000000000408,-0.862841502927559345
0.585000000000000409,-0.868917623224631397
0.586000000000000409,-0.874769672588517677
0.587000000000000410,-0.880399249862485744
0.588000000000000411,-0.885807991705110043
0.589000000000000412,-0.890997571179447001
0.590000000000000413,-0.895969696362889700
0.591000000000000414,-0.900726108977899620
0.592000000000000415,-0.905268583043665087
0.593000000000000416,-0.909598923548741389
0.594000000000000417,-0.913718965144746820
0.595000000000000417,-0.917630570861180161
0.596000000000000418,-0.921335630841286446
0.597000000000000419,-0.924836061099127305
0.598000000000000420,-0.928133802297698596
0.599000000000000421,-0.931230818548205996
0.600000000000000422,-0.934129096230397193
0.601000000000000423,-0.936830642833917482
0.602000000000000424,-0.939337485820672002
0.603000000000000425,-0.941651671508122456
0.604000000000000425,-0.943775263973386958
0.605000000000000426,-0.945710343978150902
0.606000000000000427,-0.947459007914262963
0.607000000000000428,-0.949023366769832122
0.608000000000000429,-0.950405545115914352
0.609000000000000430,-0.951607680113408683
0.610000000000000431,-0.952631920540300436
0.611000000000000432,-0.953480425838915346
0.612000000000000433,-0.954155365183143367
0.613000000000000433,-0.954658916565497728
0.614000000000000434,-0.954993265903796074
0.615000000000000435,-0.955160606167329007
0.616000000000000436,-0.955163136522374279
0.617000000000000437,-0.955003061496886074
0.618000000000000438,-0.954682590164141920
