# Tobermorite-004_CS-66579-AC
# h[nm],U(h)[kJ/mol]
0.149999999999999994,141.991250175554483803
0.150999999999999995,139.363254778948203239
0.151999999999999996,136.833704155300068805
0.152999999999999997,134.328269049633206578
0.153999999999999998,131.842572740912629570
0.154999999999999999,129.392352044593110350
0.156000000000000000,126.992388620647631114
0.157000000000000001,124.650036352010602059
0.158000000000000002,122.365350902142537848
0.159000000000000002,120.133557916637613516
0.160000000000000003,117.947777998236546182
0.161000000000000004,115.801148212168385498
0.162000000000000005,113.688121031982632303
0.163000000000000006,111.605023259560809379
0.164000000000000007,109.550069543243850489
0.165000000000000008,107.523038737914589547
0.166000000000000009,105.524789951712662628
0.167000000000000010,103.556748605872556368
0.168000000000000010,101.620446708199082764
0.169000000000000011,99.717162813866565330
0.170000000000000012,97.847678033381328078
0.171000000000000013,96.012144653617923495
0.172000000000000014,94.210052028517225153
0.173000000000000015,92.440268572372929157
0.174000000000000016,90.701137202181797647
0.175000000000000017,88.990602922218585036
0.176000000000000018,87.306354230360312840
0.177000000000000018,85.645963765660809486
0.178000000000000019,84.007017494546317948
0.179000000000000020,82.387225353527654192
0.180000000000000021,80.784509403871396671
0.181000000000000022,79.197068106186264913
0.182000000000000023,77.623417273375451941
0.183000000000000024,76.062409646337869162
0.184000000000000025,74.513235926920998509
0.185000000000000026,72.975410580213136313
0.186000000000000026,71.448745869587526158
0.187000000000000027,69.933317494809742243
0.188000000000000028,68.429424939030951691
0.189000000000000029,66.937549256713296586
0.190000000000000030,65.458310602042615756
0.191000000000000031,63.992427345626502699
0.192000000000000032,62.540678185601414896
0.193000000000000033,61.103868248245099437
0.194000000000000034,59.682799806065588655
0.195000000000000034,58.278247925444667032
0.196000000000000035,56.890941094023148139
0.197000000000000036,55.521546669471490532
0.198000000000000037,54.170660833032911796
0.199000000000000038,52.838802618614337803
0.200000000000000039,51.526411515668748109
0.201000000000000040,50.233848105690491082
0.202000000000000041,48.961397181846052717
0.203000000000000042,47.709272813354722587
0.204000000000000042,46.477624845423434863
0.205000000000000043,45.266546367100360726
0.206000000000000044,44.076081729214322991
0.207000000000000045,42.906234749127250439
0.208000000000000046,41.756976795457852347
0.209000000000000047,40.628254501936332588
0.210000000000000048,39.519996913335873501
0.211000000000000049,38.432121916685169083
0.212000000000000050,37.364541856778480167
0.213000000000000050,36.317168275799829757
0.214000000000000051,35.289915752372323254
0.215000000000000052,34.282704845475080901
0.216000000000000053,33.295464173556283072
0.217000000000000054,32.328131679064952664
0.218000000000000055,31.380655143877930868
0.219000000000000056,30.452992032130065780
0.220000000000000057,29.545108744214523711
0.221000000000000058,28.656979369687878290
0.222000000000000058,27.788584027949934097
0.223000000000000059,26.939906884340224735
0.224000000000000060,26.110933926126371318
0.225000000000000061,25.301650578160948868
0.226000000000000062,24.512039232118546295
0.227000000000000063,23.742076756521676373
0.228000000000000064,22.991732047514872761
0.229000000000000065,22.260963672797519308
0.230000000000000066,21.549717653497161507
0.231000000000000066,20.857925421227921703
0.232000000000000067,20.185501980283493850
0.233000000000000068,19.532344297972677793
0.234000000000000069,18.898329939606867356
0.235000000000000070,18.283315958656402245
0.236000000000000071,17.687138047149691289
0.237000000000000072,17.109609946517810641
0.238000000000000073,16.550523114799464253
0.239000000000000073,16.009646642412132422
0.240000000000000074,15.486727405547455305
0.241000000000000075,14.981490443645535393
0.242000000000000076,14.493639545309116912
0.243000000000000077,14.022858025403390769
0.244000000000000078,13.568809674912690966
0.245000000000000079,13.131139864351728974
0.246000000000000080,12.709476781117096778
0.247000000000000081,12.303432781071913737
0.248000000000000081,11.912605834845908959
0.249000000000000082,11.536581049764459195
0.250000000000000111,11.174932248956457315
0.251000000000000112,10.827223589999125153
0.252000000000000113,10.493011206403307867
0.253000000000000114,10.171844856298886128
0.254000000000000115,9.863269563815014962
0.255000000000000115,9.566827239843803454
0.256000000000000116,9.282058270102997000
0.257000000000000117,9.008503059655676992
0.258000000000000118,8.745703524285783459
0.259000000000000119,8.493204520351152809
0.260000000000000120,8.250555205929492431
0.261000000000000121,8.017310327226661926
0.262000000000000122,7.793031425321037986
0.263000000000000123,7.577287959367201786
0.264000000000000123,7.369658343369692943
0.265000000000000124,7.169730894561138435
0.266000000000000125,6.977104692274009423
0.267000000000000126,6.791390346981884818
0.268000000000000127,6.612210679902334576
0.269000000000000128,6.439201314201204340
0.270000000000000129,6.272011179416918658
0.271000000000000130,6.110302931235727542
0.272000000000000131,5.953753289197142529
0.273000000000000131,5.802053295294828494
0.274000000000000132,5.654908496765864712
0.275000000000000133,5.512039056632856315
0.276000000000000134,5.373179795782982993
0.277000000000000135,5.238080170538962577
0.278000000000000136,5.106504189802154592
0.279000000000000137,4.978230275932128635
0.280000000000000138,4.853051073572839158
0.281000000000000139,4.730773210646711746
0.282000000000000139,4.611217015718212409
0.283000000000000140,4.494216195880532894
0.284000000000000141,4.379617479246975087
0.285000000000000142,4.267280226034237955
0.286000000000000143,4.157076012112327135
0.287000000000000144,4.048888188767112872
0.288000000000000145,3.942611422278923694
0.289000000000000146,3.838151216767896390
0.290000000000000147,3.735423423593952741
0.291000000000000147,3.634353740430796620
0.292000000000000148,3.534877202958841558
0.293000000000000149,3.436937671945024420
0.294000000000000150,3.340487318298288155
0.295000000000000151,3.245486108510047707
0.296000000000000152,3.151901292710678870
0.297000000000000153,3.059706897396354375
0.298000000000000154,2.968883224707158597
0.299000000000000155,2.879416359967646777
0.300000000000000155,2.791297689035713070
0.301000000000000156,2.704523426845858225
0.302000000000000157,2.619094158378159065
0.303000000000000158,2.535014393136390876
0.304000000000000159,2.452292134076443197
0.305000000000000160,2.370938461791406660
0.306000000000000161,2.290967134631063828
0.307000000000000162,2.212394205312286033
0.308000000000000163,2.135237654462680101
0.309000000000000163,2.059517041432436191
0.310000000000000164,1.985253172609242167
0.311000000000000165,1.912467787377886363
0.312000000000000166,1.841183261779749669
0.313000000000000167,1.771422329847669896
0.314000000000000168,1.703207822518601144
0.315000000000000169,1.636562423959478707
0.316000000000000170,1.571508445081083449
0.317000000000000171,1.508067613959842790
0.318000000000000171,1.446260882838402040
0.319000000000000172,1.386108251331840790
0.320000000000000173,1.327628605428001540
0.321000000000000174,1.270839571836615001
0.322000000000000175,1.215757387212706764
0.323000000000000176,1.162396781755164366
0.324000000000000177,1.110770876660698070
0.325000000000000178,1.060891094896687425
0.326000000000000179,1.012767084743062096
0.327000000000000179,0.966406655543853965
0.328000000000000180,0.921815725102086203
0.329000000000000181,0.878998278147822609
0.330000000000000182,0.837956335308254752
0.331000000000000183,0.798689932009505887
0.332000000000000184,0.761197106743630725
0.333000000000000185,0.725473898139499473
0.334000000000000186,0.691514350283522816
0.335000000000000187,0.659310525745124942
0.336000000000000187,0.628852525772005122
0.337000000000000188,0.600128517132110573
0.338000000000000189,0.573124765091630239
0.339000000000000190,0.547825672032229205
0.340000000000000191,0.524213821225372967
0.341000000000000192,0.502270025296464917
0.342000000000000193,0.481973378927875729
0.343000000000000194,0.463301315365681865
0.344000000000000195,0.446229666312274564
0.345000000000000195,0.430732724803212785
0.346000000000000196,0.416783310684482988
0.347000000000000197,0.404352838323158714
0.348000000000000198,0.393411386201837465
0.349000000000000199,0.383927768064519614
0.350000000000000200,0.375869605298475740
0.351000000000000201,0.369203400253865499
0.352000000000000202,0.363894610219389236
0.353000000000000203,0.359907721788768953
0.354000000000000203,0.357206325369035016
0.355000000000000204,0.355753189597453112
0.356000000000000205,0.355510335449275516
0.357000000000000206,0.356439109833569190
0.358000000000000207,0.358500258489214907
0.359000000000000208,0.361653998007059274
0.360000000000000209,0.365860086818134866
0.361000000000000210,0.371077895001187763
0.362000000000000210,0.377266472775382278
0.363000000000000211,0.384384617556538966
0.364000000000000212,0.392390939466950472
0.365000000000000213,0.401243925200308271
0.366000000000000214,0.410902000153972935
0.367000000000000215,0.421323588751327804
0.368000000000000216,0.432467172886619622
0.369000000000000217,0.444291348434361688
0.370000000000000218,0.456754879773981437
0.371000000000000218,0.469816752289126338
0.372000000000000219,0.483436222808763472
0.373000000000000220,0.497572867964930776
0.374000000000000221,0.512186630448962399
0.375000000000000222,0.527237863154828679
0.376000000000000223,0.542687371204211400
0.377000000000000224,0.558496451854044285
0.378000000000000225,0.574626932292510828
0.379000000000000226,0.591041205334636444
0.380000000000000226,0.607702263033168322
0.381000000000000227,0.624573728225015001
0.382000000000000228,0.641619884037207711
0.383000000000000229,0.658805701380201336
0.384000000000000230,0.676096864459691971
0.385000000000000231,0.693459794340941516
0.386000000000000232,0.710861670602665141
0.387000000000000233,0.728270451119728102
0.388000000000000234,0.745654890016352434
0.389000000000000234,0.762984553833224055
0.390000000000000235,0.780229835953927031
0.391000000000000236,0.797361969337299192
0.392000000000000237,0.814353037603894991
0.393000000000000238,0.831175984525532763
0.394000000000000239,0.847804621968049288
0.395000000000000240,0.864213636337890612
0.396000000000000241,0.880378593583816760
0.397000000000000242,0.896275942805377590
0.398000000000000242,0.911883018519961341
0.399000000000000243,0.927178041640421169
0.400000000000000244,0.942140119215242544
0.401000000000000245,0.956749242982849801
0.402000000000000246,0.970986286791765907
0.403000000000000247,0.984833002937616442
0.404000000000000248,0.998272017467665362
0.405000000000000249,1.011286824503009996
0.406000000000000250,1.023861779627935675
0.407000000000000250,1.035982092395142606
0.408000000000000251,1.047633817994924277
0.409000000000000252,1.058803848135403625
0.410000000000000253,1.069479901180174108
0.411000000000000254,1.079650511588648554
0.412000000000000255,1.089305018703571992
0.413000000000000256,1.098433554928961442
0.414000000000000257,1.107027033340950650
0.415000000000000258,1.115077134772620715
0.416000000000000258,1.122576294413148990
0.417000000000000259,1.129517687960191585
0.418000000000000260,1.135895217363497967
0.419000000000000261,1.141703496196492917
0.420000000000000262,1.146937834691488023
0.421000000000000263,1.151594224472929140
0.422000000000000264,1.155669323022088246
0.423000000000000265,1.159160437905303764
0.424000000000000266,1.162065510796724599
0.425000000000000266,1.164383101325536796
0.426000000000000267,1.166112370776269724
0.427000000000000268,1.167253065669827228
0.428000000000000269,1.167805501251698352
0.429000000000000270,1.167770544912667185
0.430000000000000271,1.167149599566345231
0.431000000000000272,1.165944587006637390
0.432000000000000273,1.164157931267344681
0.433000000000000274,1.161792542004915330
0.434000000000000274,1.158851797924444149
0.435000000000000275,1.155339530267986969
0.436000000000000276,1.151260006383225676
0.437000000000000277,1.146617913389652799
0.438000000000000278,1.141418341958414739
0.439000000000000279,1.135666770221101185
0.440000000000000280,1.129369047821835004
0.441000000000000281,1.122531380126229994
0.442000000000000282,1.115160312599741577
0.443000000000000282,1.107262715367446360
0.444000000000000283,1.098845767966098119
0.445000000000000284,1.089916944298856993
0.446000000000000285,1.080483997802215823
0.447000000000000286,1.070554946833806698
0.448000000000000287,1.060138060289344875
0.449000000000000288,1.049241843456000023
0.450000000000000289,1.037875024109041977
0.451000000000000290,1.026046538857875667
0.452000000000000290,1.013765519746981258
0.453000000000000291,1.001041281116747728
0.454000000000000292,0.987883306728553401
0.455000000000000293,0.974301237157957578
0.456000000000000294,0.960304857459347572
0.457000000000000295,0.945904085104853465
0.458000000000000296,0.931108958199919123
0.459000000000000297,0.915929623977440599
0.460000000000000298,0.900376327571905888
0.461000000000000298,0.884459401074691010
0.462000000000000299,0.868189252871071182
0.463000000000000300,0.851576357259344441
0.464000000000000301,0.834631244351934365
0.465000000000000302,0.817364490258129850
0.466000000000000303,0.799786707547691988
0.467000000000000304,0.781908535994353171
0.468000000000000305,0.763740633597859930
0.469000000000000306,0.745293667883015987
0.470000000000000306,0.726578307473843998
0.471000000000000307,0.707605213940856848
0.472000000000000308,0.688385033919063138
0.473000000000000309,0.668928391494249430
0.474000000000000310,0.649245880854831370
0.475000000000000311,0.629348059206317756
0.476000000000000312,0.609245439945430456
0.477000000000000313,0.588948486090539403
0.478000000000000314,0.568467603965158386
0.479000000000000314,0.547813137130893746
0.480000000000000315,0.526995360566309357
0.481000000000000316,0.506024475087890946
0.482000000000000317,0.484910602009324010
0.483000000000000318,0.463663778035109164
0.484000000000000319,0.442293950384519463
0.485000000000000320,0.420810972141784756
0.486000000000000321,0.399224597828348793
0.487000000000000322,0.377544479192977289
0.488000000000000322,0.355780161215465573
0.489000000000000323,0.333941078319600348
0.490000000000000324,0.312036550791052747
0.491000000000000325,0.290075781395819188
0.492000000000000326,0.268067852194824430
0.493000000000000327,0.246021721550257144
0.494000000000000328,0.223946221319233946
0.495000000000000329,0.201850054230347353
0.496000000000000330,0.179741791438715742
0.497000000000000330,0.157629870255036775
0.498000000000000331,0.135522592044351520
0.499000000000000332,0.113428120290043039
0.500000000000000333,0.091354478818710311
0.501000000000000334,0.069309550181628807
0.502000000000000335,0.047301074188410119
0.503000000000000336,0.025336646588637678
0.504000000000000337,0.003423717897162692
0.505000000000000338,-0.018430407641074353
0.506000000000000338,-0.040218572950942333
0.507000000000000339,-0.061933768895826267
0.508000000000000340,-0.083569134919211224
0.509000000000000341,-0.105117959563236510
0.510000000000000342,-0.126573680868120958
0.511000000000000343,-0.147929886656477383
0.512000000000000344,-0.169180314706316171
0.513000000000000345,-0.190318852816598050
0.514000000000000346,-0.211339538769125868
0.515000000000000346,-0.232236560190410390
0.516000000000000347,-0.253004254317203692
0.517000000000000348,-0.273637107669298996
0.518000000000000349,-0.294129755633069312
0.519000000000000350,-0.314476981959240898
0.520000000000000351,-0.334673718178288893
0.521000000000000352,-0.354715042936801672
0.522000000000000353,-0.374596181258035288
0.523000000000000353,-0.394312503729933761
0.524000000000000354,-0.413859525623682223
0.525000000000000355,-0.433232905945935276
0.526000000000000356,-0.452428446427644126
0.527000000000000357,-0.471442090452507068
0.528000000000000358,-0.490269921927892205
0.529000000000000359,-0.508908164101004701
0.530000000000000360,-0.527353178323092253
0.531000000000000361,-0.545601462764365608
0.532000000000000361,-0.563649651082228087
0.533000000000000362,-0.581494511045382745
0.534000000000000363,-0.599132943116293726
0.535000000000000364,-0.616561978994456639
0.536000000000000365,-0.633778780122787433
0.537000000000000366,-0.650780636159496995
0.538000000000000367,-0.667564963417607293
0.539000000000000368,-0.684129303274385481
0.540000000000000369,-0.700471320552715437
0.541000000000000369,-0.716588801876538950
0.542000000000000370,-0.732479654002305303
0.543000000000000371,-0.748141902128412584
0.544000000000000372,-0.763573688184509436
0.545000000000000373,-0.778773269102458476
0.546000000000000374,-0.793739015070779930
0.547000000000000375,-0.808469407774223159
0.548000000000000376,-0.822963038620203591
0.549000000000000377,-0.837218606953630817
0.550000000000000377,-0.851234918261763118
0.551000000000000378,-0.865010882370502054
0.552000000000000379,-0.878545511633667453
0.553000000000000380,-0.891837919116591493
0.554000000000000381,-0.904887316775393580
0.555000000000000382,-0.917693013633295918
0.556000000000000383,-0.930254413955134751
0.557000000000000384,-0.942571015421396985
0.558000000000000385,-0.954642407302840112
0.559000000000000385,-0.966468268636903938
0.560000000000000386,-0.978048366406933822
0.561000000000000387,-0.989382553725286384
0.562000000000000388,-1.000470768021281653
0.563000000000000389,-1.011313029235006322
0.564000000000000390,-1.021909438017812644
0.565000000000000391,-1.032260173940454218
0.566000000000000392,-1.042365493709645818
0.567000000000000393,-1.052225729393903686
0.568000000000000393,-1.061841286659350070
0.569000000000000394,-1.071212643016300925
0.570000000000000395,-1.080340346077277802
0.571000000000000396,-1.089225011827095191
0.572000000000000397,-1.097867322905721199
0.573000000000000398,-1.106268026904413393
0.574000000000000399,-1.114427934675789045
0.575000000000000400,-1.122347918658290755
0.576000000000000401,-1.130028911215596343
0.577000000000000401,-1.137471902991455508
0.578000000000000402,-1.144677941280380473
0.579000000000000403,-1.151648128414604066
0.580000000000000404,-1.158383620167772188
0.581000000000000405,-1.164885624175641787
0.582000000000000406,-1.171155398374227996
0.583000000000000407,-1.177194249455649988
0.584000000000000408,-1.183003531342034176
0.585000000000000409,-1.188584643677704111
0.586000000000000409,-1.193939030339945306
0.587000000000000410,-1.199068177968592774
0.588000000000000411,-1.203973614514585844
0.589000000000000412,-1.208656907807799552
0.590000000000000413,-1.213119664144207244
0.591000000000000414,-1.217363526892620396
0.592000000000000415,-1.221390175121118471
0.593000000000000416,-1.225201322243266056
0.594000000000000417,-1.228798714684260052
0.595000000000000417,-1.232184130567096414
0.596000000000000418,-1.235359378418775966
0.597000000000000419,-1.238326295896707174
0.598000000000000420,-1.241086748535237039
0.599000000000000421,-1.243642628512446446
0.600000000000000422,-1.245995853437158907
0.601000000000000423,-1.248148365156178441
0.602000000000000424,-1.250102128581786598
0.603000000000000425,-1.251859130539457965
0.604000000000000425,-1.253421378635723116
0.605000000000000426,-1.254790900146208976
0.606000000000000427,-1.255969740923790656
0.607000000000000428,-1.256959964326691992
0.608000000000000429,-1.257763650166676683
0.609000000000000430,-1.258382893676980530
0.610000000000000431,-1.258819804500152406
0.611000000000000432,-1.259076505695521542
0.612000000000000433,-1.259155132766270224
0.613000000000000433,-1.259057832706005353
0.614000000000000434,-1.258786763064670300
0.615000000000000435,-1.258344091033679835
0.616000000000000436,-1.257731992550161326
0.617000000000000437,-1.256952651420177869
0.618000000000000438,-1.256008258460731275
