# Tobermorite-004_CS-13835336-AC
# h[nm],U(h)[kJ/mol]
0.149999999999999994,125.355745642578767729
0.150999999999999995,123.402569797693985265
0.151999999999999996,121.204801042704914948
0.152999999999999997,118.938995660463859849
0.153999999999999998,116.706588456372145401
0.154999999999999999,114.553972431059534642
0.156000000000000000,112.491917946955794605
0.157000000000000001,110.511336296007087299
0.158000000000000002,108.594648414847739559
0.159000000000000002,106.723121870982325277
0.160000000000000003,104.880980717694001214
0.161000000000000004,103.057177606771801948
0.162000000000000005,101.245628309590969707
0.163000000000000006,99.444550968955667258
0.164000000000000007,97.655383380992958564
0.165000000000000008,95.881599682092925718
0.166000000000000009,94.127624303859946053
0.167000000000000010,92.397947899048034515
0.168000000000000010,90.696484354905322789
0.169000000000000011,89.026165252842446307
0.170000000000000012,87.388743041805099665
0.171000000000000013,85.784761986530241984
0.172000000000000014,84.213652586176237946
0.173000000000000015,82.673907421136533458
0.174000000000000016,81.163301855272180774
0.175000000000000017,79.679129962818763033
0.176000000000000018,78.218433288765382372
0.177000000000000018,76.778206847818722736
0.178000000000000019,75.355572702137777696
0.179000000000000020,73.947916343234140868
0.180000000000000021,72.552984905065571297
0.181000000000000022,71.168949017478254859
0.182000000000000023,69.794431991473928178
0.183000000000000024,68.428511155678904743
0.184000000000000025,67.070696687670064762
0.185000000000000026,65.720893347753900571
0.186000000000000026,64.379350254656316110
0.187000000000000027,63.046603351963582895
0.188000000000000028,61.723414590961588999
0.189000000000000029,60.410711170676492543
0.190000000000000030,59.109527483061334863
0.191000000000000031,57.820951748988065333
0.192000000000000032,56.546078724959627948
0.193000000000000033,55.285969326967503434
0.194000000000000034,54.041617564388602091
0.195000000000000034,52.813924804853833450
0.196000000000000035,51.603681097878066453
0.197000000000000036,50.411553064956763137
0.198000000000000037,49.238077709195913201
0.199000000000000038,48.083661399747924747
0.200000000000000039,46.948583236467598567
0.201000000000000040,45.833001989542196952
0.202000000000000041,44.736965829166955189
0.203000000000000042,43.660424104146002833
0.204000000000000042,42.603240488963585619
0.205000000000000043,41.565206890675156615
0.206000000000000044,40.546057585090807152
0.207000000000000045,39.545483132225307088
0.208000000000000046,38.563143700723372831
0.209000000000000047,37.598681507522464074
0.210000000000000048,36.651732150609205974
0.211000000000000049,35.721934678133322905
0.212000000000000050,34.808940295597167847
0.213000000000000050,33.912419663960150729
0.214000000000000051,33.032068785204415917
0.215000000000000052,32.167613508366109443
0.216000000000000053,31.318812718587558663
0.217000000000000054,30.485460294861649544
0.218000000000000055,29.667385939379890658
0.219000000000000056,28.864454993372312686
0.220000000000000057,28.076567361668715250
0.221000000000000058,27.303655671557102380
0.222000000000000058,26.545682791471296724
0.223000000000000059,25.802638832198489638
0.224000000000000060,25.074537748195261599
0.225000000000000061,24.361413649737588827
0.226000000000000062,23.663316928452417187
0.227000000000000063,22.980310289682059022
0.228000000000000064,22.312464775463162425
0.229000000000000065,21.659855851954304740
0.230000000000000066,21.022559625172295483
0.231000000000000066,20.400649239100566490
0.232000000000000067,19.794191500781856519
0.233000000000000068,19.203243768030677785
0.234000000000000069,18.627851126997878595
0.235000000000000070,18.068043879059391799
0.236000000000000071,17.523835349429955244
0.237000000000000072,16.995220023543357257
0.238000000000000073,16.482172011602166606
0.239000000000000073,15.984643836773766878
0.240000000000000074,15.502565538273660906
0.241000000000000075,15.035844077007316955
0.242000000000000076,14.584363028497538295
0.243000000000000077,14.147982545466755155
0.244000000000000078,13.726539570627149800
0.245000000000000079,13.319848278909239170
0.246000000000000080,12.927700727483653509
0.247000000000000081,12.549867691453060914
0.248000000000000081,12.186099662965498069
0.249000000000000082,11.836127991681040683
0.250000000000000111,11.499666144966781189
0.251000000000000112,11.176411066861307475
0.252000000000000113,10.866044615698879028
0.253000000000000114,10.568235061283051124
0.254000000000000115,10.282638623613696183
0.255000000000000115,10.008901036374327376
0.256000000000000116,9.746659119649539349
0.257000000000000117,9.495542347643269210
0.258000000000000118,9.255174398486239795
0.259000000000000119,9.025174674537636221
0.260000000000000120,8.805159782885576547
0.261000000000000121,8.594744967021942017
0.262000000000000122,8.393545481896229177
0.263000000000000123,8.201177905733734619
0.264000000000000123,8.017261383126443874
0.265000000000000124,7.841418794966624084
0.266000000000000125,7.673277851787792869
0.267000000000000126,7.512472108004294213
0.268000000000000127,7.358641895395851229
0.269000000000000128,7.211435174968476858
0.270000000000000129,7.070508307036652340
0.271000000000000130,6.935526740015899527
0.272000000000000131,6.806165618990843491
0.273000000000000131,6.682110315634176345
0.274000000000000132,6.563056881498779305
0.275000000000000133,6.448712427091800592
0.276000000000000134,6.338795429468964571
0.277000000000000135,6.233035971363029226
0.278000000000000136,6.131175915085420591
0.279000000000000137,6.032969014618716486
0.280000000000000138,5.938180969452772295
0.281000000000000139,5.846589423812885045
0.282000000000000139,5.757983914987659269
0.283000000000000140,5.672165774490782297
0.284000000000000141,5.588947985787860340
0.285000000000000142,5.508155002290124003
0.286000000000000143,5.429622529263919084
0.287000000000000144,5.353197273232016329
0.288000000000000145,5.278736662351365183
0.289000000000000146,5.206108541146259761
0.290000000000000147,5.135190842856407478
0.291000000000000147,5.065871242530216811
0.292000000000000148,4.998046793855044356
0.293000000000000149,4.931623552571567259
0.294000000000000150,4.866516189169529660
0.295000000000000151,4.802647593408684301
0.296000000000000152,4.739948473053807732
0.297000000000000153,4.678356949056427183
0.298000000000000154,4.617818149260517480
0.299000000000000155,4.558283802555245678
0.300000000000000155,4.499711835245887137
0.301000000000000156,4.442065971265544810
0.302000000000000157,4.385315337704921212
0.303000000000000158,4.329434076996975023
0.304000000000000159,4.274400966956998893
0.305000000000000160,4.220199049748204700
0.306000000000000161,4.166815270717181718
0.307000000000000162,4.114240127924106538
0.308000000000000163,4.062467333078861209
0.309000000000000163,4.011493484486244654
0.310000000000000164,3.961317752501837042
0.311000000000000165,3.911941577904439526
0.312000000000000166,3.863368383501248449
0.313000000000000167,3.815603299198469411
0.314000000000000168,3.768652900692255336
0.315000000000000169,3.722524961862932802
0.316000000000000170,3.677228220889164678
0.317000000000000171,3.632772160037863962
0.318000000000000171,3.589166799030231836
0.319000000000000172,3.546422501833684127
0.320000000000000173,3.504549796684085727
0.321000000000000174,3.463559209101801706
0.322000000000000175,3.423461107628694045
0.323000000000000176,3.384265561981106174
0.324000000000000177,3.345982213285824347
0.325000000000000178,3.308620156041712335
0.326000000000000179,3.272187831428944982
0.327000000000000179,3.236692931570583909
0.328000000000000180,3.202142314336994477
0.329000000000000181,3.168541928272166519
0.330000000000000182,3.135896747212906011
0.331000000000000183,3.104210714165325236
0.332000000000000184,3.073486693999814001
0.333000000000000185,3.043726434523927882
0.334000000000000186,3.014930535493074437
0.335000000000000187,2.987098425121114786
0.336000000000000187,2.960228343656773564
0.337000000000000188,2.934317333597138866
0.338000000000000189,2.909361236115957983
0.339000000000000190,2.885354693292272010
0.340000000000000191,2.862291155733870163
0.341000000000000192,2.840162895199353610
0.342000000000000193,2.818961021833564562
0.343000000000000194,2.798675505641748273
0.344000000000000195,2.779295201840139118
0.345000000000000195,2.760807879732191772
0.346000000000000196,2.743200254772812929
0.347000000000000197,2.726458023495452743
0.348000000000000198,2.710565900990132171
0.349000000000000199,2.695507660633728264
0.350000000000000200,2.681266175787021755
0.351000000000000201,2.667823463186503652
0.352000000000000202,2.655160727772103879
0.353000000000000203,2.643258408705267737
0.354000000000000203,2.632096226344867951
0.355000000000000204,2.621653229961419918
0.356000000000000205,2.611907845982680332
0.357000000000000206,2.602837926576192285
0.358000000000000207,2.594420798386729121
0.359000000000000208,2.586633311258263568
0.360000000000000209,2.579451886781828129
0.361000000000000210,2.572852566522001450
0.362000000000000210,2.566811059785549354
0.363000000000000211,2.561302790806458951
0.364000000000000212,2.556302945231768486
0.365000000000000213,2.551786515802547228
0.366000000000000214,2.547728347133738858
0.367000000000000215,2.544103179505870838
0.368000000000000216,2.540885691590089923
0.369000000000000217,2.538050542036685453
0.370000000000000218,2.535572409864856436
0.371000000000000218,2.533426033599390781
0.372000000000000219,2.531586249106892783
0.373000000000000220,2.530028026091196036
0.374000000000000221,2.528726503213996502
0.375000000000000222,2.527657021812982130
0.376000000000000223,2.526795158195313196
0.377000000000000224,2.526116754489989624
0.378000000000000225,2.525597948047556329
0.379000000000000226,2.525215199380522080
0.380000000000000226,2.524945318642169312
0.381000000000000227,2.524765490645848764
0.382000000000000228,2.524653298430469928
0.383000000000000229,2.524586745381621533
0.384000000000000230,2.524544275921143388
0.385000000000000231,2.524504794780784600
0.386000000000000232,2.524447684878688758
0.387000000000000233,2.524352823819724811
0.388000000000000234,2.524200599043273208
0.389000000000000234,2.523971921643902494
0.390000000000000235,2.523648238892554296
0.391000000000000236,2.523211545487290319
0.392000000000000237,2.522644393564376308
0.393000000000000238,2.521929901501609450
0.394000000000000239,2.521051761547103531
0.395000000000000240,2.519994246307613484
0.396000000000000241,2.518742214131374446
0.397000000000000242,2.517281113421124594
0.398000000000000242,2.515596985913442829
0.399000000000000243,2.513676468961092869
0.400000000000000244,2.511506796855282886
0.401000000000000245,2.509075801224845748
0.402000000000000246,2.506371910549702875
0.403000000000000247,2.503384148825637645
0.404000000000000248,2.500102133417544614
0.405000000000000249,2.496516072137982878
0.406000000000000250,2.492616759587700237
0.407000000000000250,2.488395572794368071
0.408000000000000251,2.483844466185435973
0.409000000000000252,2.478955965930496497
0.410000000000000253,2.473723163688078319
0.411000000000000254,2.468139709791182579
0.412000000000000255,2.462199805905301186
0.413000000000000256,2.455898197191936028
0.414000000000000257,2.449230164010085531
0.415000000000000258,2.442191513187236929
0.416000000000000258,2.434778568890914929
0.417000000000000259,2.426988163130804566
0.418000000000000260,2.418817625920892667
0.419000000000000261,2.410264775130119830
0.420000000000000262,2.401327906049294025
0.421000000000000263,2.392005780701119910
0.422000000000000264,2.382297616919450078
0.423000000000000265,2.372203077222923895
0.424000000000000266,2.361722257507307798
0.425000000000000266,2.350855675580133308
0.426000000000000267,2.339604259560183586
0.427000000000000268,2.327969336163689285
0.428000000000000269,2.315952618898165838
0.429000000000000270,2.303556196184017857
0.430000000000000271,2.290782519423185004
0.431000000000000272,2.277634391033319439
0.432000000000000273,2.264114952465134945
0.433000000000000274,2.250227672219781372
0.434000000000000274,2.235976333882304434
0.435000000000000275,2.221365024186526593
0.436000000000000276,2.206398121125814349
0.437000000000000277,2.191080282123572864
0.438000000000000278,2.175416432276507273
0.439000000000000279,2.159411752682975472
0.440000000000000280,2.143071668868092861
0.441000000000000281,2.126401839316585107
0.442000000000000282,2.109408144123577244
0.443000000000000282,2.092096673773135240
0.444000000000000283,2.074473718053419180
0.445000000000000284,2.056545755116974572
0.446000000000000285,2.038319440693956874
0.447000000000000286,2.019801597465470611
0.448000000000000287,2.000999204603819415
0.449000000000000288,1.981919387485725936
0.450000000000000289,1.962569407584191961
0.451000000000000290,1.942956652544141960
0.452000000000000290,1.923088626446438409
0.453000000000000291,1.902972940264509472
0.454000000000000292,1.882617302517273217
0.455000000000000293,1.862029510121653741
0.456000000000000294,1.841217439447602189
0.457000000000000295,1.820189037578063163
0.458000000000000296,1.798952313776007061
0.459000000000000297,1.777515331160271383
0.460000000000000298,1.755886198591562586
0.461000000000000298,1.734073062769716289
0.462000000000000299,1.712084100542892173
0.463000000000000300,1.689927511429197171
0.464000000000000301,1.667611510350808457
0.465000000000000302,1.645144320580530506
0.466000000000000303,1.622534166900327479
0.467000000000000304,1.599789268971248957
0.468000000000000305,1.576917834913825534
0.469000000000000306,1.553928055097877792
0.470000000000000306,1.530828096140397276
0.471000000000000307,1.507626095110045750
0.472000000000000308,1.484330153936553431
0.473000000000000309,1.460948334023162598
0.474000000000000310,1.437488651060145894
0.475000000000000311,1.413959070037139387
0.476000000000000312,1.390367500452108329
0.477000000000000313,1.366721791714365697
0.478000000000000314,1.343029728739224771
0.479000000000000314,1.319299027731490659
0.480000000000000315,1.295537332155112242
0.481000000000000316,1.271752208886066882
0.482000000000000317,1.247951144545565105
0.483000000000000318,1.224141542010518391
0.484000000000000319,1.200330717098184286
0.485000000000000320,1.176525895421839163
0.486000000000000321,1.152734209414216560
0.487000000000000322,1.128962695515502768
0.488000000000000322,1.105218291522551910
0.489000000000000323,1.081507834095969178
0.490000000000000324,1.057838056421708472
0.491000000000000325,1.034215586023770728
0.492000000000000326,1.010646942724600095
0.493000000000000327,0.987138536749736395
0.494000000000000328,0.963696666973278937
0.495000000000000329,0.940327519300729442
0.496000000000000330,0.917037165185778158
0.497000000000000330,0.893831560277529968
0.498000000000000331,0.870716543194843928
0.499000000000000332,0.847697834424273822
0.500000000000000333,0.824781035338219226
0.501000000000000334,0.801971627329955750
0.502000000000000335,0.779274971062090538
0.503000000000000336,0.756696305825185989
0.504000000000000337,0.734240749003161830
0.505000000000000338,0.711913295642249699
0.506000000000000338,0.689718818120210075
0.507000000000000339,0.667662065912589697
0.508000000000000340,0.645747665452879427
0.509000000000000341,0.623980120083359124
0.510000000000000342,0.602363810093600072
0.511000000000000343,0.580902992843479016
0.512000000000000344,0.559601802967760076
0.513000000000000345,0.538464252659231479
0.514000000000000346,0.517494232027429168
0.515000000000000346,0.496695509530145962
0.516000000000000347,0.476071732474828369
0.517000000000000348,0.455626427587069560
0.518000000000000349,0.435363001643500724
0.519000000000000350,0.415284742166356913
0.520000000000000351,0.395394818177090213
0.521000000000000352,0.375696281006430488
0.522000000000000353,0.356192065158395743
0.523000000000000353,0.336884989225698095
0.524000000000000354,0.317777756854191573
0.525000000000000355,0.298872957753905655
0.526000000000000356,0.280173068754409560
0.527000000000000357,0.261680454902169124
0.528000000000000358,0.243397370597689677
0.529000000000000359,0.225325960770304951
0.530000000000000360,0.207468262088456701
0.531000000000000361,0.189826204203401072
0.532000000000000361,0.172401611024334322
0.533000000000000362,0.155196202022975960
0.534000000000000363,0.138211593565692514
0.535000000000000364,0.121449300271274985
0.536000000000000365,0.104910736392607867
0.537000000000000366,0.088597217220404659
0.538000000000000367,0.072509960507363316
0.539000000000000368,0.056650087910997370
0.540000000000000369,0.041018626453606391
0.541000000000000369,0.025616509997745320
0.542000000000000370,0.010444580735735221
0.543000000000000371,-0.004496409308317295
0.544000000000000372,-0.019205796765388250
0.545000000000000373,-0.033683005398683227
0.546000000000000374,-0.047927544572416395
0.547000000000000375,-0.061939007713488391
0.548000000000000376,-0.075717070767362296
0.549000000000000377,-0.089261490649292979
0.550000000000000377,-0.102572103692139510
0.551000000000000378,-0.115648824091819730
0.552000000000000379,-0.128491642351569901
0.553000000000000380,-0.141100623725992608
0.554000000000000381,-0.153475906665933082
0.555000000000000382,-0.165617701265175415
0.556000000000000383,-0.177526287709826536
0.557000000000000384,-0.189202014731376184
0.558000000000000385,-0.200645298064201949
0.559000000000000385,-0.211856618908422251
0.560000000000000386,-0.222836522398841108
0.561000000000000387,-0.233585616080771358
0.562000000000000388,-0.244104568393429255
0.563000000000000389,-0.254394107161657446
0.564000000000000390,-0.264455018096547589
0.565000000000000391,-0.274288143305689236
0.566000000000000392,-0.283894379813573572
0.567000000000000393,-0.293274678092781571
0.568000000000000393,-0.302430040606441075
0.569000000000000394,-0.311361520362542776
0.570000000000000395,-0.320070219480543150
0.571000000000000396,-0.328557287770738227
0.572000000000000397,-0.336823921326878772
0.573000000000000398,-0.344871361132381427
0.574000000000000399,-0.352700891680581274
0.575000000000000400,-0.360313839609354258
0.576000000000000401,-0.367711572350460369
0.577000000000000401,-0.374895496793960337
0.578000000000000402,-0.381867057967959223
0.579000000000000403,-0.388627737733965251
0.580000000000000404,-0.395179053498174282
0.581000000000000405,-0.401522556938827158
0.582000000000000406,-0.407659832749955986
0.583000000000000407,-0.413592497401633952
0.584000000000000408,-0.419322197916989658
0.585000000000000409,-0.424850610666085704
0.586000000000000409,-0.430179440176851002
0.587000000000000410,-0.435310417963204632
0.588000000000000411,-0.440245301370434827
0.589000000000000412,-0.444985872438022956
0.590000000000000413,-0.449533936779906884
0.591000000000000414,-0.453891322482324167
0.592000000000000415,-0.458059879019275695
0.593000000000000416,-0.462041476185635236
0.594000000000000417,-0.465838003047966243
0.595000000000000417,-0.469451366913079426
0.596000000000000418,-0.472883492314273735
0.597000000000000419,-0.476136320015365988
0.598000000000000420,-0.479211806032383780
0.599000000000000421,-0.482111920673000238
0.600000000000000422,-0.484838647593607786
0.601000000000000423,-0.487393982874014864
0.602000000000000424,-0.489779934109725423
0.603000000000000425,-0.491998519521745947
0.604000000000000425,-0.494051767083795723
0.605000000000000426,-0.495941713666920414
0.606000000000000427,-0.497670404201405514
0.607000000000000428,-0.499239890855817658
0.608000000000000429,-0.500652232233249395
0.609000000000000430,-0.501909492584439842
0.610000000000000431,-0.503013741037882545
0.611000000000000432,-0.503967050846632625
0.612000000000000433,-0.504771498651774841
0.613000000000000433,-0.505429163762431521
0.614000000000000434,-0.505942127452126522
0.615000000000000435,-0.506312472271398306
0.616000000000000436,-0.506542281376520687
0.617000000000000437,-0.506633637874200571
0.618000000000000438,-0.506588624182050196
0.619000000000000439,-0.506409321404723167
