# Tobermorite-004_CS-13835861-AC
# h[nm],U(h)[kJ/mol]
0.149999999999999994,192.821860943454311155
0.150999999999999995,190.192057645512051067
0.151999999999999996,187.086301087571513335
0.152999999999999997,183.885909243531557422
0.153999999999999998,180.750860827780940099
0.154999999999999999,177.726443955767422267
0.156000000000000000,174.805596465488122249
0.157000000000000001,171.963275203830278315
0.158000000000000002,169.173721269068266793
0.159000000000000002,166.417711374819930370
0.160000000000000003,163.684310708908753895
0.161000000000000004,160.969913528474819486
0.162000000000000005,158.276217545582369439
0.163000000000000006,155.608043339530922822
0.164000000000000007,152.971450378916244972
0.165000000000000008,150.372325252744019508
0.166000000000000009,147.815461785911196557
0.167000000000000010,145.304073179832101914
0.168000000000000010,142.839643641410646069
0.169000000000000011,140.422021538715796396
0.170000000000000012,138.049665239804255634
0.171000000000000013,135.719968466810229302
0.172000000000000014,133.429609430986658936
0.173000000000000015,131.174884511192118453
0.174000000000000016,128.952001458797695932
0.175000000000000017,126.757318558204772785
0.176000000000000018,124.587524842232213018
0.177000000000000018,122.439762622182072960
0.178000000000000019,120.311697632794022184
0.179000000000000020,118.201544435040659664
0.180000000000000021,116.108055768437637312
0.181000000000000022,114.030484656844308233
0.182000000000000023,111.968527547870365879
0.183000000000000024,109.922255847154843877
0.184000000000000025,107.892042080958319161
0.185000000000000026,105.878485721178208223
0.186000000000000026,103.882342532777173005
0.187000000000000027,101.904460218440760855
0.188000000000000028,99.945722176988169849
0.189000000000000029,98.007000379138887070
0.190000000000000030,96.089117701042354724
0.191000000000000031,94.192819537087743242
0.192000000000000032,92.318754127204485371
0.193000000000000033,90.467460764733814926
0.194000000000000034,88.639364881939059160
0.195000000000000034,86.834778923985965093
0.196000000000000035,85.053907902160361232
0.197000000000000036,83.296858547937091544
0.198000000000000037,81.563651057710330861
0.199000000000000038,79.854232511851392928
0.200000000000000039,78.168491161472928752
0.201000000000000040,76.506270893848054016
0.202000000000000041,74.867385306527907574
0.203000000000000042,73.251630935990988291
0.204000000000000042,71.658799295593738066
0.205000000000000043,70.088687477252051394
0.206000000000000044,68.541107160141308441
0.207000000000000045,67.015891946995409967
0.208000000000000046,65.512903014119387990
0.209000000000000047,64.032033115275964974
0.210000000000000048,62.573209022747121821
0.211000000000000049,61.136392521941274936
0.212000000000000050,59.721580099868276648
0.213000000000000050,58.328801483702157782
0.214000000000000051,56.958117194555349272
0.215000000000000052,55.609615284567112781
0.216000000000000053,54.283407423475907194
0.217000000000000054,52.979624494948950542
0.218000000000000055,51.698411853956407924
0.219000000000000056,50.439924385181484467
0.220000000000000057,49.204321489540959078
0.221000000000000058,47.991762111960134973
0.222000000000000058,46.802399909099200670
0.223000000000000059,45.636378641205446627
0.224000000000000060,44.493827858004671327
0.225000000000000061,43.374858934830044177
0.226000000000000062,42.279561502227309688
0.227000000000000063,41.208000300231148572
0.228000000000000064,40.160212477487434057
0.229000000000000065,39.136205345462897753
0.230000000000000066,38.135954589174602347
0.231000000000000066,37.159402928181748393
0.232000000000000067,36.206459214995852847
0.233000000000000068,35.276997952535616321
0.234000000000000069,34.370859207730902085
0.235000000000000070,33.487848894794154830
0.236000000000000071,32.627739398960791561
0.237000000000000072,31.790270509568792079
0.238000000000000073,30.975150630127796347
0.239000000000000073,30.182058232438031098
0.240000000000000074,29.410643521778059295
0.241000000000000075,28.660530280618907284
0.242000000000000076,27.931317859161971739
0.243000000000000077,27.222583282175786934
0.244000000000000078,26.533883443057725060
0.245000000000000079,25.864757357714381669
0.246000000000000080,25.214728452685726268
0.247000000000000081,24.583306863884974547
0.248000000000000081,23.969991724349213769
0.249000000000000082,23.374273421455498578
0.250000000000000111,22.795635806122636069
0.251000000000000112,22.233558338562723122
0.252000000000000113,21.687518157143706787
0.253000000000000114,21.156992058859493966
0.254000000000000115,20.641458381755491303
0.255000000000000115,20.140398781419168728
0.256000000000000116,19.653299895302236422
0.257000000000000117,19.179654890189702598
0.258000000000000118,18.718964889566798604
0.259000000000000119,18.270740278952501967
0.260000000000000120,17.834501888470448705
0.261000000000000121,17.409782053013795888
0.262000000000000122,16.996125551331736858
0.263000000000000123,16.593090426226332568
0.264000000000000123,16.200248688801856645
0.265000000000000124,15.817186910360485186
0.266000000000000125,15.443506706092861691
0.267000000000000126,15.078825115175494176
0.268000000000000127,14.722774882264564766
0.269000000000000128,14.375004645675030446
0.270000000000000129,14.035179037758874543
0.271000000000000130,13.702978703154972351
0.272000000000000131,13.378100240680456778
0.273000000000000131,13.060256074675669069
0.274000000000000132,12.749174261607739922
0.275000000000000133,12.444598237686555819
0.276000000000000134,12.146286513157122045
0.277000000000000135,11.854012318809202142
0.278000000000000136,11.567563210091956094
0.279000000000000137,11.286740634044594600
0.280000000000000138,11.011359464056186042
0.281000000000000139,10.741247507253143922
0.282000000000000139,10.476244989085126136
0.283000000000000140,10.216204019442141515
0.284000000000000141,9.960988044390441942
0.285000000000000142,9.710471287364949688
0.286000000000000143,9.464538183403847782
0.287000000000000144,9.223082809759100442
0.288000000000000145,8.986008315965403170
0.289000000000000146,8.753226356203878566
0.290000000000000147,8.524656526553375357
0.291000000000000147,8.300225809486594386
0.292000000000000148,8.079868027738026370
0.293000000000000149,7.863523309449729659
0.294000000000000150,7.651137566287407488
0.295000000000000151,7.442661986015482789
0.296000000000000152,7.238052540825553827
0.297000000000000153,7.037269512527970505
0.298000000000000154,6.840277035541868500
0.299000000000000155,6.647042658454827446
0.300000000000000155,6.457536924769155640
0.301000000000000156,6.271732973308255410
0.302000000000000157,6.089606158622266285
0.303000000000000158,5.911133691608915441
0.304000000000000159,5.736294300450678563
0.305000000000000160,5.565067911865146932
0.306000000000000161,5.397435352569518230
0.307000000000000162,5.233378070773270885
0.308000000000000163,5.072877877435014504
0.309000000000000163,4.915916706948935122
0.310000000000000164,4.762476396863879913
0.311000000000000165,4.612538486182924835
0.312000000000000166,4.466084031742936666
0.313000000000000167,4.323093442132094566
0.314000000000000168,4.183546328567775419
0.315000000000000169,4.047421372127514516
0.316000000000000170,3.914696206701339776
0.317000000000000171,3.785347317014655655
0.318000000000000171,3.659349951056213968
0.319000000000000172,3.536678046235168349
0.320000000000000173,3.417304168585172164
0.321000000000000174,3.301199464330635713
0.322000000000000175,3.188333623130735983
0.323000000000000176,3.078674852320618438
0.324000000000000177,2.972189861475304173
0.325000000000000178,2.868843856630913347
0.326000000000000179,2.768600543508281220
0.327000000000000179,2.671422139097441306
0.328000000000000180,2.577269390975730268
0.329000000000000181,2.486101603748221756
0.330000000000000182,2.397876672016971522
0.331000000000000183,2.312551119303330349
0.332000000000000184,2.230080142367456553
0.333000000000000185,2.150417660388882268
0.334000000000000186,2.073516368492598350
0.335000000000000187,1.999327795126383034
0.336000000000000187,1.927802362816115167
0.337000000000000188,1.858889451847829832
0.338000000000000189,1.792537466446365357
0.339000000000000190,1.728693903042373137
0.340000000000000191,1.667305420241012470
0.341000000000000192,1.608317910126580319
0.342000000000000193,1.551676570558770285
0.343000000000000194,1.497325978136517133
0.344000000000000195,1.445210161526296888
0.345000000000000195,1.395272674870798868
0.346000000000000196,1.347456671014110707
0.347000000000000197,1.301704974297853923
0.348000000000000198,1.257960152701254053
0.349000000000000199,1.216164589115957151
0.350000000000000200,1.176260551563286905
0.351000000000000201,1.138190262178484513
0.352000000000000202,1.101895964802213523
0.353000000000000203,1.067319991034868965
0.354000000000000203,1.034404824623942343
0.355000000000000204,1.003093164068735721
0.356000000000000205,0.973327983339947522
0.357000000000000206,0.945052590624296585
0.358000000000000207,0.918210685016825012
0.359000000000000208,0.892746411094456072
0.360000000000000209,0.868604411315499036
0.361000000000000210,0.845729876200106978
0.362000000000000210,0.824068592256024246
0.363000000000000211,0.803566987623318907
0.364000000000000212,0.784172175420046691
0.365000000000000213,0.765831994778905178
0.366000000000000214,0.748495049572211135
0.367000000000000215,0.732110744829529980
0.368000000000000216,0.716629320858491403
0.369000000000000217,0.702001885085496879
0.370000000000000218,0.688180441638146734
0.371000000000000218,0.675117918696541919
0.372000000000000219,0.662768193644837078
0.373000000000000220,0.651086116058825826
0.374000000000000221,0.640027528568953175
0.375000000000000222,0.629549285641763934
0.376000000000000223,0.619609270325346073
0.377000000000000224,0.610166409007647292
0.378000000000000225,0.601180684238377117
0.379000000000000226,0.592613145667658658
0.380000000000000226,0.584425919156001172
0.381000000000000227,0.576582214112121294
0.382000000000000228,0.569046329115938776
0.383000000000000229,0.561783655885376154
0.384000000000000230,0.554760681646356613
0.385000000000000231,0.547944989965717277
0.386000000000000232,0.541305260107532327
0.387000000000000233,0.534811264973096168
0.388000000000000234,0.528433867685288106
0.389000000000000234,0.522145016877413548
0.390000000000000235,0.515917740746819842
0.391000000000000236,0.509726139932737854
0.392000000000000237,0.503545379277606897
0.393000000000000238,0.497351678530172481
0.394000000000000239,0.491122302048179638
0.395000000000000240,0.484835547557359081
0.396000000000000241,0.478470734022647726
0.397000000000000242,0.472008188686512842
0.398000000000000242,0.465429233328061964
0.399000000000000243,0.458716169795682749
0.400000000000000244,0.451852264864568920
0.401000000000000245,0.444821734469217300
0.402000000000000246,0.437609727359987821
0.403000000000000247,0.430202308231067587
0.404000000000000248,0.422586440366179761
0.405000000000000249,0.414749967846803347
0.406000000000000250,0.406681597366399417
0.407000000000000250,0.398370879692617474
0.408000000000000251,0.389808190818165812
0.409000000000000252,0.380984712839482820
0.410000000000000253,0.371892414601058596
0.411000000000000254,0.362524032141709973
0.412000000000000255,0.352873048977851211
0.413000000000000256,0.342933676257166087
0.414000000000000257,0.332700832815057024
0.415000000000000258,0.322170125164408350
0.416000000000000258,0.311337827448334992
0.417000000000000259,0.300200861383790263
0.418000000000000260,0.288756776222958089
0.419000000000000261,0.277003728757773238
0.420000000000000262,0.264940463391867609
0.421000000000000263,0.252566292302722539
0.422000000000000264,0.239881075715950187
0.423000000000000265,0.226885202312049117
0.424000000000000266,0.213579569784994650
0.425000000000000266,0.199965565570986242
0.426000000000000267,0.186045047764294480
0.427000000000000268,0.171820326236309329
0.428000000000000269,0.157294143972723816
0.429000000000000270,0.142469658642755237
0.430000000000000271,0.127350424413420954
0.431000000000000272,0.111940374020751854
0.432000000000000273,0.096243801109110724
0.433000000000000274,0.080265342848694798
0.434000000000000274,0.064009962840528761
0.435000000000000275,0.047482934317443347
0.436000000000000276,0.030689823648627823
0.437000000000000277,0.013636474154688827
0.438000000000000278,-0.003671009760689437
0.439000000000000279,-0.021226278157086730
0.440000000000000280,-0.039022750776932048
0.441000000000000281,-0.057053631934239027
0.442000000000000282,-0.075311925069203672
0.443000000000000282,-0.093790446965595103
0.444000000000000283,-0.112481841628936069
0.445000000000000284,-0.131378593823574780
0.446000000000000285,-0.150473042267522505
0.447000000000000286,-0.169757392484477354
0.448000000000000287,-0.189223729312614358
0.449000000000000288,-0.208864029070583268
0.450000000000000289,-0.228670171381239573
0.451000000000000290,-0.248633950654221725
0.452000000000000290,-0.268747087228857373
0.453000000000000291,-0.289001238179101505
0.454000000000000292,-0.309388007782756880
0.455000000000000293,-0.329898957657364433
0.456000000000000294,-0.350525616565530995
0.457000000000000295,-0.371259489892758032
0.458000000000000296,-0.392092068801021765
0.459000000000000297,-0.413014839061659367
0.460000000000000298,-0.434019289571341393
0.461000000000000298,-0.455096920555043472
0.462000000000000299,-0.476239251460252866
0.463000000000000300,-0.497437828546649308
0.464000000000000301,-0.518684232175875559
0.465000000000000302,-0.539970083805917489
0.466000000000000303,-0.561287052694980138
0.467000000000000304,-0.582626862319703731
0.468000000000000305,-0.603981296512722921
0.469000000000000306,-0.625342205324704858
0.470000000000000306,-0.646701510616062958
0.471000000000000307,-0.668051211383530075
0.472000000000000308,-0.689383388827023991
0.473000000000000309,-0.710690211162136154
0.474000000000000310,-0.731963938183610718
0.475000000000000311,-0.753196925585399413
0.476000000000000312,-0.774381629042631858
0.477000000000000313,-0.795510608061136049
0.478000000000000314,-0.816576529599889911
0.479000000000000314,-0.837572171472044880
0.480000000000000315,-0.858490425529909396
0.481000000000000316,-0.879324300639505507
0.482000000000000317,-0.900066925450067834
0.483000000000000318,-0.920711550964037118
0.484000000000000319,-0.941251552912914180
0.485000000000000320,-0.961680433944392399
0.486000000000000321,-0.981991825626137627
0.487000000000000322,-1.002179490271525530
0.488000000000000322,-1.022237322592532749
0.489000000000000323,-1.042159351185138805
0.490000000000000324,-1.061939739852261422
0.491000000000000325,-1.081572788769412430
0.492000000000000326,-1.101052935498052054
0.493000000000000327,-1.120374755851693660
0.494000000000000328,-1.139532964619584421
0.495000000000000329,-1.158522416152881984
0.496000000000000330,-1.177338104817995390
0.497000000000000330,-1.195975165321947697
0.498000000000000331,-1.214428872914160129
0.499000000000000332,-1.232694643469388840
0.500000000000000333,-1.250768033456226558
0.501000000000000334,-1.268644739795458110
0.502000000000000335,-1.286320599612733373
0.503000000000000336,-1.303791589889638614
0.504000000000000337,-1.321053827017419469
0.505000000000000338,-1.338103566257313748
0.506000000000000338,-1.354937201111546141
0.507000000000000339,-1.371551262608849298
0.508000000000000340,-1.387942418508273379
0.509000000000000341,-1.404107472425113246
0.510000000000000342,-1.420043362882454918
0.511000000000000343,-1.435747162292034362
0.512000000000000344,-1.451216075867753030
0.513000000000000345,-1.466447440475315833
0.514000000000000346,-1.481438723421314219
0.515000000000000346,-1.496187521184877856
0.516000000000000347,-1.510691558095104359
0.517000000000000348,-1.524948684957358358
0.518000000000000349,-1.538956877631305842
0.519000000000000350,-1.552714235563694700
0.520000000000000351,-1.566218980278597073
0.521000000000000352,-1.579469453827964109
0.522000000000000353,-1.592464117205020013
0.523000000000000353,-1.605201548723192762
0.524000000000000354,-1.617680442363028659
0.525000000000000355,-1.629899606089544761
0.526000000000000356,-1.641857960142333095
0.527000000000000357,-1.653554535300786554
0.528000000000000358,-1.664988471126582770
0.529000000000000359,-1.676159014185597540
0.530000000000000360,-1.687065516251308406
0.531000000000000361,-1.697707432491726065
0.532000000000000361,-1.708084319641749449
0.533000000000000362,-1.718195834162836277
0.534000000000000363,-1.728041730391786768
0.535000000000000364,-1.737621858680409970
0.536000000000000365,-1.746936163527691210
0.537000000000000366,-1.755984681706168615
0.538000000000000367,-1.764767540383957112
0.539000000000000368,-1.773284955244081029
0.540000000000000369,-1.781537228602374512
0.541000000000000369,-1.789524747525508941
0.542000000000000370,-1.797247981950329088
0.543000000000000371,-1.804707482805881558
0.544000000000000372,-1.811903880139317469
0.545000000000000373,-1.818837881246836430
0.546000000000000374,-1.825510268810813574
0.547000000000000375,-1.831921899044155477
0.548000000000000376,-1.838073699842964093
0.549000000000000377,-1.843966668948410881
0.550000000000000377,-1.849601872118849855
0.551000000000000378,-1.854980441312937600
0.552000000000000379,-1.860103572884753476
0.553000000000000380,-1.864972525791591895
0.554000000000000381,-1.869588619815244268
0.555000000000000382,-1.873953233797559736
0.556000000000000383,-1.878067803890804299
0.557000000000000384,-1.881933821823673636
0.558000000000000385,-1.885552833183375965
0.559000000000000385,-1.888926435714497476
0.560000000000000386,-1.892056277635137063
0.561000000000000387,-1.894944055970813057
0.562000000000000388,-1.897591514906617594
0.563000000000000389,-1.900000444158116863
0.564000000000000390,-1.902172677361307240
0.565000000000000391,-1.904110090482123541
0.566000000000000392,-1.905814600245750556
0.567000000000000393,-1.907288162586189939
0.568000000000000393,-1.908532771116218330
0.569000000000000394,-1.909550455618175491
0.570000000000000395,-1.910343280555751644
0.571000000000000396,-1.910913343606954085
0.572000000000000397,-1.911262774218599914
0.573000000000000398,-1.911393732182348204
0.574000000000000399,-1.911308406232564705
0.575000000000000400,-1.911009012666065043
0.576000000000000401,-1.910497793983888970
0.577000000000000401,-1.909777017555256418
0.578000000000000402,-1.908848974303669177
0.579000000000000403,-1.907715977415300301
0.580000000000000404,-1.906380361069746510
0.581000000000000405,-1.904844479193046780
0.582000000000000406,-1.903110704233134554
0.583000000000000407,-1.901181425957566118
0.584000000000000408,-1.899059050273651739
0.585000000000000409,-1.896745998070838102
0.586000000000000409,-1.894244704085360054
0.587000000000000410,-1.891557615787124336
0.588000000000000411,-1.888687192288645011
0.589000000000000412,-1.885635903276116299
0.590000000000000413,-1.882406227962353018
0.591000000000000414,-1.879000654061616871
0.592000000000000415,-1.875421676786197311
0.593000000000000416,-1.871671797864536302
0.594000000000000417,-1.867753524580872071
0.595000000000000417,-1.863669368836236684
0.596000000000000418,-1.859421846230551179
0.597000000000000419,-1.855013475165855352
0.598000000000000420,-1.850446775970288282
0.599000000000000421,-1.845724270042839565
0.600000000000000422,-1.840848479018559303
0.601000000000000423,-1.835821923954086277
0.602000000000000424,-1.830647124533338665
0.603000000000000425,-1.825326598293124603
0.604000000000000425,-1.819862859868455640
0.605000000000000426,-1.814258420257413018
0.606000000000000427,-1.808515786105364453
0.607000000000000428,-1.802637459008147092
0.608000000000000429,-1.796625934834330751
0.609000000000000430,-1.790483703065923304
0.610000000000000431,-1.784213246157688504
0.611000000000000432,-1.777817038914553338
0.612000000000000433,-1.771297547887015211
0.613000000000000433,-1.764657230784322905
0.614000000000000434,-1.757898535905119575
0.615000000000000435,-1.751023901585351705
