# Tobermorite-004_CS-59559-AC
# h[nm],U(h)[kJ/mol]
0.149999999999999994,129.922872741128287544
0.150999999999999995,127.994579018990251029
0.151999999999999996,126.154720806619067730
0.152999999999999997,124.293070499141393270
0.153999999999999998,122.396205713658289937
0.154999999999999999,120.485391542670527087
0.156000000000000000,118.586983097151573929
0.157000000000000001,116.720624855844221202
0.158000000000000002,114.896502703457414896
0.159000000000000002,113.116649855622156906
0.160000000000000003,111.377601477119043238
0.161000000000000004,109.673056608407662793
0.162000000000000005,107.995984819281630962
0.163000000000000006,106.340033971316955785
0.164000000000000007,104.700299584340882575
0.165000000000000008,103.073597325898774102
0.166000000000000009,101.458394879645169340
0.167000000000000010,99.854542051732366303
0.168000000000000010,98.262908161466697265
0.169000000000000011,96.685004243487711051
0.170000000000000012,95.122639605624584647
0.171000000000000013,93.577639888135792035
0.172000000000000014,92.051637244070704469
0.173000000000000015,90.545932013223264789
0.174000000000000016,89.061418339219258655
0.175000000000000017,87.598562558818500179
0.176000000000000018,86.157421936497570414
0.177000000000000018,84.737691637717659887
0.178000000000000019,83.338769109807145696
0.179000000000000020,81.959826806585155623
0.180000000000000021,80.599886124333053772
0.181000000000000022,79.257887295580914611
0.182000000000000023,77.932751681910090724
0.183000000000000024,76.623434349089606599
0.184000000000000025,75.328965973243185772
0.185000000000000026,74.048484020734193223
0.186000000000000026,72.781253790510049839
0.187000000000000027,71.526680338931726055
0.188000000000000028,70.284312560605314957
0.189000000000000029,69.053840811262432453
0.190000000000000030,67.835089464493421474
0.191000000000000031,66.628005723298002749
0.192000000000000032,65.432645885524451046
0.193000000000000033,64.249160110135136392
0.194000000000000034,63.077776565224397132
0.195000000000000034,61.918785671145712968
0.196000000000000035,60.772524991845116915
0.197000000000000036,59.639365180489974705
0.198000000000000037,58.519697255338940067
0.199000000000000038,57.413921370280966983
0.200000000000000039,56.322437151961381119
0.201000000000000040,55.245635601282927496
0.202000000000000041,54.183892500011779703
0.203000000000000042,53.137563221493394394
0.204000000000000042,52.106978816126478193
0.205000000000000043,51.092443225217188285
0.206000000000000044,50.094231469139174351
0.207000000000000045,49.112588655471896004
0.208000000000000046,48.147729658262278463
0.209000000000000047,47.199839329226122686
0.210000000000000048,46.269073114257700752
0.211000000000000049,45.355557962937425032
0.212000000000000050,44.459393433901666981
0.213000000000000050,43.580652914239848883
0.214000000000000051,42.719384885941209973
0.215000000000000052,41.875614186412732920
0.216000000000000053,41.049343222935590347
0.217000000000000054,40.240553112431904026
0.218000000000000055,39.449204727978248286
0.219000000000000056,38.675239642096599368
0.220000000000000057,37.918580964000597078
0.221000000000000058,37.179134073745295552
0.222000000000000058,36.456787260712076204
0.223000000000000059,35.751412277179326793
0.224000000000000060,35.062864820006126365
0.225000000000000061,34.390984954826656406
0.226000000000000062,33.735597497748415208
0.227000000000000063,33.096512369497595785
0.228000000000000064,32.473524936381437556
0.229000000000000065,31.866416351452347300
0.230000000000000066,31.274953907966136057
0.231000000000000066,30.698891415716722975
0.232000000000000067,30.137969609182949426
0.233000000000000068,29.591916594708482791
0.234000000000000069,29.060448342211071093
0.235000000000000070,28.543269225230197605
0.236000000000000071,28.040072611512080414
0.237000000000000072,27.550541504825211803
0.238000000000000073,27.074349237323172446
0.239000000000000073,26.611160210538230331
0.240000000000000074,26.160630682007145253
0.241000000000000075,25.722409593607427070
0.242000000000000076,25.296139436914970133
0.243000000000000077,24.881457150280507307
0.244000000000000078,24.477995041856747349
0.245000000000000079,24.085381732481447870
0.246000000000000080,23.703243112124731340
0.247000000000000081,23.331203303529573390
0.248000000000000081,22.968885626702348901
0.249000000000000082,22.615913558032140429
0.250000000000000111,22.271911678021574232
0.251000000000000112,21.936506601886346601
0.252000000000000113,21.609327887612948871
0.253000000000000114,21.290008916445064102
0.254000000000000115,20.978187741185696069
0.255000000000000115,20.673507898146979755
0.256000000000000116,20.375619179042637086
0.257000000000000117,20.084178359591110308
0.258000000000000118,19.798849882074392781
0.259000000000000119,19.519306489570602992
0.260000000000000120,19.245229810042733476
0.261000000000000121,18.976310888917527819
0.262000000000000122,18.712250669220921395
0.263000000000000123,18.452760418750077775
0.264000000000000123,18.197562104149906048
0.265000000000000124,17.946388712126143616
0.266000000000000125,17.698984518362657070
0.267000000000000126,17.455105305019237960
0.268000000000000127,17.214518527965164907
0.269000000000000128,16.977003435154792044
0.270000000000000129,16.742351137773134440
0.271000000000000130,16.510364635973324710
0.272000000000000131,16.280858801194241892
0.273000000000000131,16.053660317186299267
0.274000000000000132,15.828607581988274333
0.275000000000000133,15.605550573188077479
0.276000000000000134,15.384350678868267792
0.277000000000000135,15.164880496683718292
0.278000000000000136,14.947023603545005699
0.279000000000000137,14.730674298389867971
0.280000000000000138,14.515737320516596043
0.281000000000000139,14.302127545929504748
0.282000000000000139,14.089769664109798697
0.283000000000000140,13.878597837575245677
0.284000000000000141,13.668555346532240691
0.285000000000000142,13.459594220854148361
0.286000000000000143,13.251674861541754780
0.287000000000000144,13.044765653737851352
0.288000000000000145,12.838842573276787462
0.289000000000000146,12.633888788656017610
0.290000000000000147,12.429894260217478674
0.291000000000000147,12.226855338226364722
0.292000000000000148,12.024774361431765257
0.293000000000000149,11.823659257590366067
0.294000000000000150,11.623523147330574901
0.295000000000000151,11.424383952631199435
0.296000000000000152,11.226264011086591665
0.297000000000000153,11.029189697029718076
0.298000000000000154,10.833191050485925899
0.299000000000000155,10.638301414834213432
0.300000000000000155,10.444557083959566057
0.301000000000000156,10.251996959589799729
0.302000000000000157,10.060662219423400998
0.303000000000000158,9.870595996571928765
0.304000000000000159,9.681843070760665526
0.305000000000000160,9.494449571655840359
0.306000000000000161,9.308462694614767940
0.307000000000000162,9.123930429087502958
0.308000000000000163,8.940901299834886018
0.309000000000000163,8.759424121067922897
0.310000000000000164,8.579547763557689777
0.311000000000000165,8.401320934712982691
0.312000000000000166,8.224791971574799021
0.313000000000000167,8.050008646632548448
0.314000000000000168,7.877017986326170451
0.315000000000000169,7.705866102061250444
0.316000000000000170,7.536598033530665930
0.317000000000000171,7.369257604105927228
0.318000000000000171,7.203887288034414027
0.319000000000000172,7.040528089154392433
0.320000000000000173,6.879219430818897862
0.321000000000000174,6.719999056700947548
0.322000000000000175,6.562902942136941142
0.323000000000000176,6.407965215651816315
0.324000000000000177,6.255218090298654943
0.325000000000000178,6.104691804436708225
0.326000000000000179,5.956414571565078475
0.327000000000000179,5.810412538824754947
0.328000000000000180,5.666709753778514269
0.329000000000000181,5.525328139077037903
0.330000000000000182,5.386287474619868121
0.331000000000000183,5.249605386821207809
0.332000000000000184,5.115297344593743745
0.333000000000000185,4.983376661667634266
0.334000000000000186,4.853854504866832009
0.335000000000000187,4.726739907971181154
0.336000000000000187,4.602039790799411278
0.337000000000000188,4.479758983156161278
0.338000000000000189,4.359900253294187955
0.339000000000000190,4.242464340551980406
0.340000000000000191,4.127449991836607879
0.341000000000000192,4.014854001631150915
0.342000000000000193,3.904671255216584314
0.343000000000000194,3.796894774808225126
0.344000000000000195,3.691515768317996216
0.345000000000000195,3.588523680464068555
0.346000000000000196,3.487906245961071683
0.347000000000000197,3.389649544534758085
0.348000000000000198,3.293738057516297779
0.349000000000000199,3.200154725782456744
0.350000000000000200,3.108881008818904057
0.351000000000000201,3.019896944694935748
0.352000000000000202,2.933181210748704526
0.353000000000000203,2.848711184792733775
0.354000000000000203,2.766463006659963586
0.355000000000000204,2.686411639921087779
0.356000000000000205,2.608530933613834701
0.357000000000000206,2.532793683834746457
0.358000000000000207,2.459171695053914419
0.359000000000000208,2.387635841022146099
0.360000000000000209,2.318156125149281266
0.361000000000000210,2.250701740241400461
0.362000000000000210,2.185241127492818958
0.363000000000000211,2.121742034637398966
0.364000000000000212,2.060171573171356130
0.365000000000000213,2.000496274567634014
0.366000000000000214,1.942682145409099892
0.367000000000000215,1.886694721375016481
0.368000000000000216,1.832499120021818584
0.369000000000000217,1.780060092305960184
0.370000000000000218,1.729342072802422026
0.371000000000000218,1.680309228578725111
0.372000000000000219,1.632925506689522521
0.373000000000000220,1.587154680262376605
0.374000000000000221,1.542960393150320852
0.375000000000000222,1.500306203131577920
0.376000000000000223,1.459155623641100297
0.377000000000000224,1.419472164023199312
0.378000000000000225,1.381219368298162387
0.379000000000000226,1.344360852439782317
0.380000000000000226,1.308860340163886748
0.381000000000000227,1.274681697231685229
0.382000000000000228,1.241788964274312512
0.383000000000000229,1.210146388148142460
0.384000000000000230,1.179718451832942439
0.385000000000000231,1.150469902887260920
0.386000000000000232,1.122365780477942110
0.387000000000000233,1.095371441002387813
0.388000000000000234,1.069452582324387002
0.389000000000000234,1.044575266645762168
0.390000000000000235,1.020705942037817282
0.391000000000000236,0.997811462657878012
0.392000000000000237,0.975859107677480742
0.393000000000000238,0.954816598949864037
0.394000000000000239,0.934652117445432196
0.395000000000000240,0.915334318484631537
0.396000000000000241,0.896832345798473485
0.397000000000000242,0.879115844447571071
0.398000000000000242,0.862154972630932548
0.399000000000000243,0.845920412416395151
0.400000000000000244,0.830383379424667778
0.401000000000000245,0.815515631499274418
0.402000000000000246,0.801289476394943301
0.403000000000000247,0.787677778516814864
0.404000000000000248,0.774653964743057699
0.405000000000000249,0.762192029363267465
0.406000000000000250,0.750266538164995334
0.407000000000000250,0.738852631700434026
0.408000000000000251,0.727926027765162353
0.409000000000000252,0.717463023120473720
0.410000000000000253,0.707440494490497729
0.411000000000000254,0.697835898864929360
0.412000000000000255,0.688627273137798923
0.413000000000000256,0.679793233112143236
0.414000000000000257,0.671312971900147049
0.415000000000000258,0.663166257747541676
0.416000000000000258,0.655333431310797798
0.417000000000000259,0.647795402414812926
0.418000000000000260,0.640533646318425687
0.419000000000000261,0.633530199514321768
0.420000000000000262,0.626767655089436215
0.421000000000000263,0.620229157671133069
0.422000000000000264,0.613898397984048438
0.423000000000000265,0.607759607041611694
0.424000000000000266,0.601797549995695791
0.425000000000000266,0.595997519667280207
0.426000000000000267,0.590345329780148864
0.427000000000000268,0.584827307919179473
0.428000000000000269,0.579430288234001778
0.429000000000000270,0.574141603908143283
0.430000000000000271,0.568949079413224368
0.431000000000000272,0.563841022566953898
0.432000000000000273,0.558806216413180401
0.433000000000000274,0.553833910941484153
0.434000000000000274,0.548913814663240296
0.435000000000000275,0.544036086060436297
0.436000000000000276,0.539191324922833060
0.437000000000000277,0.534370563588589698
0.438000000000000278,0.529565258102721481
0.439000000000000279,0.524767279307233214
0.440000000000000280,0.519968903876214084
0.441000000000000281,0.515162805308575833
0.442000000000000282,0.510342044890472968
0.443000000000000282,0.505500062639124836
0.444000000000000283,0.500630668238916332
0.445000000000000284,0.495728031980390615
0.446000000000000285,0.490786675712125864
0.447000000000000286,0.485801463814881651
0.448000000000000287,0.480767594207191784
0.449000000000000288,0.475680589390779285
0.450000000000000289,0.470536287543968701
0.451000000000000290,0.465330833670671684
0.452000000000000290,0.460060670812111550
0.453000000000000291,0.454722531328112800
0.454000000000000292,0.449313428254227154
0.455000000000000293,0.443830646740709600
0.456000000000000294,0.438271735578874833
0.457000000000000295,0.432634498820031799
0.458000000000000296,0.426916987491847699
0.459000000000000297,0.421117491416597989
0.460000000000000298,0.415234531135470486
0.461000000000000298,0.409266849942733935
0.462000000000000299,0.403213406033284927
0.463000000000000300,0.397073364766794445
0.464000000000000301,0.390846091051350764
0.465000000000000302,0.384531141849250968
0.466000000000000303,0.378128258807340134
0.467000000000000304,0.371637361013951451
0.468000000000000305,0.365058537884397849
0.469000000000000306,0.358392042176601477
0.470000000000000306,0.351638283138243857
0.471000000000000307,0.344797819786730853
0.472000000000000308,0.337871354322845485
0.473000000000000309,0.330859725678941341
0.474000000000000310,0.323763903202279379
0.475000000000000311,0.316584980473909372
0.476000000000000312,0.309324169263356485
0.477000000000000313,0.301982793619203826
0.478000000000000314,0.294562284095535420
0.479000000000000314,0.287064172113970006
0.480000000000000315,0.279490084461011257
0.481000000000000316,0.271841737920180460
0.482000000000000317,0.264120934038376221
0.483000000000000318,0.256329554025697237
0.484000000000000319,0.248469553787953379
0.485000000000000320,0.240542959090902009
0.486000000000000321,0.232551860855189668
0.487000000000000322,0.224498410580875774
0.488000000000000322,0.216384815900391547
0.489000000000000323,0.208213336258557369
0.490000000000000324,0.199986278718390087
0.491000000000000325,0.191705993891236409
0.492000000000000326,0.183374871989776478
0.493000000000000327,0.174995339002306183
0.494000000000000328,0.166569852986766770
0.495000000000000329,0.158100900482812945
0.496000000000000330,0.149590993040297132
0.497000000000000330,0.141042663862337603
0.498000000000000331,0.132458464561358402
0.499000000000000332,0.123840962026126641
0.500000000000000333,0.115192735398078366
0.501000000000000334,0.106516373155063862
0.502000000000000335,0.097814470300563935
0.503000000000000336,0.089089625656583543
0.504000000000000337,0.080344439258221212
0.505000000000000338,0.071581509848055891
0.506000000000000338,0.062803432468373263
0.507000000000000339,0.054012796149303544
0.508000000000000340,0.045212181690948018
0.509000000000000341,0.036404159537477901
0.510000000000000342,0.027591287741340165
0.511000000000000343,0.018776110015531457
0.512000000000000344,0.009961153872079794
0.513000000000000345,0.001148928844733552
0.514000000000000346,-0.007658075206081994
0.515000000000000346,-0.016457389707899058
0.516000000000000347,-0.025246568912411282
0.517000000000000348,-0.034023191355142215
0.518000000000000349,-0.042784861240423876
0.519000000000000350,-0.051529209753616259
0.520000000000000351,-0.060253896302371414
0.521000000000000352,-0.068956609688855974
0.522000000000000353,-0.077635069214651548
0.523000000000000353,-0.086287025720252333
0.524000000000000354,-0.094910262560849737
0.525000000000000355,-0.103502596520238369
0.526000000000000356,-0.112061878664509965
0.527000000000000357,-0.120585995137346094
0.528000000000000358,-0.129072867898519184
0.529000000000000359,-0.137520455407339315
0.530000000000000360,-0.145926753252642566
0.531000000000000361,-0.154289794730991553
0.532000000000000361,-0.162607651374655271
0.533000000000000362,-0.170878433430965482
0.534000000000000363,-0.179100290294553460
0.535000000000000364,-0.187271410894068457
0.536000000000000365,-0.195390024034772042
0.537000000000000366,-0.203454398698573680
0.538000000000000367,-0.211462844302862246
0.539000000000000368,-0.219413710919639765
0.540000000000000369,-0.227305389456253171
0.541000000000000369,-0.235136311799173381
0.542000000000000370,-0.242904950922067847
0.543000000000000371,-0.250609820959556306
0.544000000000000372,-0.258249477247880443
0.545000000000000373,-0.265822516333750647
0.546000000000000374,-0.273327575952615642
0.547000000000000375,-0.280763334977514767
0.548000000000000376,-0.288128513339746817
0.549000000000000377,-0.295421871922435519
0.550000000000000377,-0.302642212428179735
0.551000000000000378,-0.309788377221810851
0.552000000000000379,-0.316859249149405664
0.553000000000000380,-0.323853751334530315
0.554000000000000381,-0.330770846952761322
0.555000000000000382,-0.337609538985511604
0.556000000000000383,-0.344368869954035650
0.557000000000000384,-0.351047921634685511
0.558000000000000385,-0.357645814756205327
0.559000000000000385,-0.364161708680062257
0.560000000000000386,-0.370594801064636159
0.561000000000000387,-0.376944327514118549
0.562000000000000388,-0.383209561212951244
0.563000000000000389,-0.389389812546625580
0.564000000000000390,-0.395484428709584501
0.565000000000000391,-0.401492793301017226
0.566000000000000392,-0.407414325909259301
0.567000000000000393,-0.413248481685548952
0.568000000000000393,-0.418994750907769109
0.569000000000000394,-0.424652658534919070
0.570000000000000395,-0.430221763752929198
0.571000000000000396,-0.435701659512430894
0.572000000000000397,-0.441091972059171777
0.573000000000000398,-0.446392360457563697
0.574000000000000399,-0.451602516108037588
0.575000000000000400,-0.456722162258691278
0.576000000000000401,-0.461751053511786913
0.577000000000000401,-0.466688975325661892
0.578000000000000402,-0.471535743512482952
0.579000000000000403,-0.476291203732359836
0.580000000000000404,-0.480955230984336901
0.581000000000000405,-0.485527729094607285
0.582000000000000406,-0.490008630202502460
0.583000000000000407,-0.494397894244584912
0.584000000000000408,-0.498695508437305701
0.585000000000000409,-0.502901486758594807
0.586000000000000409,-0.507015869428746990
0.587000000000000410,-0.511038722391016664
0.588000000000000411,-0.514970136792179844
0.589000000000000412,-0.518810228463504886
0.590000000000000413,-0.522559137402344831
0.591000000000000414,-0.526217027254744618
0.592000000000000415,-0.529784084799307831
0.593000000000000416,-0.533260519432615432
0.594000000000000417,-0.536646562656470150
0.595000000000000417,-0.539942467567249396
0.596000000000000418,-0.543148508347539805
0.597000000000000419,-0.546264979760391567
0.598000000000000420,-0.549292196646312236
0.599000000000000421,-0.552230493423308766
0.600000000000000422,-0.555080223590113997
0.601000000000000423,-0.557841759232802104
0.602000000000000424,-0.560515490535026695
0.603000000000000425,-0.563101825292001479
0.604000000000000425,-0.565601188428386359
0.605000000000000426,-0.568014021520285017
0.606000000000000427,-0.570340782321481998
0.607000000000000428,-0.572581944293985345
0.608000000000000429,-0.574737996143175223
0.609000000000000430,-0.576809441357462704
0.610000000000000431,-0.578796797752784586
0.611000000000000432,-0.580700597021892806
0.612000000000000433,-0.582521384288600452
0.613000000000000433,-0.584259717667097611
0.614000000000000434,-0.585916167826374457
0.615000000000000435,-0.587491317559864834
0.616000000000000436,-0.588985761360362625
0.617000000000000437,-0.590400105000332243
