# Tobermorite-004_TANNIC-ARM-NEUTRAL-AC
# h[nm],U(h)[kJ/mol]
0.149999999999999994,169.217340692530854085
0.150999999999999995,166.128418431281659196
0.151999999999999996,163.455867716037687387
0.152999999999999997,160.915006398533023457
0.153999999999999998,158.386686514545772297
0.154999999999999999,155.837777109254773222
0.156000000000000000,153.274306770837597469
0.157000000000000001,150.715440158401150939
0.158000000000000002,148.180334612741745559
0.159000000000000002,145.682625206647600180
0.160000000000000003,143.229150348058624331
0.161000000000000004,140.820797506810635014
0.162000000000000005,138.454195966347612057
0.163000000000000006,136.123538001026872735
0.164000000000000007,133.822162849835478937
0.165000000000000008,131.543754239867411115
0.166000000000000009,129.283127757506917987
0.167000000000000010,127.036650941663580738
0.168000000000000010,124.802368487323860791
0.169000000000000011,122.579912212213429257
0.170000000000000012,120.370270268139307746
0.171000000000000013,118.175478801529862949
0.172000000000000014,115.998285820655183898
0.173000000000000015,113.841823728345161726
0.174000000000000016,111.709315077716127007
0.175000000000000017,109.603826166514778606
0.176000000000000018,107.528075241286359187
0.177000000000000018,105.484296227684765768
0.178000000000000019,103.474154801318462660
0.179000000000000020,101.498710974893100456
0.180000000000000021,99.558420905663567169
0.181000000000000022,97.653170045895564044
0.182000000000000023,95.782329825382049648
0.183000000000000024,93.944830565235122322
0.184000000000000025,92.139244111476443777
0.185000000000000026,90.363870616969407479
0.186000000000000026,88.616824894539945490
0.187000000000000027,86.896118743356439040
0.188000000000000028,85.199736567584821501
0.189000000000000029,83.525702431440663531
0.190000000000000030,81.872137412041269044
0.191000000000000031,80.237306715083832387
0.192000000000000032,78.619656509785485810
0.193000000000000033,77.017840825125773563
0.194000000000000034,75.430739138792603171
0.195000000000000034,73.857465494646064030
0.196000000000000035,72.297370115980726268
0.197000000000000036,70.750034552340395066
0.198000000000000037,69.215261418488097434
0.199000000000000038,67.693059765840828845
0.200000000000000039,66.183627078614250649
0.201000000000000040,64.687328817278711313
0.202000000000000041,63.204676347702545058
0.203000000000000042,61.736304001392589669
0.204000000000000042,60.282945915305433005
0.205000000000000043,58.845413202591238644
0.206000000000000044,57.424571911270376745
0.207000000000000045,56.021322138415598602
0.208000000000000046,54.636578584449750906
0.209000000000000047,53.271252756676823026
0.210000000000000048,51.926236963700375782
0.211000000000000049,50.602390183160636639
0.212000000000000050,49.300525834164147909
0.213000000000000050,48.021401442619264799
0.214000000000000051,46.765710151984357879
0.215000000000000052,45.534074003150848853
0.216000000000000053,44.327038884712145261
0.217000000000000054,43.145071038068486757
0.218000000000000055,41.988554990037421533
0.219000000000000056,40.857792778234497177
0.220000000000000057,39.753004330838280111
0.221000000000000058,38.674328861878578323
0.222000000000000058,37.621827145333035958
0.223000000000000059,36.595484535598792775
0.224000000000000060,35.595214607864782863
0.225000000000000061,34.620863299150514081
0.226000000000000062,33.672213438945462372
0.227000000000000063,32.748989567173325099
0.228000000000000064,31.850862946355711358
0.229000000000000065,30.977456684137216314
0.230000000000000066,30.128350891576712201
0.231000000000000066,29.303087811653551142
0.232000000000000067,28.501176861167532905
0.233000000000000068,27.722099537529153679
0.234000000000000069,26.965314149776851593
0.235000000000000070,26.230260340469293112
0.236000000000000071,25.516363371852971653
0.237000000000000072,24.823038155880198019
0.238000000000000073,24.149693013248700879
0.239000000000000073,23.495733151655606719
0.240000000000000074,22.860563857918407393
0.241000000000000075,22.243593402539694637
0.242000000000000076,21.644235658700193170
0.243000000000000077,21.061912440590521811
0.244000000000000078,20.496055568465244789
0.245000000000000079,19.946108669857746776
0.246000000000000080,19.411528728065629679
0.247000000000000081,18.891787390336617136
0.248000000000000081,18.386372049190022437
0.249000000000000082,17.894786711030601367
0.250000000000000111,17.416552666680765071
0.251000000000000112,16.951208978706254982
0.252000000000000113,16.498312800464223216
0.253000000000000114,16.057439541692460239
0.254000000000000115,15.628182895203664771
0.255000000000000115,15.210154738876582314
0.256000000000000116,14.802984926663636855
0.257000000000000117,14.406320981783801827
0.258000000000000118,14.019827704655716261
0.259000000000000119,13.643186707464497687
0.260000000000000120,13.276095886560392856
0.261000000000000121,12.918268843170650939
0.262000000000000122,12.569434262176940820
0.263000000000000123,12.229335257980155305
0.264000000000000123,11.897728695748075012
0.265000000000000124,11.574384495628505576
0.266000000000000125,11.259084926813617500
0.267000000000000126,10.951623897667770891
0.268000000000000127,10.651806247481971468
0.269000000000000128,10.359447044799049209
0.270000000000000129,10.074370896664229136
0.271000000000000130,9.796411272599058861
0.272000000000000131,9.525409846573509753
0.273000000000000131,9.261215859761486868
0.274000000000000132,9.003685506409620842
0.275000000000000133,8.752681344727477608
0.276000000000000134,8.508071734318795265
0.277000000000000135,8.269730301317910204
0.278000000000000136,8.037535432070553654
0.279000000000000137,7.811369795904532509
0.280000000000000138,7.591119897271004113
0.281000000000000139,7.376675657299623268
0.282000000000000139,7.167930024600343231
0.283000000000000140,6.964778614958426317
0.284000000000000141,6.767119379406818958
0.285000000000000142,6.574852300019108142
0.286000000000000143,6.387879112645728163
0.287000000000000144,6.206103055714741856
0.288000000000000145,6.029428644133669302
0.289000000000000146,5.857761467261335397
0.290000000000000147,5.691008009864125583
0.291000000000000147,5.529075494931468882
0.292000000000000148,5.371871747196257374
0.293000000000000149,5.219305076189052706
0.294000000000000150,5.071284177646733227
0.295000000000000151,4.927718052097190160
0.296000000000000152,4.788515939450429748
0.297000000000000153,4.653587268441379265
0.298000000000000154,4.522841619791138967
0.299000000000000155,4.396188701979370173
0.300000000000000155,4.273538338550992854
0.301000000000000156,4.154800465914750163
0.302000000000000157,4.039885140627761828
0.303000000000000158,3.928702555200167978
0.304000000000000159,3.821163061494882385
0.305000000000000160,3.717177200840650730
0.306000000000000161,3.616655740019978360
0.307000000000000162,3.519509712337937746
0.308000000000000163,3.425650463022576364
0.309000000000000163,3.334989698251924928
0.310000000000000164,3.247439537146852295
0.311000000000000165,3.162912566112750845
0.312000000000000166,3.081321894955612262
0.313000000000000167,3.002581214240203966
0.314000000000000168,2.926604853398682593
0.315000000000000169,2.853307839137654067
0.316000000000000170,2.782605953729754056
0.317000000000000171,2.714415792812926664
0.318000000000000171,2.648654822355725802
0.319000000000000172,2.585241434480840983
0.320000000000000173,2.524095001871335064
0.321000000000000174,2.465135930514890994
0.322000000000000175,2.408285710570219784
0.323000000000000176,2.353466965167553049
0.324000000000000177,2.300603496980914375
0.325000000000000178,2.249620332434424164
0.326000000000000179,2.200443763427492705
0.327000000000000179,2.153001386485366098
0.328000000000000180,2.107222139261326621
0.329000000000000181,2.063036334335044852
0.330000000000000182,2.020375690269238245
0.331000000000000183,1.979173359901856388
0.332000000000000184,1.939363955866096445
0.333000000000000185,1.900883573343494337
0.334000000000000186,1.863669810067404509
0.335000000000000187,1.827661783605354584
0.336000000000000187,1.792800145958296509
0.337000000000000188,1.759027095524119844
0.338000000000000189,1.726286386480204271
0.339000000000000190,1.694523335647074802
0.340000000000000191,1.663684826901471236
0.341000000000000192,1.633719313212075308
0.342000000000000193,1.604576816376206860
0.343000000000000194,1.576208924539211464
0.344000000000000195,1.548568787582020878
0.345000000000000195,1.521611110464341277
0.346000000000000196,1.495292144613541208
0.347000000000000197,1.469569677450452305
0.348000000000000198,1.444403020144462646
0.349000000000000199,1.419752993690889031
0.350000000000000200,1.395581913403655339
0.351000000000000201,1.371853571916236580
0.352000000000000202,1.348533220783248110
0.353000000000000203,1.325587550774125045
0.354000000000000203,1.302984670949286494
0.355000000000000204,1.280694086607867987
0.356000000000000205,1.258686676194336496
0.357000000000000206,1.236934667249554254
0.358000000000000207,1.215411611490097687
0.359000000000000208,1.194092359097200795
0.360000000000000209,1.172953032294602238
0.361000000000000210,1.151970998292330295
0.362000000000000210,1.131124841670758441
0.363000000000000211,1.110394336276956606
0.364000000000000212,1.089760416702666879
0.365000000000000213,1.069205149410650479
0.366000000000000214,1.048711703573480536
0.367000000000000215,1.028264321686225724
0.368000000000000216,1.007848290011610359
0.369000000000000217,0.987449908913881180
0.370000000000000218,0.967056463134533750
0.371000000000000218,0.946656192060815860
0.372000000000000219,0.926238260034928373
0.373000000000000220,0.905792726749482524
0.374000000000000221,0.885310517772178285
0.375000000000000222,0.864783395240175223
0.376000000000000223,0.844203928762009448
0.377000000000000224,0.823565466562816484
0.378000000000000225,0.802862106905972817
0.379000000000000226,0.782088669822256111
0.380000000000000226,0.761240669175077378
0.381000000000000227,0.740314285088623514
0.382000000000000228,0.719306336763227194
0.383000000000000229,0.698214255700547959
0.384000000000000230,0.677036059359159337
0.385000000000000231,0.655770325259093623
0.386000000000000232,0.634416165552351918
0.387000000000000233,0.612973202074417522
0.388000000000000234,0.591441541890348921
0.389000000000000234,0.569821753347196980
0.390000000000000235,0.548114842643284028
0.391000000000000236,0.526322230923066181
0.392000000000000237,0.504445731905274530
0.393000000000000238,0.482487530050379143
0.394000000000000239,0.460450159272459747
0.395000000000000240,0.438336482199147670
0.396000000000000241,0.416149669982323167
0.397000000000000242,0.393893182661128161
0.398000000000000242,0.371570750077841350
0.399000000000000243,0.349186353346286005
0.400000000000000244,0.326744206871485587
0.401000000000000245,0.304248740918382055
0.402000000000000246,0.281704584726934881
0.403000000000000247,0.259116550169786131
0.404000000000000248,0.236489615948365539
0.405000000000000249,0.213828912322400644
0.406000000000000250,0.191139706367463302
0.407000000000000250,0.168427387754411129
0.408000000000000251,0.145697455044261293
0.409000000000000252,0.122955502491481947
0.410000000000000253,0.100207207348334618
0.411000000000000254,0.077458317662458628
0.412000000000000255,0.054714640559659647
0.413000000000000256,0.031982031003337894
0.414000000000000257,0.009266381022088233
0.415000000000000258,-0.013426390603713489
0.416000000000000258,-0.036090348205244906
0.417000000000000259,-0.058719548647997402
0.418000000000000260,-0.081308050323329883
0.419000000000000261,-0.103849921718484201
0.420000000000000262,-0.126339249574747681
0.421000000000000263,-0.148770146643638246
0.422000000000000264,-0.171136759050824372
0.423000000000000265,-0.193433273277842849
0.424000000000000266,-0.215653922771493589
0.425000000000000266,-0.237792994190777346
0.426000000000000267,-0.259844833301394795
0.427000000000000268,-0.281803850527648669
0.428000000000000269,-0.303664526171601445
0.429000000000000270,-0.325421415309319284
0.430000000000000271,-0.347069152373881251
0.431000000000000272,-0.368602455434871246
0.432000000000000273,-0.390016130183825693
0.433000000000000274,-0.411305073635179208
0.434000000000000274,-0.432464277552009668
0.435000000000000275,-0.453488831605809217
0.436000000000000276,-0.474373926279433533
0.437000000000000277,-0.495114855522137520
0.438000000000000278,-0.515707019165576264
0.439000000000000279,-0.536145925109463684
0.440000000000000280,-0.556427191285404854
0.441000000000000281,-0.576546547407256305
0.442000000000000282,-0.596499836516389825
0.443000000000000282,-0.616283016329693067
0.444000000000000283,-0.635892160398446316
0.445000000000000284,-0.655323459085650262
0.446000000000000285,-0.674573220369425797
0.447000000000000286,-0.693637870479943297
0.448000000000000287,-0.712513954376983061
0.449000000000000288,-0.731198136075313476
0.450000000000000289,-0.749687198824682932
0.451000000000000290,-0.767978045151151756
0.452000000000000290,-0.786067696766368007
0.453000000000000291,-0.803953294351028469
0.454000000000000292,-0.821632097218852109
0.455000000000000293,-0.839101482866996151
0.456000000000000294,-0.856358946418805167
0.457000000000000295,-0.873402099964589063
0.458000000000000296,-0.890228671805914806
0.459000000000000297,-0.906836505608803245
0.460000000000000298,-0.923223559470998545
0.461000000000000298,-0.939387904908341342
0.462000000000000299,-0.955327725765141578
0.463000000000000300,-0.971041317053206954
0.464000000000000301,-0.986527083724161757
0.465000000000000302,-1.001783539379397681
0.466000000000000303,-1.016809304921950874
0.467000000000000304,-1.031603107154409171
0.468000000000000305,-1.046163777326788225
0.469000000000000306,-1.060490249638233351
0.470000000000000306,-1.074581559696250022
0.471000000000000307,-1.088436842936919557
0.472000000000000308,-1.102055333009624105
0.473000000000000309,-1.115436360129529181
0.474000000000000310,-1.128579349400910425
0.475000000000000311,-1.141483819114492482
0.476000000000000312,-1.154149379021577326
0.477000000000000313,-1.166575728587869509
0.478000000000000314,-1.178762655229549150
0.479000000000000314,-1.190710032534310514
0.480000000000000315,-1.202417818469653898
0.481000000000000316,-1.213886053580927493
0.482000000000000317,-1.225114859181241966
0.483000000000000318,-1.236104435535479329
0.484000000000000319,-1.246855060040392926
0.485000000000000320,-1.257367085402754991
0.486000000000000321,-1.267640937817433366
0.487000000000000322,-1.277677115147116904
0.488000000000000322,-1.287476185105361548
0.489000000000000323,-1.297038783444613319
0.490000000000000324,-1.306365612150643285
0.491000000000000325,-1.315457437644858008
0.492000000000000326,-1.324315088995809742
0.493000000000000327,-1.332939456141233325
0.494000000000000328,-1.341331488121743520
0.495000000000000329,-1.349492191327400947
0.496000000000000330,-1.357422627758116729
0.497000000000000330,-1.365123913299045588
0.498000000000000331,-1.372597216011701926
0.499000000000000332,-1.379843754441871351
0.500000000000000333,-1.386864795945032869
0.501000000000000334,-1.393661655030046465
0.502000000000000335,-1.400235691721866793
0.503000000000000336,-1.406588309943904047
0.504000000000000337,-1.412720955920652610
0.505000000000000338,-1.418635116601114632
0.506000000000000338,-1.424332318103576744
0.507000000000000339,-1.429814124182172463
0.508000000000000340,-1.435082134715625513
0.509000000000000341,-1.440137984218658573
0.510000000000000342,-1.444983340376263303
0.511000000000000343,-1.449619902601272381
0.512000000000000344,-1.454049400615406773
0.513000000000000345,-1.458273593054054462
0.514000000000000346,-1.462294266095053974
0.515000000000000346,-1.466113232111519560
0.516000000000000347,-1.469732328348928752
0.517000000000000348,-1.473153415626623941
0.518000000000000349,-1.476378377063673142
0.519000000000000350,-1.479409116829285775
0.520000000000000351,-1.482247558917715979
0.521000000000000352,-1.484895645947744924
0.522000000000000353,-1.487355337986617121
0.523000000000000353,-1.489628611398509106
0.524000000000000354,-1.491717457717402828
0.525000000000000355,-1.493623882544304227
0.526000000000000356,-1.495349904468697089
0.527000000000000357,-1.496897554014167353
0.528000000000000358,-1.498268872608019553
0.529000000000000359,-1.499465911574764609
0.530000000000000360,-1.500490731153302448
0.531000000000000361,-1.501345399537669101
0.532000000000000361,-1.502031991941116029
0.533000000000000362,-1.502552589683360473
0.534000000000000363,-1.502909279300765455
0.535000000000000364,-1.503104151679288680
0.536000000000000365,-1.503139301209891032
0.537000000000000366,-1.503016824966266984
0.538000000000000367,-1.502738821904523236
0.539000000000000368,-1.502307392084734516
0.540000000000000369,-1.501724635913902262
0.541000000000000369,-1.500992653410257782
0.542000000000000370,-1.500113543488464263
0.543000000000000371,-1.499089403265560394
0.544000000000000372,-1.497922327387311014
0.545000000000000373,-1.496614407374687206
0.546000000000000374,-1.495167730990186516
0.547000000000000375,-1.493584381623683344
0.548000000000000376,-1.491866437697565662
0.549000000000000377,-1.490015972090790619
0.550000000000000377,-1.488035051581603208
0.551000000000000378,-1.485925736308584044
0.552000000000000379,-1.483690079249769589
0.553000000000000380,-1.481330125719481972
0.554000000000000381,-1.478847912882569560
0.555000000000000382,-1.476245469285841549
0.556000000000000383,-1.473524814406208083
0.557000000000000384,-1.470687958215436630
0.558000000000000385,-1.467736900761020369
0.559000000000000385,-1.464673631762987593
0.560000000000000386,-1.461500130226288663
0.561000000000000387,-1.458218364068455175
0.562000000000000388,-1.454830289762238271
0.563000000000000389,-1.451337851992952288
0.564000000000000390,-1.447742983330148281
0.565000000000000391,-1.444047603913408029
0.566000000000000392,-1.440253621151891705
0.567000000000000393,-1.436362929437404068
0.568000000000000393,-1.432377409870616347
0.569000000000000394,-1.428298930000226008
0.570000000000000395,-1.424129343574740414
0.571000000000000396,-1.419870490306547328
0.572000000000000397,-1.415524195648112826
0.573000000000000398,-1.411092270579888064
0.574000000000000399,-1.406576511409764585
0.575000000000000400,-1.401978699583720012
0.576000000000000401,-1.397300601507429629
0.577000000000000401,-1.392543968378605168
0.578000000000000402,-1.387710536029717279
0.579000000000000403,-1.382802024780885208
0.580000000000000404,-1.377820139302742941
0.581000000000000405,-1.372766568488873684
0.582000000000000406,-1.367642985337746087
0.583000000000000407,-1.362451046843736746
0.584000000000000408,-1.357192393897142413
0.585000000000000409,-1.351868651192833282
0.586000000000000409,-1.346481427147368404
0.587000000000000410,-1.341032313824352951
0.588000000000000411,-1.335522886867738901
0.589000000000000412,-1.329954705442961682
0.590000000000000413,-1.324329312185556162
0.591000000000000414,-1.318648233157137639
0.592000000000000415,-1.312912977808521564
0.593000000000000416,-1.307125038949705109
0.594000000000000417,-1.301285892726573135
0.595000000000000417,-1.295396998604151362
0.596000000000000418,-1.289459799356062364
0.597000000000000419,-1.283475721060213015
0.598000000000000420,-1.277446173100290405
0.599000000000000421,-1.271372548173073991
0.600000000000000422,-1.265256222301245348
0.601000000000000423,-1.259098554851576512
0.602000000000000424,-1.252900888558320158
0.603000000000000425,-1.246664549551627754
0.604000000000000425,-1.240390847390773876
0.605000000000000426,-1.234081075102099856
0.606000000000000427,-1.227736509221501127
0.607000000000000428,-1.221358409841170722
0.608000000000000429,-1.214948020660709060
0.609000000000000430,-1.208506569042113288
0.610000000000000431,-1.202035266068814501
0.611000000000000432,-1.195535306608383364
0.612000000000000433,-1.189007869378869486
0.613000000000000433,-1.182454117018646222
0.614000000000000434,-1.175875196159566594
0.615000000000000435,-1.169272237503313328
