# Tobermorite-004_BSAI20
# h[nm],U(h)[kJ/mol]
0.149999999999999994,151.153342314772942245
0.150999999999999995,148.581952471821125528
0.151999999999999996,146.698041931381425229
0.152999999999999997,144.864070449499138249
0.153999999999999998,142.889467792222063736
0.154999999999999999,140.778903598857198176
0.156000000000000000,138.601110763484797417
0.157000000000000001,136.427257003733132024
0.158000000000000002,134.307460308033938645
0.159000000000000002,132.266658135757467107
0.160000000000000003,130.309015513658039254
0.161000000000000004,128.424988020568946467
0.162000000000000005,126.598116365972288122
0.163000000000000006,124.810336937439757321
0.164000000000000007,123.045520705441873588
0.165000000000000008,121.291409581874376045
0.166000000000000009,119.540302286714336333
0.167000000000000010,117.788874930692145426
0.168000000000000010,116.037480519438005899
0.169000000000000011,114.289200873126532088
0.170000000000000012,112.548848714218067357
0.171000000000000013,110.822049375316211695
0.172000000000000014,109.114475909982090229
0.173000000000000015,107.431269417357995621
0.174000000000000016,105.776647032237718804
0.175000000000000017,104.153681248682687510
0.176000000000000018,102.564223742157338393
0.177000000000000018,101.008942454378967568
0.178000000000000019,99.487440524226599337
0.179000000000000020,97.998428161688934779
0.180000000000000021,96.539922597297731954
0.181000000000000022,95.109455939278063852
0.182000000000000023,93.704275541120580328
0.183000000000000024,92.321525940066266003
0.184000000000000025,90.958405349206671531
0.185000000000000026,89.612292967062700200
0.186000000000000026,88.280845985112776475
0.187000000000000027,86.962067156201854345
0.188000000000000028,85.654345198049512078
0.189000000000000029,84.356471225977600170
0.190000000000000030,83.067634923018971449
0.191000000000000031,81.787404347519355952
0.192000000000000032,80.515693225563182978
0.193000000000000033,79.252719346336704120
0.194000000000000034,77.998957331007659377
0.195000000000000034,76.755088627625895015
0.196000000000000035,75.521951133924247301
0.197000000000000036,74.300490395827267776
0.198000000000000037,73.091713893306021532
0.199000000000000038,71.896649521733365873
0.200000000000000039,70.716309015479552613
0.201000000000000040,69.551656746204670867
0.202000000000000041,68.403584062882174521
0.203000000000000042,67.272889123250621424
0.204000000000000042,66.160261994583137835
0.205000000000000043,65.066274671640570659
0.206000000000000044,63.991375566961799848
0.207000000000000045,62.935887968433576134
0.208000000000000046,61.900011926483259117
0.209000000000000047,60.883829023518401868
0.210000000000000048,59.887309486935215830
0.211000000000000049,58.910321130066485296
0.212000000000000050,57.952639639191161791
0.213000000000000050,57.013959766009250529
0.214000000000000051,56.093907031064873081
0.215000000000000052,55.192049592199488472
0.216000000000000053,54.307909981367856744
0.217000000000000054,53.440976461554384969
0.218000000000000055,52.590713801940523808
0.219000000000000056,51.756573313034039074
0.220000000000000057,50.938002023578007993
0.221000000000000058,50.134450917332742392
0.222000000000000058,49.345382180057598021
0.223000000000000059,48.570275435162535871
0.224000000000000060,47.808632970607213508
0.225000000000000061,47.059983979851452318
0.226000000000000062,46.323887856220871129
0.227000000000000063,45.599936593212774483
0.228000000000000064,44.887756353321968561
0.229000000000000065,44.187008275228798482
0.230000000000000066,43.497388593980232940
0.231000000000000066,42.818628151421293637
0.232000000000000067,42.150491374907076647
0.233000000000000068,41.492774801531375317
0.234000000000000069,40.845305223017859930
0.235000000000000070,40.207937523284996928
0.236000000000000071,39.580552276740029072
0.237000000000000072,38.963053170786338342
0.238000000000000073,38.355364311020892387
0.239000000000000073,37.757427462313778221
0.240000000000000074,37.169199273532470329
0.241000000000000075,36.590648528219972491
0.242000000000000076,36.021753458150541860
0.243000000000000077,35.462499151450849411
0.244000000000000078,34.912875081952144285
0.245000000000000079,34.372872781677358489
0.246000000000000080,33.842483673906414765
0.247000000000000081,33.321697080124955903
0.248000000000000081,32.810498410367337385
0.249000000000000082,32.308867543018173762
0.250000000000000111,31.816777397041494879
0.251000000000000112,31.334192696858234939
0.252000000000000113,30.861068927680360474
0.253000000000000114,30.397351477023711652
0.254000000000000115,29.942974956342254700
0.255000000000000115,29.497862695239206232
0.256000000000000116,29.061926399493025031
0.257000000000000117,28.635065963170870162
0.258000000000000118,28.217169424365856401
0.259000000000000119,27.808113053567097950
0.260000000000000120,27.407761563331678900
0.261000000000000121,27.015968427756718029
0.262000000000000122,26.632576300225117905
0.263000000000000123,26.257417518004597667
0.264000000000000123,25.890314682496438081
0.265000000000000124,25.531081304242455587
0.266000000000000125,25.179522502189939814
0.267000000000000126,24.835435747171096921
0.268000000000000127,24.498611640061433548
0.269000000000000128,24.168834715630882926
0.270000000000000129,23.845884263678652104
0.271000000000000130,23.529535159640506237
0.272000000000000131,23.219558697465846109
0.273000000000000131,22.915723418173676862
0.274000000000000132,22.617795928105998371
0.275000000000000133,22.325541701496838698
0.276000000000000134,22.038725862561932445
0.277000000000000135,21.757113942883314905
0.278000000000000136,21.480472610410309642
0.279000000000000137,21.208570366922931072
0.280000000000000138,20.941178211302023726
0.281000000000000139,20.678070266420959911
0.282000000000000139,20.419024367916275509
0.283000000000000140,20.163822613507303316
0.284000000000000141,19.912251871918389412
0.285000000000000142,19.664104250810996888
0.286000000000000143,19.419177523457257450
0.287000000000000144,19.177275514182287708
0.288000000000000145,18.938208442869715498
0.289000000000000146,18.701793229065501123
0.290000000000000147,18.467853756428390000
0.291000000000000147,18.236221098464849177
0.292000000000000148,18.006733706650511095
0.293000000000000149,17.779237562182899524
0.294000000000000150,17.553586292730788188
0.295000000000000151,17.329641255646286879
0.296000000000000152,17.107271589188151495
0.297000000000000153,16.886354233369218036
0.298000000000000154,16.666773922090083460
0.299000000000000155,16.448423148254526893
0.300000000000000155,16.231202103583193264
0.301000000000000156,16.015018594850207734
0.302000000000000157,15.799787938264165277
0.303000000000000158,15.585432833702801858
0.304000000000000159,15.371883220488381738
0.305000000000000160,15.159076116361683617
0.306000000000000161,14.946955441275871834
0.307000000000000162,14.735471827589233129
0.308000000000000163,14.524582418187993227
0.309000000000000163,14.314250654018909614
0.310000000000000164,14.104446052455401173
0.311000000000000165,13.895143977862897344
0.312000000000000166,13.686325405668110733
0.313000000000000167,13.477976681174705931
0.314000000000000168,13.270089274304030624
0.315000000000000169,13.062659531375322430
0.316000000000000170,12.855688424975173945
0.317000000000000171,12.649181302901338242
0.318000000000000171,12.443147637102333292
0.319000000000000172,12.237600773470308724
0.320000000000000173,12.032557683283119587
0.321000000000000174,11.828038717029967231
0.322000000000000175,11.624067361295791656
0.323000000000000176,11.420669999321669152
0.324000000000000177,11.217875675802293500
0.325000000000000178,11.015715866427738590
0.326000000000000179,10.814224252624365263
0.327000000000000179,10.613436501899935038
0.328000000000000180,10.413390054150076125
0.329000000000000181,10.214123914237720925
0.330000000000000182,10.015678451113641856
0.331000000000000183,9.818095203705185625
0.332000000000000184,9.621416693761359440
0.333000000000000185,9.425686245805811936
0.334000000000000186,9.230947814314641064
0.335000000000000187,9.037245818203910375
0.336000000000000187,8.844624982681184022
0.337000000000000188,8.653130188487851981
0.338000000000000189,8.462806328532375133
0.339000000000000190,8.273698171890782049
0.340000000000000191,8.085850235128592800
0.341000000000000192,7.899306660877750019
0.342000000000000193,7.714111103583690010
0.343000000000000194,7.530306622320660281
0.344000000000000195,7.347935580558396573
0.345000000000000195,7.167039552749005615
0.346000000000000196,6.987659237591230976
0.347000000000000197,6.809834377817955087
0.348000000000000198,6.633603686343621852
0.349000000000000199,6.459004778599711116
0.350000000000000200,6.286074110879510179
0.351000000000000201,6.114846924507393311
0.352000000000000202,5.945357195642922754
0.353000000000000203,5.777637590526170541
0.354000000000000203,5.611719425967539365
0.355000000000000204,5.447632634883446734
0.356000000000000205,5.285405736677648569
0.357000000000000206,5.125065812267269649
0.358000000000000207,4.966638483553101224
0.359000000000000208,4.810147897133888684
0.360000000000000209,4.655616712065734575
0.361000000000000210,4.503066091469821508
0.362000000000000210,4.352515697793312377
0.363000000000000211,4.203983691531492539
0.364000000000000212,4.057486733221936426
0.365000000000000213,3.913039988525020441
0.366000000000000214,3.770657136208757976
0.367000000000000215,3.630350378859991345
0.368000000000000216,3.492130456147932271
0.369000000000000217,3.356006660470904901
0.370000000000000218,3.221986854821217605
0.371000000000000218,3.090077492708283025
0.372000000000000219,2.960283639984611082
0.373000000000000220,2.832608998424411162
0.374000000000000221,2.707055930909604058
0.375000000000000222,2.583625488083076682
0.376000000000000223,2.462317436333900211
0.377000000000000224,2.343130286984760779
0.378000000000000225,2.226061326556604048
0.379000000000000226,2.111106647990854235
0.380000000000000226,1.998261182714303086
0.381000000000000227,1.887518733437241192
0.382000000000000228,1.778872007579888503
0.383000000000000229,1.672312651227439106
0.384000000000000230,1.567831283518679175
0.385000000000000231,1.465417531377831484
0.386000000000000232,1.365060064504162840
0.387000000000000233,1.266746630538083007
0.388000000000000234,1.170464090327287821
0.389000000000000234,1.076198453220504891
0.390000000000000235,0.983934912320840960
0.391000000000000236,0.893657879634785601
0.392000000000000237,0.805351021056823546
0.393000000000000238,0.718997291133614769
0.394000000000000239,0.634578967555393003
0.395000000000000240,0.552077685325806700
0.396000000000000241,0.471474470565012460
0.397000000000000242,0.392749773904189081
0.398000000000000242,0.315883503432803636
0.399000000000000243,0.240855057163313097
0.400000000000000244,0.167643354980651527
0.401000000000000245,0.096226870047083857
0.402000000000000246,0.026583659635625968
0.403000000000000247,-0.041308604632252610
0.404000000000000248,-0.107472607166120324
0.405000000000000249,-0.171931359422568597
0.406000000000000250,-0.234708171574527752
0.407000000000000250,-0.295826624848669950
0.408000000000000251,-0.355310544543514850
0.409000000000000252,-0.413183973738831423
0.410000000000000253,-0.469471147705179614
0.411000000000000254,-0.524196469020524414
0.412000000000000255,-0.577384483399199455
0.413000000000000256,-0.629059856237072168
0.414000000000000257,-0.679247349874929629
0.415000000000000258,-0.727971801581149602
0.416000000000000258,-0.775258102252929238
0.417000000000000259,-0.821131175834504790
0.418000000000000260,-0.865615959449361538
0.419000000000000261,-0.908737384242564561
0.420000000000000262,-0.950520356928095111
0.421000000000000263,-0.990989742035478072
0.422000000000000264,-1.030170344848687192
0.423000000000000265,-1.068086895029976002
0.424000000000000266,-1.104764030920215800
0.425000000000000266,-1.140226284506737242
0.426000000000000267,-1.174498067049163597
0.427000000000000268,-1.207603655353005623
0.428000000000000269,-1.239567178680352821
0.429000000000000270,-1.270412606286593471
0.430000000000000271,-1.300163735571533197
0.431000000000000272,-1.328844180833113953
0.432000000000000273,-1.356477362611404391
0.433000000000000274,-1.383086497610453991
0.434000000000000274,-1.408694589185221613
0.435000000000000275,-1.433324418380606868
0.436000000000000276,-1.456998535509553161
0.437000000000000277,-1.479739252256878190
0.438000000000000278,-1.501568634295524785
0.439000000000000279,-1.522508494401831003
0.440000000000000280,-1.542580386056266795
0.441000000000000281,-1.561805597516184863
0.442000000000000282,-1.580205146347129386
0.443000000000000282,-1.597799774399117911
0.444000000000000283,-1.614609943214598387
0.445000000000000284,-1.630655829854632755
0.446000000000000285,-1.645957323130052385
0.447000000000000286,-1.660534020224488261
0.448000000000000287,-1.674405223696064926
0.449000000000000288,-1.687589938845019288
0.450000000000000289,-1.700106871434304834
0.451000000000000290,-1.711974425750645512
0.452000000000000290,-1.723210702993608123
0.453000000000000291,-1.733833499980318660
0.454000000000000292,-1.743860308153848182
0.455000000000000293,-1.753308312883294917
0.456000000000000294,-1.762194393043920781
0.457000000000000295,-1.770535120865871503
0.458000000000000296,-1.778346762040158735
0.459000000000000297,-1.785645276070963572
0.460000000000000298,-1.792446316863334221
0.461000000000000298,-1.798765233535803976
0.462000000000000299,-1.804617071447503163
0.463000000000000300,-1.810016573429647835
0.464000000000000301,-1.814978181211590824
0.465000000000000302,-1.819516037031719380
0.466000000000000303,-1.823643985423816671
0.467000000000000304,-1.827375575169784216
0.468000000000000305,-1.830724061409680248
0.469000000000000306,-1.833702407900494880
0.470000000000000306,-1.836323289415222604
0.471000000000000307,-1.838599094273895673
0.472000000000000308,-1.840541926998761735
0.473000000000000309,-1.842163611085800401
0.474000000000000310,-1.843475691885040124
0.475000000000000311,-1.844489439582471579
0.476000000000000312,-1.845215852276469892
0.477000000000000313,-1.845665659141938253
0.478000000000000314,-1.845849323675509579
0.479000000000000314,-1.845777047015532357
0.480000000000000315,-1.845458771330578784
0.481000000000000316,-1.844904183270600795
0.482000000000000317,-1.844122717474948825
0.483000000000000318,-1.843123560131762151
0.484000000000000319,-1.841915652583367535
0.485000000000000320,-1.840507694972560726
0.486000000000000321,-1.838908149924877167
0.487000000000000322,-1.837125246262064193
0.488000000000000322,-1.835166982742165498
0.489000000000000323,-1.833041131821967706
0.490000000000000324,-1.830755243437475643
0.491000000000000325,-1.828316648798485655
0.492000000000000326,-1.825732464193347893
0.493000000000000327,-1.823009594800319544
0.494000000000000328,-1.820154738501867486
0.495000000000000329,-1.817174389698710701
0.496000000000000330,-1.814074843120218272
0.497000000000000330,-1.810862197628328785
0.498000000000000331,-1.807542360011808569
0.499000000000000332,-1.804121048768366098
0.500000000000000333,-1.800603797871807021
0.501000000000000334,-1.796995960521750701
0.502000000000000335,-1.793302712873661164
0.503000000000000336,-1.789529057746817475
0.504000000000000337,-1.785679828308221584
0.505000000000000338,-1.781759691730359974
0.506000000000000338,-1.777773152821010338
0.507000000000000339,-1.773724557623301168
0.508000000000000340,-1.769618096984314493
0.509000000000000341,-1.765457810090814705
0.510000000000000342,-1.761247587970468320
0.511000000000000343,-1.756991176957379164
0.512000000000000344,-1.752692182120523245
0.513000000000000345,-1.748354070654012160
0.514000000000000346,-1.743980175228109220
0.515000000000000346,-1.739573697299904298
0.516000000000000347,-1.735137710382828713
0.517000000000000348,-1.730675163274155492
0.518000000000000349,-1.726188883239653915
0.519000000000000350,-1.721681579154831443
0.520000000000000351,-1.717155844601993664
0.521000000000000352,-1.712614160922742546
0.522000000000000353,-1.708058900225241317
0.523000000000000353,-1.703492328345979079
0.524000000000000354,-1.698916607765569964
0.525000000000000355,-1.694333800478321717
0.526000000000000356,-1.689745870815275719
0.527000000000000357,-1.685154688220579899
0.528000000000000358,-1.680562029980959604
0.529000000000000359,-1.675969583908270888
0.530000000000000360,-1.671378950974953925
0.531000000000000361,-1.666791647902500229
0.532000000000000361,-1.662209109702854848
0.533000000000000362,-1.657632692172856581
0.534000000000000363,-1.653063674341801015
0.535000000000000364,-1.648503260872288489
0.536000000000000365,-1.643952584414453355
0.537000000000000366,-1.639412707913876277
0.538000000000000367,-1.634884626873268632
0.539000000000000368,-1.630369271568355982
0.540000000000000369,-1.625867509218059892
0.541000000000000369,-1.621380146109468567
0.542000000000000370,-1.616907929677732669
0.543000000000000371,-1.612451550541426304
0.544000000000000372,-1.608011644493616554
0.545000000000000373,-1.603588794449097410
0.546000000000000374,-1.599183532348182890
0.547000000000000375,-1.594796341017470365
0.548000000000000376,-1.590427655988066125
0.549000000000000377,-1.586077867271671105
0.550000000000000377,-1.581747321095072545
0.551000000000000378,-1.577436321593421509
0.552000000000000379,-1.573145132462935303
0.553000000000000380,-1.568873978573387840
0.554000000000000381,-1.564623047540982803
0.555000000000000382,-1.560392491262171166
0.556000000000000383,-1.556182427408810076
0.557000000000000384,-1.551992940885381644
0.558000000000000385,-1.547824085248638459
0.559000000000000385,-1.543675884090372152
0.560000000000000386,-1.539548332383791518
0.561000000000000387,-1.535441397794060414
0.562000000000000388,-1.531355021953582973
0.563000000000000389,-1.527289121702624541
0.564000000000000390,-1.523243590295771499
0.565000000000000391,-1.519218298574859016
0.566000000000000392,-1.515213096108892321
0.567000000000000393,-1.511227812301600748
0.568000000000000393,-1.507262257467075761
0.569000000000000394,-1.503316223874182622
0.570000000000000395,-1.499389486760271950
0.571000000000000396,-1.495481805314691659
0.572000000000000397,-1.491592923632805157
0.573000000000000398,-1.487722571640918812
0.574000000000000399,-1.483870465992818799
0.575000000000000400,-1.480036310938374289
0.576000000000000401,-1.476219799164789404
0.577000000000000401,-1.472420612611122781
0.578000000000000402,-1.468638423256492409
0.579000000000000403,-1.464872893882593230
0.580000000000000404,-1.461123678811101723
0.581000000000000405,-1.457390424616354707
0.582000000000000406,-1.453672770814009585
0.583000000000000407,-1.449970350526058827
0.584000000000000408,-1.446282791122813549
0.585000000000000409,-1.442609714842330693
0.586000000000000409,-1.438950739387759858
0.587000000000000410,-1.435305478503211329
0.588000000000000411,-1.431673542528487664
0.589000000000000412,-1.428054538933339668
0.590000000000000413,-1.424448072831574486
0.591000000000000414,-1.420853747475592233
0.592000000000000415,-1.417271164731802147
0.593000000000000416,-1.413699925537335922
0.594000000000000417,-1.410139630338556938
0.595000000000000417,-1.406589879511866092
0.596000000000000418,-1.403050273767080913
0.597000000000000419,-1.399520414534056512
0.598000000000000420,-1.395999904332751340
0.599000000000000421,-1.392488347127355031
0.600000000000000422,-1.388985348664758757
0.601000000000000423,-1.385490516797827532
0.602000000000000424,-1.382003461793918309
0.603000000000000425,-1.378523796628976505
0.604000000000000425,-1.375051137267615298
0.605000000000000426,-1.371585102929596456
0.606000000000000427,-1.368125316343085318
0.607000000000000428,-1.364671403984943243
0.608000000000000429,-1.361222996308646627
0.609000000000000430,-1.357779727959908866
0.610000000000000431,-1.354341237980605905
0.611000000000000432,-1.350907170001182767
0.612000000000000433,-1.347477172421946090
0.613000000000000433,-1.344050898583578402
0.614000000000000434,-1.340628006927173432
