# Tobermorite-004_BSAIV2
# h[nm],U(h)[kJ/mol]
0.149999999999999994,153.703402327795572546
0.150999999999999995,151.127601505715233543
0.151999999999999996,148.962569548231158478
0.152999999999999997,146.864464904179271798
0.153999999999999998,144.728947374225242584
0.154999999999999999,142.554478547668367128
0.156000000000000000,140.372362846851501672
0.157000000000000001,138.214697266587052127
0.158000000000000002,136.102711755988508457
0.159000000000000002,134.045179990631282863
0.160000000000000003,132.041072770091858501
0.161000000000000004,130.083362864095022360
0.162000000000000005,128.162504299715152456
0.163000000000000006,126.269019251002077908
0.164000000000000007,124.395104901925606100
0.165000000000000008,122.535396468520232816
0.166000000000000009,120.687101818568223166
0.167000000000000010,118.849726151920464190
0.168000000000000010,117.024572824813304806
0.169000000000000011,115.214161937638621680
0.170000000000000012,113.421664188608090740
0.171000000000000013,111.650409580627780315
0.172000000000000014,109.903500902392949001
0.173000000000000015,108.183540465977642953
0.174000000000000016,106.492464346850368884
0.175000000000000017,104.831469935835940532
0.176000000000000018,103.201018544838461821
0.177000000000000018,101.600893825186531672
0.178000000000000019,100.030297795184552001
0.179000000000000020,98.487968501184283809
0.180000000000000021,96.972306139417213444
0.181000000000000022,95.481497413307977240
0.182000000000000023,94.013630710844097393
0.183000000000000024,92.566797190755863767
0.184000000000000025,91.139174980641570301
0.185000000000000026,89.729095389452709242
0.186000000000000026,88.335091334537054308
0.187000000000000027,86.955929116986823146
0.188000000000000028,85.590625298116620456
0.189000000000000029,84.238450788844076556
0.190000000000000030,82.898924416218903843
0.191000000000000031,81.571798226990750891
0.192000000000000032,80.257036670728012950
0.193000000000000033,78.954791611739764789
0.194000000000000034,77.665374880326581319
0.195000000000000034,76.389229813702428373
0.196000000000000035,75.126902973553086440
0.197000000000000036,73.879016973892589704
0.198000000000000037,72.646245118712784006
0.199000000000000038,71.429288339546189945
0.200000000000000039,70.228854741430069453
0.201000000000000040,69.045641912757346859
0.202000000000000041,67.880322029503346926
0.203000000000000042,66.733529685644100482
0.204000000000000042,65.605852306858622569
0.205000000000000043,64.497822951082582676
0.206000000000000044,63.409915264221147879
0.207000000000000045,62.342540339425113416
0.208000000000000046,61.296045220986833613
0.209000000000000047,60.270712796537317502
0.210000000000000048,59.266762831489074870
0.211000000000000049,58.284353915522103762
0.212000000000000050,57.323586110584663800
0.213000000000000050,56.384504111900049850
0.214000000000000051,55.467100756610271617
0.215000000000000052,54.571320737977927706
0.216000000000000053,53.697064405751497418
0.217000000000000054,52.844191554808674027
0.218000000000000055,52.012525124131492760
0.219000000000000056,51.201854746269624741
0.220000000000000057,50.411940103569271798
0.221000000000000058,49.642514061530718550
0.222000000000000058,48.893285561721931742
0.223000000000000059,48.163942266797604930
0.224000000000000060,47.454152958461918388
0.225000000000000061,46.763569695814545923
0.226000000000000062,46.091829746591493233
0.227000000000000063,45.438557307523922191
0.228000000000000064,44.803365032561899284
0.229000000000000065,44.185855389210850319
0.230000000000000066,43.585621863871267578
0.231000000000000066,43.002250037004330352
0.232000000000000067,42.435318548309126641
0.233000000000000068,41.884399971015490394
0.234000000000000069,41.349061612983263103
0.235000000000000070,40.828866260653228437
0.236000000000000071,40.323372880100265547
0.237000000000000072,39.832137287571001139
0.238000000000000073,39.354712800003611051
0.239000000000000073,38.890650874178973595
0.240000000000000074,38.439501741376545851
0.241000000000000075,38.000815042737926319
0.242000000000000076,37.574140468997171638
0.243000000000000077,37.159028406834679004
0.244000000000000078,36.755030592862063088
0.245000000000000079,36.361700775150950449
0.246000000000000080,35.978595381281358812
0.247000000000000081,35.605274191101479175
0.248000000000000081,35.241301011752611316
0.249000000000000082,34.886244352016689163
0.250000000000000111,34.539678092674982679
0.251000000000000112,34.201182149318029246
0.252000000000000113,33.870343123905840343
0.253000000000000114,33.546754941332395106
0.254000000000000115,33.230019467288016699
0.255000000000000115,32.919747103825315548
0.256000000000000116,32.615557359208771970
0.257000000000000117,32.317079388852597788
0.258000000000000118,32.023952504418815579
0.259000000000000119,31.735826648444476206
0.260000000000000120,31.452362832189230346
0.261000000000000121,31.173233534731004113
0.262000000000000122,30.898123061683300250
0.263000000000000123,30.626727862255979318
0.264000000000000123,30.358756803726073770
0.265000000000000124,30.093931402723598012
0.266000000000000125,29.831986013062909535
0.267000000000000126,29.572667970162303419
0.268000000000000127,29.315737692388164959
0.269000000000000128,29.060968739935077565
0.270000000000000129,28.808147832106932640
0.271000000000000130,28.557074824095444399
0.272000000000000131,28.307562644561578225
0.273000000000000131,28.059437195510675167
0.274000000000000132,27.812537216115089223
0.275000000000000133,27.566714112277480808
0.276000000000000134,27.321831753845380319
0.277000000000000135,27.077766241484020782
0.278000000000000136,26.834405645289130860
0.279000000000000137,26.591649717276965248
0.280000000000000138,26.349409579926639680
0.281000000000000139,26.107607392968571247
0.282000000000000139,25.866176000617400632
0.283000000000000140,25.625058561436226512
0.284000000000000141,25.384208162994735147
0.285000000000000142,25.143587423446970064
0.286000000000000143,24.903168082106851955
0.287000000000000144,24.662930581042701306
0.288000000000000145,24.422863639645875367
0.289000000000000146,24.182963824056258773
0.290000000000000147,23.943235113247876455
0.291000000000000147,23.703688463494213323
0.292000000000000148,23.464341372844167211
0.293000000000000149,23.225217447148839511
0.294000000000000150,22.986345969085082430
0.295000000000000151,22.747761471527169874
0.296000000000000152,22.509503316521747962
0.297000000000000153,22.271615281025631816
0.298000000000000154,22.034145150470319408
0.299000000000000155,21.797144321123031574
0.300000000000000155,21.560667412121269138
0.301000000000000156,21.324771887967237660
0.302000000000000157,21.089517692180002939
0.303000000000000158,20.854966892717719418
0.304000000000000159,20.621183339699591386
0.305000000000000160,20.388232335877617629
0.306000000000000161,20.156180320232397918
0.307000000000000162,19.925094564994214608
0.308000000000000163,19.695042886322347897
0.309000000000000163,19.466093368809890052
0.310000000000000164,19.238314103920199472
0.311000000000000165,19.011772942403439401
0.312000000000000166,18.786537260687840245
0.313000000000000167,18.562673741190359067
0.314000000000000168,18.340248166444901301
0.315000000000000169,18.119325226903725934
0.316000000000000170,17.899968342228543605
0.317000000000000171,17.682239495851980848
0.318000000000000171,17.466199082558162559
0.319000000000000172,17.251905768801702123
0.320000000000000173,17.039416365459004510
0.321000000000000174,16.828785712682545750
0.322000000000000175,16.620066576509014311
0.323000000000000176,16.413309556854873250
0.324000000000000177,16.208563006518318161
0.325000000000000178,16.005872960794526705
0.326000000000000179,15.805283077300884997
0.327000000000000179,15.606834585601836451
0.328000000000000180,15.410566246216749420
0.329000000000000181,15.216514318591018551
0.330000000000000182,15.024712537608374774
0.331000000000000183,14.835192098222275803
0.332000000000000184,14.647981647785453418
0.333000000000000185,14.463107285659386747
0.334000000000000186,14.280592569689375182
0.335000000000000187,14.100458529136020047
0.336000000000000187,13.922723683659985028
0.337000000000000188,13.747404067964243524
0.338000000000000189,13.574513261705675404
0.339000000000000190,13.404062424296778744
0.340000000000000191,13.236060334227648383
0.341000000000000192,13.070513432548192867
0.342000000000000193,12.907425870161063131
0.343000000000000194,12.746799558586568324
0.344000000000000195,12.588634223872343654
0.345000000000000195,12.432927463331390427
0.346000000000000196,12.279674804804544763
0.347000000000000197,12.128869768154693531
0.348000000000000198,11.980503928712332495
0.349000000000000199,11.834566982403957880
0.350000000000000200,11.691046812306812086
0.351000000000000201,11.549929556385361451
0.352000000000000202,11.411199676177115947
0.353000000000000203,11.274840026206719656
0.354000000000000203,11.140831923919277457
0.355000000000000204,11.009155219935202297
0.356000000000000205,10.879788368440168611
0.357000000000000206,10.752708497534687382
0.358000000000000207,10.627891479379000472
0.359000000000000208,10.505311999979159765
0.360000000000000209,10.384943628470614030
0.361000000000000210,10.266758885765794318
0.362000000000000210,10.150729312441605146
0.363000000000000211,10.036825535752358363
0.364000000000000212,9.925017335662706941
0.365000000000000213,9.815273709803971514
0.366000000000000214,9.707562937265581837
0.367000000000000215,9.601852641141718436
0.368000000000000216,9.498109849760769663
0.369000000000000217,9.396301056533030049
0.370000000000000218,9.296392278358908356
0.371000000000000218,9.198349112547038686
0.372000000000000219,9.102136792198042059
0.373000000000000220,9.007720240015890667
0.374000000000000221,8.915064120514937684
0.375000000000000222,8.824132890596001033
0.376000000000000223,8.734890848470339364
0.377000000000000224,8.647302180915373171
0.378000000000000225,8.561331008850673996
0.379000000000000226,8.476941431227258406
0.380000000000000226,8.394097567227225554
0.381000000000000227,8.312763596774969344
0.382000000000000228,8.232903799364581943
0.383000000000000229,8.154482591211582587
0.384000000000000230,8.077464560740400756
0.385000000000000231,8.001814502421627395
0.386000000000000232,7.927497448976259520
0.387000000000000233,7.854478701966134402
0.388000000000000234,7.782723860792512660
0.389000000000000234,7.712198850126560146
0.390000000000000235,7.642869945797490239
0.391000000000000236,7.574703799165900975
0.392000000000000237,7.507667460011360205
0.393000000000000238,7.441728397964605612
0.394000000000000239,7.376854522516168799
0.395000000000000240,7.313014201634047140
0.396000000000000241,7.250176279024275416
0.397000000000000242,7.188310090068810609
0.398000000000000242,7.127385476476002069
0.399000000000000243,7.067372799679437101
0.400000000000000244,7.008242953021327715
0.401000000000000245,6.949967372757066997
0.402000000000000246,6.892518047917792323
0.403000000000000247,6.835867529067867210
0.404000000000000248,6.779988935994377464
0.405000000000000249,6.724855964365635153
0.406000000000000250,6.670442891395656382
0.407000000000000250,6.616724580551331947
0.408000000000000251,6.563676485338850064
0.409000000000000252,6.511274652205625735
0.410000000000000253,6.459495722593606715
0.411000000000000254,6.408316934179457469
0.412000000000000255,6.357716121336718373
0.413000000000000256,6.307671714854395262
0.414000000000000257,6.258162740946159985
0.415000000000000258,6.209168819583447352
0.416000000000000258,6.160670162185502896
0.417000000000000259,6.112647568698477585
0.418000000000000260,6.065082424095264990
0.419000000000000261,6.017956694326914935
0.420000000000000262,5.971252921755971776
0.421000000000000263,5.924954220101103175
0.422000000000000264,5.879044268921975736
0.423000000000000265,5.833507307672354258
0.424000000000000266,5.788328129348721873
0.425000000000000266,5.743492073761101047
0.426000000000000267,5.698985020451766026
0.427000000000000268,5.654793381287008813
0.428000000000000269,5.610904092746190841
0.429000000000000270,5.567304607931626848
0.430000000000000271,5.523982888322116480
0.431000000000000272,5.480927395292090054
0.432000000000000273,5.438127081417698072
0.433000000000000274,5.395571381590319682
0.434000000000000274,5.353250203957304443
0.435000000000000275,5.311153920709018372
0.436000000000000276,5.269273358730480972
0.437000000000000277,5.227599790135259106
0.438000000000000278,5.186124922698523321
0.439000000000000279,5.144840890205482964
0.440000000000000280,5.103740242730740562
0.441000000000000281,5.062815936863495736
0.442000000000000282,5.022061325892737571
0.443000000000000282,4.981470149966094496
0.444000000000000283,4.941036526235224713
0.445000000000000284,4.900754939000128374
0.446000000000000285,4.860620229864114350
0.447000000000000286,4.820627587910533585
0.448000000000000287,4.780772539911927410
0.449000000000000288,4.741050940581537532
0.450000000000000289,4.701458962876704284
0.451000000000000290,4.661993088363121096
0.452000000000000290,4.622650097648303813
0.453000000000000291,4.583427060892313776
0.454000000000000292,4.544321328403112759
0.455000000000000293,4.505330521323587689
0.456000000000000294,4.466452522416770599
0.457000000000000295,4.427685466955318283
0.458000000000000296,4.389027733720974211
0.459000000000000297,4.350477936119220068
0.460000000000000298,4.312034913414032999
0.461000000000000298,4.273697722087186790
0.462000000000000299,4.235465627326229665
0.463000000000000300,4.197338094644921469
0.464000000000000301,4.159314781639473324
0.465000000000000302,4.121395529883784548
0.466000000000000303,4.083580356966358238
0.467000000000000304,4.045869448671389534
0.468000000000000305,4.008263151306268313
0.469000000000000306,3.970761964177294878
0.470000000000000306,3.933366532215321065
0.471000000000000307,3.896077638752669881
0.472000000000000308,3.858896198452484327
0.473000000000000309,3.821823250391367388
0.474000000000000310,3.784859951296076108
0.475000000000000311,3.748007568934629941
0.476000000000000312,3.711267475662254789
0.477000000000000313,3.674641142122057946
0.478000000000000314,3.638130131100530296
0.479000000000000314,3.601736091537419249
0.480000000000000315,3.565460752689684654
0.481000000000000316,3.529305918448856438
0.482000000000000317,3.493273461811106984
0.483000000000000318,3.457365319499138057
0.484000000000000319,3.421583486734891544
0.485000000000000320,3.385930012161999514
0.486000000000000321,3.350406992916670212
0.487000000000000322,3.315016569845702143
0.488000000000000322,3.279760922870238460
0.489000000000000323,3.244642266493618532
0.490000000000000324,3.209662845451811908
0.491000000000000325,3.174824930504674736
0.492000000000000326,3.140130814366290490
0.493000000000000327,3.105582807772516496
0.494000000000000328,3.071183235683886181
0.495000000000000329,3.036934433621857554
0.496000000000000330,3.002838744136451687
0.497000000000000330,2.968898513403128714
0.498000000000000331,2.935116087946949559
0.499000000000000332,2.901493811491742569
0.500000000000000333,2.868034021932166500
0.501000000000000334,2.834739048426508923
0.502000000000000335,2.801611208607900583
0.503000000000000336,2.768652805911805181
0.504000000000000337,2.735866127017430482
0.505000000000000338,2.703253439400846059
0.506000000000000338,2.670816988997491315
0.507000000000000339,2.638558997971766740
0.508000000000000340,2.606481662591452420
0.509000000000000341,2.574587151204585478
0.510000000000000342,2.542877602316562680
0.511000000000000343,2.511355122765096315
0.512000000000000344,2.480021785990794925
0.513000000000000345,2.448879630401054719
0.514000000000000346,2.417930657824948870
0.515000000000000346,2.387176832056921771
0.516000000000000347,2.356620077486987874
0.517000000000000348,2.326262277815193791
0.518000000000000349,2.296105274848163180
0.519000000000000350,2.266150867375480882
0.520000000000000351,2.236400810123785998
0.521000000000000352,2.206856812786337940
0.522000000000000353,2.177520539126030830
0.523000000000000353,2.148393606149610946
0.524000000000000354,2.119477583351140115
0.525000000000000355,2.090773992022530336
0.526000000000000356,2.062284304629211640
0.527000000000000357,2.034009944248849955
0.528000000000000358,2.005952284071167657
0.529000000000000359,1.978112646956932341
0.530000000000000360,1.950492305054166708
0.531000000000000361,1.923092479469703964
0.532000000000000361,1.895914339994208220
0.533000000000000362,1.868959004878870234
0.534000000000000363,1.842227540661960150
0.535000000000000364,1.815720962043435360
0.536000000000000365,1.789440231805956572
0.537000000000000366,1.763386260780515968
0.538000000000000367,1.737559907855100061
0.539000000000000368,1.711961980024658603
0.540000000000000369,1.686593232480856575
0.541000000000000369,1.661454368739974541
0.542000000000000370,1.636546040807501656
0.543000000000000371,1.611868849377803059
0.544000000000000372,1.587423344067496744
0.545000000000000373,1.563210023681036009
0.546000000000000374,1.539229336507098589
0.547000000000000375,1.515481680644439777
0.548000000000000376,1.491967404355821314
0.549000000000000377,1.468686806448751714
0.550000000000000377,1.445640136681684895
0.551000000000000378,1.422827596194537580
0.552000000000000379,1.400249337962190310
0.553000000000000380,1.377905467269883832
0.554000000000000381,1.355796042209292063
0.555000000000000382,1.333921074194158063
0.556000000000000383,1.312280528494439213
0.557000000000000384,1.290874324787805394
0.558000000000000385,1.269702337727574903
0.559000000000000385,1.248764397525969461
0.560000000000000386,1.228060290551747924
0.561000000000000387,1.207589759941303242
0.562000000000000388,1.187352506222249859
0.563000000000000389,1.167348187948597182
0.564000000000000390,1.147576422346703762
0.565000000000000391,1.128036785971086697
0.566000000000000392,1.108728815369345089
0.567000000000000393,1.089652007755313123
0.568000000000000393,1.070805821689791992
0.569000000000000394,1.052189677768003317
0.570000000000000395,1.033802959313112613
0.571000000000000396,1.015645013075133773
0.572000000000000397,0.997715149934468748
0.573000000000000398,0.980012645609535604
0.574000000000000399,0.962536741367776116
0.575000000000000400,0.945286644739470105
0.576000000000000401,0.928261530233805088
0.577000000000000401,0.911460540056550528
0.578000000000000402,0.894882784828893385
0.579000000000000403,0.878527344306871738
0.580000000000000404,0.862393268100859145
0.581000000000000405,0.846479576394726485
0.582000000000000406,0.830785260664099523
0.583000000000000407,0.815309284393349154
0.584000000000000408,0.800050583790852921
0.585000000000000409,0.785008068502117906
0.586000000000000409,0.770180622320405073
0.587000000000000410,0.755567103894401959
0.588000000000000411,0.741166347432712369
0.589000000000000412,0.726977163404656457
0.590000000000000413,0.712998339237220002
0.591000000000000414,0.699228640007711455
0.592000000000000415,0.685666809131892818
0.593000000000000416,0.672311569047300606
0.594000000000000417,0.659161621891455995
0.595000000000000417,0.646215650174719602
0.596000000000000418,0.633472317447591360
0.597000000000000419,0.620930268962135101
0.598000000000000420,0.608588132327421372
0.599000000000000421,0.596444518158676606
0.600000000000000422,0.584498020720013556
0.601000000000000423,0.572747218560576976
0.602000000000000424,0.561190675143834361
0.603000000000000425,0.549826939469952647
0.604000000000000425,0.538654546691091696
0.605000000000000426,0.527672018719427816
0.606000000000000427,0.516877864827804068
0.607000000000000428,0.506270582242954736
0.608000000000000429,0.495848656731023962
0.609000000000000430,0.485610563175499277
0.610000000000000431,0.475554766147260277
0.611000000000000432,0.465679720466801339
0.612000000000000433,0.455983871758482651
0.613000000000000433,0.446465656996743454
0.614000000000000434,0.437123505044254845
0.615000000000000435,0.427955837181912269
0.616000000000000436,0.418961067630667039
0.617000000000000437,0.410137604065089978
0.618000000000000438,0.401483848118708853
