# Tobermorite-004_THIOPHENE-AC
# h[nm],U(h)[kJ/mol]
0.149999999999999994,148.240542458819788862
0.150999999999999995,145.874215057307111465
0.151999999999999996,143.491805236494144538
0.152999999999999997,141.095379402890159781
0.153999999999999998,138.714479999885327288
0.154999999999999999,136.375854880823908388
0.156000000000000000,134.094125644424764232
0.157000000000000001,131.872045038357271096
0.158000000000000002,129.704232688782894911
0.159000000000000002,127.581362610311700223
0.160000000000000003,125.493518322237719076
0.161000000000000004,123.432357811780846646
0.162000000000000005,121.392176103250562846
0.163000000000000006,119.370127383039772440
0.164000000000000007,117.365899505446051876
0.165000000000000008,115.381097029282813082
0.166000000000000009,113.418527604701395717
0.167000000000000010,111.481523228515783330
0.168000000000000010,109.573373251243566529
0.169000000000000011,107.696903809713191436
0.170000000000000012,105.854208663689931313
0.171000000000000013,104.046517580162827699
0.172000000000000014,102.274178154740425839
0.173000000000000015,100.536722984587783003
0.174000000000000016,98.832994383258295557
0.175000000000000017,97.161301712061060698
0.176000000000000018,95.519590649869925869
0.177000000000000018,93.905608445893534508
0.178000000000000019,92.317053807529887877
0.179000000000000020,90.751704210330927936
0.180000000000000021,89.207516894448488642
0.181000000000000022,87.682702568634823592
0.182000000000000023,86.175772896475010043
0.183000000000000024,84.685564256550790674
0.184000000000000025,83.211241140905016778
0.185000000000000026,81.752282986037982937
0.186000000000000026,80.308458317735215815
0.187000000000000027,78.879789927058624244
0.188000000000000028,77.466514459717046748
0.189000000000000029,76.069039361307829950
0.190000000000000030,74.687899629772701360
0.191000000000000031,73.323716324553117829
0.192000000000000032,71.977158299027749422
0.193000000000000033,70.648908179112027028
0.194000000000000034,69.339633218928241831
0.195000000000000034,68.049961330602613430
0.196000000000000035,66.780462311245130991
0.197000000000000036,65.531634074324671246
0.198000000000000037,64.303893530923488697
0.199000000000000038,63.097571653203125663
0.200000000000000039,61.912912181496196240
0.201000000000000040,60.750073401117376193
0.202000000000000041,59.609132408729351482
0.203000000000000042,58.490091304730562172
0.204000000000000042,57.392884782017858925
0.205000000000000043,56.317388627633945930
0.206000000000000044,55.263428707924141747
0.207000000000000045,54.230790066294311202
0.208000000000000046,53.219225822520414226
0.209000000000000047,52.228465621477347725
0.210000000000000048,51.258223435339949958
0.211000000000000049,50.308204575468337794
0.212000000000000050,49.378111817439673814
0.213000000000000050,48.467650584505989286
0.214000000000000051,47.576533170900262348
0.215000000000000052,46.704482016874401040
0.216000000000000053,45.851232072305585064
0.217000000000000054,45.016532305451129048
0.218000000000000055,44.200146428370274521
0.219000000000000056,43.401852921119036921
0.220000000000000057,42.621444443554153736
0.221000000000000058,41.858726726964604836
0.222000000000000058,41.113517038272497928
0.223000000000000059,40.385642307702326548
0.224000000000000060,39.674937007049479121
0.225000000000000061,38.981240860409904769
0.226000000000000062,38.304396462837473791
0.227000000000000063,37.644246875210214398
0.228000000000000064,37.000633255908418562
0.229000000000000065,36.373392581986784933
0.230000000000000066,35.762355504576660792
0.231000000000000066,35.167344375457147976
0.232000000000000067,34.588171474232254354
0.233000000000000068,34.024637458451827854
0.234000000000000069,33.476530052406403115
0.235000000000000070,32.943622984265104492
0.236000000000000071,32.425675175752260770
0.237000000000000072,31.922430183690568839
0.238000000000000073,31.433615888481256206
0.239000000000000073,30.958944420937179132
0.240000000000000074,30.498112315811589212
0.241000000000000075,30.050800877850871728
0.242000000000000076,29.616676744206223759
0.243000000000000077,29.195392625533365560
0.244000000000000078,28.786588207047863364
0.245000000000000079,28.389891190145750244
0.246000000000000080,28.004918454902544056
0.247000000000000081,27.631277323783582034
0.248000000000000081,27.268566907196891691
0.249000000000000082,26.916379512053804746
0.250000000000000111,26.574302095235470489
0.251000000000000112,26.241917744760080211
0.252000000000000113,25.918807172471712619
0.253000000000000114,25.604550203198989777
0.254000000000000115,25.298727246529914225
0.255000000000000115,25.000920738596409620
0.256000000000000116,24.710716542533656792
0.257000000000000117,24.427705297557746889
0.258000000000000118,24.151483707872792195
0.259000000000000119,23.881655763860869968
0.260000000000000120,23.617833889213109444
0.261000000000000121,23.359640008818313817
0.262000000000000122,23.106706533327038500
0.263000000000000123,22.858677257350091594
0.264000000000000123,22.615208169223233625
0.265000000000000124,22.375968171173987287
0.266000000000000125,22.140639709557667913
0.267000000000000126,21.908919315588434529
0.268000000000000127,21.680518057676259502
0.269000000000000128,21.455161907094385754
0.270000000000000129,21.232592019244272308
0.271000000000000130,21.012564933259206157
0.272000000000000131,20.794852693096274265
0.273000000000000131,20.579242893611954912
0.274000000000000132,20.365538655402662727
0.275000000000000133,20.153558532421790517
0.276000000000000134,19.943136356562824574
0.277000000000000135,19.734121023527531946
0.278000000000000136,19.526376224383216851
0.279000000000000137,19.319780127256887425
0.280000000000000138,19.114225013621524596
0.281000000000000139,18.909616873602878684
0.282000000000000139,18.705874964679292560
0.283000000000000140,18.502931338064286138
0.284000000000000141,18.300730336956085864
0.285000000000000142,18.099228070712364058
0.286000000000000143,17.898391868865996202
0.287000000000000144,17.698199718740369235
0.288000000000000145,17.498639690254130130
0.289000000000000146,17.299709351327393847
0.290000000000000147,17.101415177115850241
0.291000000000000147,16.903771956109501673
0.292000000000000148,16.706802195938713851
0.293000000000000149,16.510535531535673215
0.294000000000000150,16.315008138103944901
0.295000000000000151,16.120262151154960861
0.296000000000000152,15.926345095678939856
0.297000000000000153,15.733309326329820266
0.298000000000000154,15.541211480320209049
0.299000000000000155,15.350111944544121201
0.300000000000000155,15.160074338272716332
0.301000000000000156,14.971165012602323685
0.302000000000000157,14.783452567674640221
0.303000000000000158,14.597007388537178940
0.304000000000000159,14.411901200367177367
0.305000000000000160,14.228206643645696872
0.306000000000000161,14.045996869739145296
0.307000000000000162,13.865345157224307826
0.308000000000000163,13.686324549179570198
0.309000000000000163,13.509007511559214976
0.310000000000000164,13.333465612669701983
0.311000000000000165,13.159769223676400784
0.312000000000000166,12.987987239986086507
0.313000000000000167,12.818186823274590580
0.314000000000000168,12.650433163860181907
0.315000000000000169,12.484789263060712017
0.316000000000000170,12.321315735117046586
0.317000000000000171,12.160070628215418509
0.318000000000000171,12.001109264097888030
0.319000000000000172,11.844484095711690586
0.320000000000000173,11.690244582315694188
0.321000000000000174,11.538437081434290477
0.322000000000000175,11.389104757026069947
0.323000000000000176,11.242287503215969480
0.324000000000000177,11.098021882925241499
0.325000000000000178,10.956341080722950210
0.326000000000000179,10.817274869215648181
0.327000000000000179,10.680849588288465313
0.328000000000000180,10.547088136509913170
0.329000000000000181,10.416009974015210560
0.330000000000000182,10.287631136187560088
0.331000000000000183,10.161964257463813155
0.332000000000000184,10.039018604600382645
0.333000000000000185,9.918800118746181838
0.334000000000000186,9.801311465682131185
0.335000000000000187,9.686552093601168423
0.336000000000000187,9.574518297818039869
0.337000000000000188,9.465203291815161180
0.338000000000000189,9.358597284048199683
0.339000000000000190,9.254687559953669762
0.340000000000000191,9.153458568620104430
0.341000000000000192,9.054892013603851098
0.342000000000000193,8.958966947390923252
0.343000000000000194,8.865659869026499607
0.344000000000000195,8.774944824454776082
0.345000000000000195,8.686793509132041180
0.346000000000000196,8.601175372497106508
0.347000000000000197,8.518057723903746492
0.348000000000000198,8.437405839640309324
0.349000000000000199,8.359183070682203009
0.350000000000000200,8.283350950842862659
0.351000000000000201,8.209869305008783869
0.352000000000000202,8.138696357163507145
0.353000000000000203,8.069788837924484426
0.354000000000000203,8.003102091335282608
0.355000000000000204,7.938590180673811503
0.356000000000000205,7.876205993054699483
0.357000000000000206,7.815901342620939829
0.358000000000000207,7.757627072136787483
0.359000000000000208,7.701333152809418436
0.360000000000000209,7.646968782182457680
0.361000000000000210,7.594482479959367538
0.362000000000000210,7.543822181628634382
0.363000000000000211,7.494935329776616584
0.364000000000000212,7.447768962986645036
0.365000000000000213,7.402269802235705853
0.366000000000000214,7.358384334711677077
0.367000000000000215,7.316058894985469685
0.368000000000000216,7.275239743483069788
0.369000000000000217,7.235873142212755127
0.370000000000000218,7.197905427712109727
0.371000000000000218,7.161283081188843269
0.372000000000000219,7.125952795837560139
0.373000000000000220,7.091861541322953322
0.374000000000000221,7.058956625427168952
0.375000000000000222,7.027185752866285107
0.376000000000000223,6.996497081287133213
0.377000000000000224,6.966839274462062193
0.378000000000000225,6.938161552704601220
0.379000000000000226,6.910413740534400162
0.380000000000000226,6.883546311624400005
0.381000000000000227,6.857510431067815659
0.382000000000000228,6.832257995006304263
0.383000000000000229,6.807741667664461538
0.384000000000000230,6.783914915839119431
0.385000000000000231,6.760732040894697370
0.386000000000000232,6.738148208318786025
0.387000000000000233,6.716119474894178154
0.388000000000000234,6.694602813545917464
0.389000000000000234,6.673556135923471189
0.390000000000000235,6.652938312779821395
0.391000000000000236,6.632709192210453963
0.392000000000000237,6.612829615816371742
0.393000000000000238,6.593261432855970661
0.394000000000000239,6.573967512451370787
0.395000000000000240,6.554911753915147798
0.396000000000000241,6.536059095263683005
0.397000000000000242,6.517375519983511722
0.398000000000000242,6.498828062116847271
0.399000000000000243,6.480384809732385065
0.400000000000000244,6.462014906847116436
0.401000000000000245,6.443688553864253876
0.402000000000000246,6.425377006592076334
0.403000000000000247,6.407052573907529691
0.404000000000000248,6.388688614127810084
0.405000000000000249,6.370259530152154070
0.406000000000000250,6.351740763435262949
0.407000000000000250,6.333108786852553962
0.408000000000000251,6.314341096516510987
0.409000000000000252,6.295416202602160283
0.410000000000000253,6.276313619238524488
0.411000000000000254,6.257013853521605995
0.412000000000000255,6.237498393703293509
0.413000000000000256,6.217749696609018883
0.414000000000000257,6.197751174335975222
0.415000000000000258,6.177487180281927337
0.416000000000000258,6.156942994553651793
0.417000000000000259,6.136104808802313570
0.418000000000000260,6.114959710531845616
0.419000000000000261,6.093495666924895637
0.420000000000000262,6.071701508229502942
0.421000000000000263,6.049566910748197301
0.422000000000000264,6.027082379469840490
0.423000000000000265,6.004239230383060288
0.424000000000000266,5.981029572508679060
0.425000000000000266,5.957446289687295504
0.426000000000000267,5.933483022156528008
0.427000000000000268,5.909134147951327520
0.428000000000000269,5.884394764159205593
0.429000000000000270,5.859260668060977117
0.430000000000000271,5.833728338186293882
0.431000000000000272,5.807794915311935924
0.432000000000000273,5.781458183429514897
0.433000000000000274,5.754716550708115719
0.434000000000000274,5.727569030475985201
0.435000000000000275,5.700015222244409152
0.436000000000000276,5.672055292795522341
0.437000000000000277,5.643689957354829367
0.438000000000000278,5.614920460868004781
0.439000000000000279,5.585748559400452784
0.440000000000000280,5.556176501677097868
0.441000000000000281,5.526207010778838580
0.442000000000000282,5.495843266010979278
0.443000000000000282,5.465088884958233528
0.444000000000000283,5.433947905739643147
0.445000000000000284,5.402424769476086297
0.446000000000000285,5.370524302982077280
0.447000000000000286,5.338251701692629858
0.448000000000000287,5.305612512835273797
0.449000000000000288,5.272612618856410194
0.450000000000000289,5.239258221110432601
0.451000000000000290,5.205555823819405958
0.452000000000000290,5.171512218310140518
0.453000000000000291,5.137134467535150684
0.454000000000000292,5.102429890882968166
0.455000000000000293,5.067406049282951130
0.456000000000000294,5.032070730608904974
0.457000000000000295,4.996431935385369449
0.458000000000000296,4.960497862799813973
0.459000000000000297,4.924276897023498023
0.460000000000000298,4.887777593843134483
0.461000000000000298,4.851008667605204216
0.462000000000000299,4.813978978474038328
0.463000000000000300,4.776697520004640651
0.464000000000000301,4.739173407030508933
0.465000000000000302,4.701415863866578171
0.466000000000000303,4.663434212826830461
0.467000000000000304,4.625237863055851051
0.468000000000000305,4.586836299673299422
0.469000000000000306,4.548239073229828122
0.470000000000000306,4.509455789472811560
0.471000000000000307,4.470496099419866809
0.472000000000000308,4.431369689737951312
0.473000000000000309,4.392086273425461762
0.474000000000000310,4.352655580794713153
0.475000000000000311,4.313087350751704463
0.476000000000000312,4.273391322370168055
0.477000000000000313,4.233577226756353618
0.478000000000000314,4.193654779201244409
0.479000000000000314,4.153633671616299594
0.480000000000000315,4.113523565249050939
0.481000000000000316,4.073334083674459372
0.482000000000000317,4.033074806057997286
0.483000000000000318,3.992755260686185359
0.484000000000000319,3.952384918760302845
0.485000000000000320,3.911973188448830463
0.486000000000000321,3.871529409194125915
0.487000000000000322,3.831062846268753930
0.488000000000000322,3.790582685576864286
0.489000000000000323,3.750098028695885155
0.490000000000000324,3.709617888153811549
0.491000000000000325,3.669151182937307798
0.492000000000000326,3.628706734225800368
0.493000000000000327,3.588293261346754637
0.494000000000000328,3.547919377947240882
0.495000000000000329,3.507593588376960447
0.496000000000000330,3.467324284277861324
0.497000000000000330,3.427119741375430184
0.498000000000000331,3.386988116466873144
0.499000000000000332,3.346937444601298495
0.500000000000000333,3.306975636447030631
0.501000000000000334,3.267110475841343398
0.502000000000000335,3.227349617517712765
0.503000000000000336,3.187700585005956988
0.504000000000000337,3.148170768700429445
0.505000000000000338,3.108767424091670950
0.506000000000000338,3.069497670156832836
0.507000000000000339,3.030368487904284258
0.508000000000000340,2.991386719067869571
0.509000000000000341,2.952559064946306044
0.510000000000000342,2.913892085383275266
0.511000000000000343,2.875392197883809509
0.512000000000000344,2.837065676862650765
0.513000000000000345,2.798918653020333380
0.514000000000000346,2.760957112842679528
0.515000000000000346,2.723186898219686292
0.516000000000000347,2.685613706179620142
0.517000000000000348,2.648243088734321571
0.518000000000000349,2.611080452831773702
0.519000000000000350,2.574131060412041982
0.520000000000000351,2.537400028562746712
0.521000000000000352,2.500892329770322053
0.522000000000000353,2.464612792263420893
0.523000000000000353,2.428566100444745857
0.524000000000000354,2.392756795407909642
0.525000000000000355,2.357189275535697792
0.526000000000000356,2.321867797176482728
0.527000000000000357,2.286796475395342032
0.528000000000000358,2.251979284796663983
0.529000000000000359,2.217420060415087768
0.530000000000000360,2.183122498671621337
0.531000000000000361,2.149090158391888661
0.532000000000000361,2.115326461883556330
0.533000000000000362,2.081834696070027135
0.534000000000000363,2.048618013677578453
0.535000000000000364,2.015679434473126364
0.536000000000000365,1.983021846550016232
0.537000000000000366,1.950648007659116390
0.538000000000000367,1.918560546582738002
0.539000000000000368,1.886761964548806958
0.540000000000000369,1.855254636682946323
0.541000000000000369,1.824040813496039082
0.542000000000000370,1.793122622405045163
0.543000000000000371,1.762502069284777928
0.544000000000000372,1.732181040048513809
0.545000000000000373,1.702161302255335684
0.546000000000000374,1.672444506742129633
0.547000000000000375,1.643032189278311295
0.548000000000000376,1.613925772241301626
0.549000000000000377,1.585126566310967933
0.550000000000000377,1.556635772181110600
0.551000000000000378,1.528454482286393912
0.552000000000000379,1.500583682542910191
0.553000000000000380,1.473024254100816721
0.554000000000000381,1.445776975107433415
0.555000000000000382,1.418842522479279333
0.556000000000000383,1.392221473681600985
0.557000000000000384,1.365914308513909381
0.558000000000000385,1.339921410900242416
0.559000000000000385,1.314243070682742376
0.560000000000000386,1.288879485417331550
0.561000000000000387,1.263830762170242483
0.562000000000000388,1.239096919314226275
0.563000000000000389,1.214677888323278054
0.564000000000000390,1.190573515564845142
0.565000000000000391,1.166783564088411662
0.566000000000000392,1.143307715409504155
0.567000000000000393,1.120145571288102548
0.568000000000000393,1.097296655500610063
0.569000000000000394,1.074760415604402608
0.570000000000000395,1.052536224694207601
0.571000000000000396,1.030623383149448902
0.572000000000000397,1.009021120371783153
0.573000000000000398,0.987728596512146617
0.574000000000000399,0.966744904186555454
0.575000000000000400,0.946069070180020177
0.576000000000000401,0.925700057137967769
0.577000000000000401,0.905636765244497433
0.578000000000000402,0.885878033886978833
0.579000000000000403,0.866422643306436369
0.580000000000000404,0.847269316233150271
0.581000000000000405,0.828416719507100607
0.582000000000000406,0.809863465682695627
0.583000000000000407,0.791608114617443404
0.584000000000000408,0.773649175044108794
0.585000000000000409,0.755985106126029205
0.586000000000000409,0.738614318995210350
0.587000000000000410,0.721535178272868394
0.588000000000000411,0.704746003572188529
0.589000000000000412,0.688245070982904772
0.590000000000000413,0.672030614537566295
0.591000000000000414,0.656100827659167773
0.592000000000000415,0.640453864589969890
0.593000000000000416,0.625087841801310717
0.594000000000000417,0.610000839384226001
0.595000000000000417,0.595190902420711487
0.596000000000000418,0.580656042335523481
0.597000000000000419,0.566394238228343117
0.598000000000000420,0.552403438186263029
0.599000000000000421,0.538681560576434793
0.600000000000000422,0.525226495318857234
0.601000000000000423,0.512036105139256237
0.602000000000000424,0.499108226801937616
0.603000000000000425,0.486440672322644374
0.604000000000000425,0.474031230161422290
0.605000000000000426,0.461877666395409558
0.606000000000000427,0.449977725871605283
0.607000000000000428,0.438329133339681598
0.608000000000000429,0.426929594564732562
0.609000000000000430,0.415776797420191246
0.610000000000000431,0.404868412960781687
0.611000000000000432,0.394202096475693597
0.612000000000000433,0.383775488522009323
0.613000000000000433,0.373586215938430499
0.614000000000000434,0.363631892839462068
0.615000000000000435,0.353910121590089388
0.616000000000000436,0.344418493761101008
0.617000000000000437,0.335154591065110918
0.618000000000000438,0.326115986273467162
0.619000000000000439,0.317300244114140984
