# Fe2O3-001O_GLY-AC
# h[nm],U(h)[kJ/mol]
0.149999999999999994,106.382210027930639740
0.150999999999999995,104.670271377248852218
0.151999999999999996,102.724744790496899327
0.152999999999999997,100.760491538758401475
0.153999999999999998,98.854702361931202859
0.154999999999999999,97.019649486241831937
0.156000000000000000,95.242327930311503792
0.157000000000000001,93.504393859944414658
0.158000000000000002,91.790853835082671708
0.159000000000000002,90.092707943614840360
0.160000000000000003,88.406648849262083445
0.161000000000000004,86.733586365584613986
0.162000000000000005,85.076942266151135641
0.163000000000000006,83.441165399014820991
0.164000000000000007,81.830633573249798474
0.165000000000000008,80.248956846939705656
0.166000000000000009,78.698624770681462337
0.167000000000000010,77.180914299676445012
0.168000000000000010,75.695974326923675335
0.169000000000000011,74.243014142286099855
0.170000000000000012,72.820538950951060997
0.171000000000000013,71.426591657488174292
0.172000000000000014,70.058974323051288025
0.173000000000000015,68.715434188695937223
0.174000000000000016,67.393807806086996948
0.175000000000000017,66.092122884422366269
0.176000000000000018,64.808661371316432565
0.177000000000000018,63.541989499474276215
0.178000000000000019,62.290961487948649733
0.179000000000000020,61.054703665624153075
0.180000000000000021,59.832585294281010135
0.181000000000000022,58.624181548757164251
0.182000000000000023,57.429233139602004599
0.183000000000000024,56.247606063763626594
0.184000000000000025,55.079254023401574614
0.185000000000000026,53.924185211193233158
0.186000000000000026,52.782434447451819892
0.187000000000000027,51.654041077620682643
0.188000000000000028,50.539032594181591662
0.189000000000000029,49.437413623337327806
0.190000000000000030,48.349159698576343658
0.191000000000000031,47.274215113303355906
0.192000000000000032,46.212494085977482428
0.193000000000000033,45.163884467501965503
0.194000000000000034,44.128253257478299076
0.195000000000000034,43.105453260841542829
0.196000000000000035,42.095330298874351627
0.197000000000000036,41.097730480192872449
0.198000000000000037,40.112507131398807303
0.199000000000000038,39.139527078745310007
0.200000000000000039,38.178676057831545165
0.201000000000000040,37.229863105679427804
0.202000000000000041,36.293023857181104574
0.203000000000000042,35.368122725227721048
0.204000000000000042,34.455153990817869669
0.205000000000000043,33.554141866505986513
0.206000000000000044,32.665139624396694273
0.207000000000000045,31.788227899422555112
0.208000000000000046,30.923512290871940422
0.209000000000000047,30.071120391109843695
0.210000000000000048,29.231198371199184294
0.211000000000000049,28.403907249679569702
0.212000000000000050,27.589418964014008395
0.213000000000000050,26.787912355011275878
0.214000000000000051,25.999569163607400668
0.215000000000000052,25.224570127385952389
0.216000000000000053,24.463091251675500359
0.217000000000000054,23.715300317430216381
0.218000000000000055,22.981353675740241016
0.219000000000000056,22.261393367013504019
0.220000000000000057,21.555544591830660295
0.221000000000000058,20.863913550355480453
0.222000000000000058,20.186585658074012173
0.223000000000000059,19.523624137598488915
0.224000000000000060,18.875068979315784645
0.225000000000000061,18.240936257774830409
0.226000000000000062,17.621217785854629057
0.227000000000000063,17.015881084878664353
0.228000000000000064,16.424869645876619018
0.229000000000000065,15.848103455059861844
0.230000000000000066,15.285479755196487162
0.231000000000000066,14.736874013855203458
0.232000000000000067,14.202141069355260328
0.233000000000000068,13.681116425627177335
0.234000000000000069,13.173617667978646750
0.235000000000000070,12.679445972897466888
0.236000000000000071,12.198387686440051780
0.237000000000000072,11.730215947385389086
0.238000000000000073,11.274692333125315713
0.239000000000000073,10.831568508161042885
0.240000000000000074,10.400587857035384687
0.241000000000000075,9.981487085516061342
0.242000000000000076,9.573997775819560019
0.243000000000000077,9.177847883601339518
0.244000000000000078,8.792763166313283918
0.245000000000000079,8.418468534323416463
0.246000000000000080,8.054689317892229639
0.247000000000000081,7.701152444692127119
0.248000000000000081,7.357587524034829407
0.249000000000000082,7.023727835330293878
0.250000000000000111,6.699311219537068318
0.251000000000000112,6.384080873478318097
0.252000000000000113,6.077786047889818910
0.253000000000000114,5.780182650941721789
0.254000000000000115,5.491033759734628816
0.255000000000000115,5.210110042922171836
0.256000000000000116,4.937190098158559692
0.257000000000000117,4.672060708519412131
0.258000000000000118,4.414517022403495972
0.259000000000000119,4.164362661697966317
0.260000000000000120,3.921409763188244746
0.261000000000000121,3.685478958322907950
0.262000000000000122,3.456399296509500285
0.263000000000000123,3.234008117127660675
0.264000000000000123,3.018150875405846367
0.265000000000000124,2.808680927225266633
0.266000000000000125,2.605459277793859219
0.267000000000000126,2.408354298980849961
0.268000000000000127,2.217241419922843626
0.269000000000000128,2.032002795311426802
0.270000000000000129,1.852526955553236876
0.271000000000000130,1.678708442761007946
0.272000000000000131,1.510447436292011947
0.273000000000000131,1.347649371301460564
0.274000000000000132,1.190224553526203710
0.275000000000000133,1.038087773260663482
0.276000000000000134,0.891157921235178230
0.277000000000000135,0.749357608858651436
0.278000000000000136,0.612612795043794622
0.279000000000000137,0.480852421596911328
0.280000000000000138,0.354008058925421143
0.281000000000000139,0.232013563596356054
0.282000000000000139,0.114804749069209761
0.283000000000000140,0.002319070726648986
0.284000000000000141,-0.105504673862048121
0.285000000000000142,-0.208726628687794902
0.286000000000000143,-0.307406146467928687
0.287000000000000144,-0.401602038795763228
0.288000000000000145,-0.491372808981228981
0.289000000000000146,-0.576776867421926687
0.290000000000000147,-0.657872729465587391
0.291000000000000147,-0.734719195834712790
0.292000000000000148,-0.807375515784290676
0.293000000000000149,-0.875901533252787745
0.294000000000000150,-0.940357816346645281
0.295000000000000151,-1.000805770569108466
0.296000000000000152,-1.057307736265761466
0.297000000000000153,-1.109927070812664063
0.298000000000000154,-1.158728216118253718
0.299000000000000155,-1.203776752048269616
0.300000000000000155,-1.245139436414018475
0.301000000000000156,-1.282884232188826523
0.302000000000000157,-1.317080322636260181
0.303000000000000158,-1.347798115046713097
0.304000000000000159,-1.375109233787105811
0.305000000000000160,-1.399086503371644863
0.306000000000000161,-1.419803922261061446
0.307000000000000162,-1.437336628092967361
0.308000000000000163,-1.451760855037969478
0.309000000000000163,-1.463153883965202962
0.310000000000000164,-1.471593986087162076
0.311000000000000165,-1.477160360737529654
0.312000000000000166,-1.479933067917660106
0.313000000000000167,-1.479992956227361933
0.314000000000000168,-1.477421586774228413
0.315000000000000169,-1.472301153633101878
0.316000000000000170,-1.464714401403745869
0.317000000000000171,-1.454744540390170870
0.318000000000000171,-1.442475159900199255
0.319000000000000172,-1.427990140138447828
0.320000000000000173,-1.411373563140269072
0.321000000000000174,-1.392709623168413291
0.322000000000000175,-1.372082536968687094
0.323000000000000176,-1.349576454255314584
0.324000000000000177,-1.325275368771588358
0.325000000000000178,-1.299263030246581074
0.326000000000000179,-1.271622857544557617
0.327000000000000179,-1.242437853279808380
0.328000000000000180,-1.211790520146538208
0.329000000000000181,-1.179762779191301680
0.330000000000000182,-1.146435890233211241
0.331000000000000183,-1.111890374616824051
0.332000000000000184,-1.076205940461950172
0.333000000000000185,-1.039461410555578169
0.334000000000000186,-1.001734653012523957
0.335000000000000187,-0.963102514813702348
0.336000000000000187,-0.923640758314261512
0.337000000000000188,-0.883424000797640829
0.338000000000000189,-0.842525657136810935
0.339000000000000190,-0.801017885609489277
0.340000000000000191,-0.758971536900721055
0.341000000000000192,-0.716456106313880570
0.342000000000000193,-0.673539689198975999
0.343000000000000194,-0.630288939596629572
0.344000000000000195,-0.586769032085401543
0.345000000000000195,-0.543043626811173130
0.346000000000000196,-0.499174837668171278
0.347000000000000197,-0.455223203593450698
0.348000000000000198,-0.411247662929229041
0.349000000000000199,-0.367305530800765223
0.350000000000000200,-0.323452479451528052
0.351000000000000201,-0.279742521471799566
0.352000000000000202,-0.236227995852128059
0.353000000000000203,-0.192959556788686953
0.354000000000000203,-0.149986165163737334
0.355000000000000204,-0.107355082621170730
0.356000000000000205,-0.065111868154255029
0.357000000000000206,-0.023300377120334080
0.358000000000000207,0.018037237404785401
0.359000000000000208,0.058860521021532206
0.360000000000000209,0.099130712240312488
0.361000000000000210,0.138810734645215955
0.362000000000000210,0.177865187078980524
0.363000000000000211,0.216260331940883205
0.364000000000000212,0.253964081689040999
0.365000000000000213,0.290945983638410066
0.366000000000000214,0.327177203145126438
0.367000000000000215,0.362630505267138692
0.368000000000000216,0.397280234990012526
0.369000000000000217,0.431102296105756011
0.370000000000000218,0.464074128831065746
0.371000000000000218,0.496174686250035968
0.372000000000000219,0.527384409664654719
0.373000000000000220,0.557685202934768642
0.374000000000000221,0.587060405887274706
0.375000000000000222,0.615494766872525689
0.376000000000000223,0.642974414543647788
0.377000000000000224,0.669486828932720490
0.378000000000000225,0.695020811895325719
0.379000000000000226,0.719566456993011916
0.380000000000000226,0.743115118880805503
0.381000000000000227,0.765659382264798571
0.382000000000000228,0.787193030492456813
0.383000000000000229,0.807711013835988423
0.384000000000000230,0.827209417526955648
0.385000000000000231,0.845685429597763383
0.386000000000000232,0.863137308583606710
0.387000000000000233,0.879564351136012279
0.388000000000000234,0.894966859596927344
0.389000000000000234,0.909346109579978745
0.390000000000000235,0.922704317603432189
0.391000000000000236,0.935044608817015677
0.392000000000000237,0.946370984862823006
0.393000000000000238,0.956688291908179722
0.394000000000000239,0.966002188886458391
0.395000000000000240,0.974319115979657369
0.396000000000000241,0.981646263374645001
0.397000000000000242,0.987991540322991746
0.398000000000000242,0.993363544532398057
0.399000000000000243,0.997771531915923604
0.400000000000000244,1.001225386723419319
0.401000000000000245,1.003735592077681371
0.402000000000000246,1.005313200936433393
0.403000000000000247,1.005969807499286883
0.404000000000000248,1.005717519077474087
0.405000000000000249,1.004568928442469256
0.406000000000000250,1.002537086668240374
0.407000000000000250,0.999635476480337459
0.408000000000000251,0.995877986123758552
0.409000000000000252,0.991278883760098983
0.410000000000000253,0.985852792403333567
0.411000000000000254,0.979614665402261053
0.412000000000000255,0.972579762476568965
0.413000000000000256,0.964763626312235778
0.414000000000000257,0.956182059721104260
0.415000000000000258,0.946851103368208435
0.416000000000000258,0.936787014069719426
0.417000000000000259,0.926006243663218820
0.418000000000000260,0.914525418451309968
0.419000000000000261,0.902361319218645042
0.420000000000000262,0.889530861821699714
0.421000000000000263,0.876051078349823542
0.422000000000000264,0.861939098855540209
0.423000000000000265,0.847212133651206400
0.424000000000000266,0.831887456168633355
0.425000000000000266,0.815982386377722135
0.426000000000000267,0.799514274759509092
0.427000000000000268,0.782500486828572872
0.428000000000000269,0.764958388199273642
0.429000000000000270,0.746905330189839733
0.430000000000000271,0.728358635957884637
0.431000000000000272,0.709335587160588976
0.432000000000000273,0.689853411132435701
0.433000000000000274,0.669929268573014824
0.434000000000000274,0.649580241737157782
0.435000000000000275,0.628823323119417577
0.436000000000000276,0.607675404624604232
0.437000000000000277,0.586153267215904772
0.438000000000000278,0.564273571031948973
0.439000000000000279,0.542052845963946095
0.440000000000000280,0.519507482683902122
0.441000000000000281,0.496653724114861028
0.442000000000000282,0.473507657333807175
0.443000000000000282,0.450085205898073326
0.444000000000000283,0.426402122585700483
0.445000000000000284,0.402473982540396402
0.446000000000000285,0.378316176811571425
0.447000000000000286,0.353943906279884812
0.448000000000000287,0.329372175958838054
0.449000000000000288,0.304615789662820269
0.450000000000000289,0.279689345032109626
0.451000000000000290,0.254607228905350758
0.452000000000000290,0.229383613030005984
0.453000000000000291,0.204032450101421847
0.454000000000000292,0.178567470121121341
0.455000000000000293,0.153002177065041184
0.456000000000000294,0.127349845852524401
0.457000000000000295,0.101623519606912099
0.458000000000000296,0.075836007198713556
0.459000000000000297,0.049999881062427670
0.460000000000000298,0.024127475278133203
0.461000000000000298,-0.001769116090798967
0.462000000000000299,-0.027678040412569604
0.463000000000000300,-0.053587687662798103
0.464000000000000301,-0.079486691369786339
0.465000000000000302,-0.105363929337367004
0.466000000000000303,-0.131208524153509198
0.467000000000000304,-0.157009843492585788
0.468000000000000305,-0.182757500219167007
0.469000000000000306,-0.208441352301013710
0.470000000000000306,-0.234051502538819289
0.471000000000000307,-0.259578298120083428
0.472000000000000308,-0.285012330004381476
0.473000000000000309,-0.310344432147147242
0.474000000000000310,-0.335565680568849500
0.475000000000000311,-0.360667392276498355
0.476000000000000312,-0.385641124043952011
0.477000000000000313,-0.410478671057724842
0.478000000000000314,-0.435172065434458688
0.479000000000000314,-0.459713574616407605
0.480000000000000315,-0.484095699650870237
0.481000000000000316,-0.508311173359558000
0.482000000000000317,-0.532352958403568111
0.483000000000000318,-0.556214245249622929
0.484000000000000319,-0.579888450042991166
0.485000000000000320,-0.603369212392403376
0.486000000000000321,-0.626650393072139655
0.487000000000000322,-0.649726071646277159
0.488000000000000322,-0.672590544019983305
0.489000000000000323,-0.695238319922588222
0.490000000000000324,-0.717664120327033972
0.491000000000000325,-0.739862874810136129
0.492000000000000326,-0.761829718857994442
0.493000000000000327,-0.783559991120728494
0.494000000000000328,-0.805049230620592304
0.495000000000000329,-0.826293173917401425
0.496000000000000330,-0.847287752235027170
0.497000000000000330,-0.868029088552714101
0.498000000000000331,-0.888513494664640135
0.499000000000000332,-0.908737468211249677
0.500000000000000333,-0.928697689685633376
0.501000000000000334,-0.948391019418098891
0.502000000000000335,-0.967814494542073356
0.503000000000000336,-0.986965325944229810
0.504000000000000337,-1.005840895201754126
0.505000000000000338,-1.024438751509427536
0.506000000000000338,-1.042756608599207269
0.507000000000000339,-1.060792341654828608
0.508000000000000340,-1.078543984223827801
0.509000000000000341,-1.096009725129373891
0.510000000000000342,-1.113187905384084297
0.511000000000000343,-1.130077015108020833
0.512000000000000344,-1.146675690452873209
0.513000000000000345,-1.162982710534296027
0.514000000000000346,-1.178996994374333251
0.515000000000000346,-1.194717597855602609
0.516000000000000347,-1.210143710689039809
0.517000000000000348,-1.225274653396804636
0.518000000000000349,-1.240109874311860594
0.519000000000000350,-1.254648946595728898
0.520000000000000351,-1.268891565275799493
0.521000000000000352,-1.282837544303535804
0.522000000000000353,-1.296486813634774471
0.523000000000000353,-1.309839416333381301
0.524000000000000354,-1.322895505699313912
0.525000000000000355,-1.335655342422176428
0.526000000000000356,-1.348119291761239236
0.527000000000000357,-1.360287820752867693
0.528000000000000358,-1.372161495446243773
0.529000000000000359,-1.383740978168142677
0.530000000000000360,-1.395027024817586003
0.531000000000000361,-1.406020482191040033
0.532000000000000361,-1.416722285338835929
0.533000000000000362,-1.427133454953392500
0.534000000000000363,-1.437255094789824827
0.535000000000000364,-1.447088389119445040
0.536000000000000365,-1.456634600216599962
0.537000000000000366,-1.465895065879306625
0.538000000000000367,-1.474871196984017363
0.539000000000000368,-1.483564475074929501
0.540000000000000369,-1.491976449988053899
0.541000000000000369,-1.500108737510397638
0.542000000000000370,-1.507963017074405609
0.543000000000000371,-1.515541029487932345
0.544000000000000372,-1.522844574699857567
0.545000000000000373,-1.529875509601498873
0.546000000000000374,-1.536635745863915714
0.547000000000000375,-1.543127247811167724
0.548000000000000376,-1.549352030329598895
0.549000000000000377,-1.555312156813123181
0.550000000000000377,-1.561009737144545273
0.551000000000000378,-1.566446925712838389
0.552000000000000379,-1.571625919466368204
0.553000000000000380,-1.576548956001946999
0.554000000000000381,-1.581218311689617240
0.555000000000000382,-1.585636299833097951
0.556000000000000383,-1.589805268865652099
0.557000000000000384,-1.593727600581328785
0.558000000000000385,-1.597405708401302915
0.559000000000000385,-1.600842035675195563
0.560000000000000386,-1.604039054017115662
0.561000000000000387,-1.606999261676222091
0.562000000000000388,-1.609725181941546124
0.563000000000000389,-1.612219361580872867
0.564000000000000390,-1.614484369313330614
0.565000000000000391,-1.616522794315496059
0.566000000000000392,-1.618337244760672089
0.567000000000000393,-1.619930346391079468
0.568000000000000393,-1.621304741122597814
0.569000000000000394,-1.622463085681804085
0.570000000000000395,-1.623408050274943504
0.571000000000000396,-1.624142317288477688
0.572000000000000397,-1.624668580020940611
0.573000000000000398,-1.624989541445670982
0.574000000000000399,-1.625107913004120608
0.575000000000000400,-1.625026413429352390
0.576000000000000401,-1.624747767599359793
0.577000000000000401,-1.624274705419876286
0.578000000000000402,-1.623609960736231317
0.579000000000000403,-1.622756270273926216
0.580000000000000404,-1.621716372607538759
0.581000000000000405,-1.620493007157539633
0.582000000000000406,-1.619088913214685288
0.583000000000000407,-1.617506828991524204
0.584000000000000408,-1.615749490700703506
0.585000000000000409,-1.613819631659618281
0.586000000000000409,-1.611719981421030123
0.587000000000000410,-1.609453264929282312
0.588000000000000411,-1.607022201701648001
0.589000000000000412,-1.604429505034511649
0.590000000000000413,-1.601677881233876999
0.591000000000000414,-1.598770028869883619
0.592000000000000415,-1.595708638054919026
0.593000000000000416,-1.592496389744888718
0.594000000000000417,-1.589135955063292638
0.595000000000000417,-1.585629994647727026
0.596000000000000418,-1.581981158018330946
0.597000000000000419,-1.578192082967919019
0.598000000000000420,-1.574265394973274557
0.599000000000000421,-1.570203706627328888
0.600000000000000422,-1.566009617091763895
0.601000000000000423,-1.561685711569686941
0.602000000000000424,-1.557234560798002709
0.603000000000000425,-1.552658720559104699
0.604000000000000425,-1.547960731211469376
0.605000000000000426,-1.543143117238836570
0.606000000000000427,-1.538208386817603301
0.607000000000000428,-1.533159031401978512
0.608000000000000429,-1.527997525326694639
0.609000000000000430,-1.522726325426731364
0.610000000000000431,-1.517347870673867449
0.611000000000000432,-1.511864581829575727
0.612000000000000433,-1.506278861113978795
0.613000000000000433,-1.500593091890530806
0.614000000000000434,-1.494809638366032090
0.615000000000000435,-1.488930845305668882
0.616000000000000436,-1.482959037762745735
