# Fe2O3-001O_ALASCA-JS
# h[nm],U(h)[kJ/mol]
0.149999999999999994,84.316355914780672265
0.150999999999999995,83.786869501205956112
0.151999999999999996,82.416621506993280377
0.152999999999999997,80.865910929381655592
0.153999999999999998,79.386986214696420916
0.154999999999999999,78.035278025436198845
0.156000000000000000,76.785639731153963794
0.157000000000000001,75.591810687731737062
0.158000000000000002,74.413239327006763801
0.159000000000000002,73.224163049787037494
0.160000000000000003,72.013865810323949290
0.161000000000000004,70.783238657014663886
0.162000000000000005,69.540412639923090410
0.163000000000000006,68.296814972937610833
0.164000000000000007,67.064180467434226784
0.165000000000000008,65.852606568082919125
0.166000000000000009,64.669524581223342352
0.167000000000000010,63.519376886055866294
0.168000000000000010,62.403780022192293586
0.169000000000000011,61.321979643259354020
0.170000000000000012,60.271443568630402865
0.171000000000000013,59.248481334315350466
0.172000000000000014,58.248816520753436521
0.173000000000000015,57.268069116230094551
0.174000000000000016,56.302128728945739056
0.175000000000000017,55.347416154136716671
0.176000000000000018,54.401041698191534124
0.177000000000000018,53.460874967123267254
0.178000000000000019,52.525543699818612708
0.179000000000000020,51.594379679532991645
0.180000000000000021,50.667328621455503423
0.181000000000000022,49.744838858805010773
0.182000000000000023,48.827741118263347175
0.183000000000000024,47.917129030207846085
0.184000000000000025,47.014247488728450719
0.185000000000000026,46.120393700703814943
0.186000000000000026,45.236833815944947901
0.187000000000000027,44.364736437830217142
0.188000000000000028,43.505123069881690867
0.189000000000000029,42.658834631765941481
0.190000000000000030,41.826512539948666358
0.191000000000000031,41.008592450138507957
0.192000000000000032,40.205308556369956818
0.193000000000000033,39.416706292900066444
0.194000000000000034,38.642661351770975386
0.195000000000000034,37.882903077541627113
0.196000000000000035,37.137040503154743476
0.197000000000000036,36.404589524159838732
0.198000000000000037,35.684999954339126305
0.199000000000000038,34.977681450275085240
0.200000000000000039,34.282027525395974976
0.201000000000000040,33.597437088540374361
0.202000000000000041,32.923333133698541531
0.203000000000000042,32.259178373999873202
0.204000000000000042,31.604487753515975612
0.205000000000000043,30.958837885547346502
0.206000000000000044,30.321873557128505183
0.207000000000000045,29.693311508481066596
0.208000000000000046,29.072941745379658585
0.209000000000000047,28.460626674358497468
0.210000000000000048,27.856298367903043811
0.211000000000000049,27.259954271699523787
0.212000000000000050,26.671651660975932430
0.213000000000000050,26.091501140095754607
0.214000000000000051,25.519659460779326565
0.215000000000000052,24.956321911315079376
0.216000000000000053,24.401714503345814933
0.217000000000000054,23.856086155504737434
0.218000000000000055,23.319701045356783453
0.219000000000000056,22.792831273598725517
0.220000000000000057,22.275749957935310874
0.221000000000000058,21.768724848974951414
0.222000000000000058,21.272012537228910389
0.223000000000000059,20.785853299096192615
0.224000000000000060,20.310466610709735136
0.225000000000000061,19.846047341768247918
0.226000000000000062,19.392762626974093365
0.227000000000000063,18.950749400381504017
0.228000000000000064,18.520112567732105902
0.229000000000000065,18.100923783585216142
0.230000000000000066,17.693220793591954987
0.231000000000000066,17.297007297450214480
0.232000000000000067,16.912253284745208504
0.233000000000000068,16.538895793856237759
0.234000000000000069,16.176840043228921218
0.235000000000000070,15.825960884410827489
0.236000000000000071,15.486104527175456269
0.237000000000000072,15.157090488671055795
0.238000000000000073,14.838713720695363207
0.239000000000000073,14.530746871796074160
0.240000000000000074,14.232942643818617512
0.241000000000000075,13.945036205675412688
0.242000000000000076,13.666747630406836933
0.243000000000000077,13.397784324971336645
0.244000000000000078,13.137843425578353163
0.245000000000000079,12.886614134709038382
0.246000000000000080,12.643779979213539022
0.247000000000000081,12.409020971993204085
0.248000000000000081,12.182015662744678508
0.249000000000000082,11.962443066038622064
0.250000000000000111,11.749984457613020794
0.251000000000000112,11.544325032170499767
0.252000000000000113,11.345155418173952455
0.253000000000000114,11.152173047134450456
0.254000000000000115,10.965083376679872984
0.255000000000000115,10.783600968287265331
0.256000000000000116,10.607450421961944542
0.257000000000000117,10.436367171360229733
0.258000000000000118,10.270098143889949682
0.259000000000000119,10.108402291193048228
0.260000000000000120,9.951050996129591653
0.261000000000000121,9.797828362953518777
0.262000000000000122,9.648531397808509880
0.263000000000000123,9.502970086990439214
0.264000000000000123,9.360967380630871304
0.265000000000000124,9.222359089566907642
0.266000000000000125,9.086993703185630267
0.267000000000000126,8.954732135978430208
0.268000000000000127,8.825447410419862138
0.269000000000000128,8.699024283608320474
0.270000000000000129,8.575358824879065978
0.271000000000000130,8.454357951332786669
0.272000000000000131,8.335938927922459385
0.273000000000000131,8.220028838414073391
0.274000000000000132,8.106564033189606278
0.275000000000000133,7.995489559498577314
0.276000000000000134,7.886758579393220892
0.277000000000000135,7.780331780205645309
0.278000000000000136,7.676176782047707370
0.279000000000000137,7.574267546439021892
0.280000000000000138,7.474583789798705524
0.281000000000000139,7.377110405174422958
0.282000000000000139,7.281836895230623163
0.283000000000000140,7.188756819178001578
0.284000000000000141,7.097867255999963376
0.285000000000000142,7.009168286020228678
0.286000000000000143,6.922662492559450875
0.287000000000000144,6.838354485149219286
0.288000000000000145,6.756250445508001690
0.289000000000000146,6.676357697237955691
0.290000000000000147,6.598684299971535161
0.291000000000000147,6.523238668484829361
0.292000000000000148,6.450029217098453671
0.293000000000000149,6.379064029507524936
0.294000000000000150,6.310350554018762992
0.295000000000000151,6.243895324024488325
0.296000000000000152,6.179703703410348581
0.297000000000000153,6.117779656474448657
0.298000000000000154,6.058125541830377436
0.299000000000000155,6.000741929674168418
0.300000000000000155,5.945627441715052086
0.301000000000000156,5.892778613001377508
0.302000000000000157,5.842189774814980474
0.303000000000000158,5.793852957759859201
0.304000000000000159,5.747757814132336662
0.305000000000000160,5.703891558630560965
0.306000000000000161,5.662238926439217224
0.307000000000000162,5.622782147711227196
0.308000000000000163,5.585500937460618154
0.309000000000000163,5.550372499879082433
0.310000000000000164,5.517371546092944001
0.311000000000000165,5.486470324386159447
0.312000000000000166,5.457638661928259971
0.313000000000000167,5.430844017063629181
0.314000000000000168,5.406051541239017766
0.315000000000000169,5.383224149670153835
0.316000000000000170,5.362322599874332241
0.317000000000000171,5.343305577224554348
0.318000000000000171,5.326129786710961156
0.319000000000000172,5.310750050127067468
0.320000000000000173,5.297119407931260682
0.321000000000000174,5.285189225067859375
0.322000000000000175,5.274909300066390472
0.323000000000000176,5.266227976772663411
0.324000000000000177,5.259092258100130479
0.325000000000000178,5.253447921225076200
0.326000000000000179,5.249239633683822959
0.327000000000000179,5.246411069864656440
0.328000000000000180,5.244905027421135735
0.329000000000000181,5.244663543166484310
0.330000000000000182,5.245628008041714807
0.331000000000000183,5.247739280781573257
0.332000000000000184,5.250937799933402594
0.333000000000000185,5.255163693913950773
0.334000000000000186,5.260356888817883103
0.335000000000000187,5.266457213719770714
0.336000000000000187,5.273404503237888896
0.337000000000000188,5.281138697153890504
0.338000000000000189,5.289599936906784983
0.339000000000000190,5.298728658803035785
0.340000000000000191,5.308465683806771196
0.341000000000000192,5.318752303795008629
0.342000000000000193,5.329530364182825330
0.343000000000000194,5.340742342841961587
0.344000000000000195,5.352331425254186925
0.345000000000000195,5.364241575857073840
0.346000000000000196,5.376417605555411150
0.347000000000000197,5.388805235385921932
0.348000000000000198,5.401351156336245296
0.349000000000000199,5.414003085331652088
0.350000000000000200,5.426709817414350212
0.351000000000000201,5.439421274150867625
0.352000000000000202,5.452088548312532978
0.353000000000000203,5.464663944882938829
0.354000000000000203,5.477101018454282766
0.355000000000000204,5.489354607081610382
0.356000000000000205,5.501380862670512961
0.357000000000000206,5.513137277979465622
0.358000000000000207,5.524582710323252321
0.359000000000000208,5.535677402068178488
0.360000000000000209,5.546382998013656973
0.361000000000000210,5.556662559758100528
0.362000000000000210,5.566480577149650166
0.363000000000000211,5.575802976924567389
0.364000000000000212,5.584597128637834196
0.365000000000000213,5.592831847991828198
0.366000000000000214,5.600477397669837210
0.367000000000000215,5.607505485781643095
0.368000000000000216,5.613889262028619598
0.369000000000000217,5.619603311695572145
0.370000000000000218,5.624623647576084906
0.371000000000000218,5.628927699937422702
0.372000000000000219,5.632494304629906523
0.373000000000000220,5.635303689444615571
0.374000000000000221,5.637337458821626512
0.375000000000000222,5.638578577009544901
0.376000000000000223,5.639011349775074677
0.377000000000000224,5.638621404759589062
0.378000000000000225,5.637395670577413753
0.379000000000000226,5.635322354748402596
0.380000000000000226,5.632390920555041980
0.381000000000000227,5.628592062911851102
0.382000000000000228,5.623917683332468442
0.383000000000000229,5.618360864077105887
0.384000000000000230,5.611915841560657370
0.385000000000000231,5.604577979098847251
0.386000000000000232,5.596343739067407341
0.387000000000000233,5.587210654546367117
0.388000000000000234,5.577177300518952663
0.389000000000000234,5.566243264691866699
0.390000000000000235,5.554409118001025547
0.391000000000000236,5.541676384864101301
0.392000000000000237,5.528047513238663058
0.393000000000000238,5.513525844541954157
0.394000000000000239,5.498115583485788882
0.395000000000000240,5.481821767877500307
0.396000000000000241,5.464650238435302398
0.397000000000000242,5.446607608663930122
0.398000000000000242,5.427701234834012567
0.399000000000000243,5.407939186106247575
0.400000000000000244,5.387330214839058051
0.401000000000000245,5.365883727116128377
0.402000000000000246,5.343609753528094863
0.403000000000000247,5.320518920240296268
0.404000000000000248,5.296622420376627893
0.405000000000000249,5.271931985747227323
0.406000000000000250,5.246459858945986987
0.407000000000000250,5.220218765841758923
0.408000000000000251,5.193221888485393123
0.409000000000000252,5.165482838452856384
0.410000000000000253,5.137015630643047004
0.411000000000000254,5.107834657547115853
0.412000000000000255,5.077954664004643348
0.413000000000000256,5.047390722460329826
0.414000000000000257,5.016158208733498824
0.415000000000000258,4.984272778311191310
0.416000000000000258,4.951750343174325053
0.417000000000000259,4.918607049165066414
0.418000000000000260,4.884859253902316567
0.419000000000000261,4.850523505251013390
0.420000000000000262,4.815616520349871976
0.421000000000000263,4.780155165200997480
0.422000000000000264,4.744156434823949553
0.423000000000000265,4.707637433975678576
0.424000000000000266,4.670615358436965181
0.425000000000000266,4.633107476865103713
0.426000000000000267,4.595131113211695428
0.427000000000000268,4.556703629703688918
0.428000000000000269,4.517842410385072505
0.429000000000000270,4.478564845215957213
0.430000000000000271,4.438888314725061512
0.431000000000000272,4.398830175211148052
0.432000000000000273,4.358407744488276947
0.433000000000000274,4.317638288169325378
0.434000000000000274,4.276539006481600680
0.435000000000000275,4.235127021608143139
0.436000000000000276,4.193419365547671696
0.437000000000000277,4.151432968485888608
0.438000000000000278,4.109184647670495849
0.439000000000000279,4.066691096781923420
0.440000000000000280,4.023968875791482880
0.441000000000000281,3.981034401298491954
0.442000000000000282,3.937903937337506655
0.443000000000000282,3.894593586646826200
0.444000000000000283,3.851119282389004805
0.445000000000000284,3.807496780314188811
0.446000000000000285,3.763741651356760975
0.447000000000000286,3.719869274655796865
0.448000000000000287,3.675894830989667295
0.449000000000000288,3.631833296615111006
0.450000000000000289,3.587699437500954325
0.451000000000000290,3.543507803946744694
0.452000000000000290,3.499272725576398013
0.453000000000000291,3.455008306697072928
0.454000000000000292,3.410728422013440397
0.455000000000000293,3.366446712687500842
0.456000000000000294,3.322176582734237549
0.457000000000000295,3.277931195743330584
0.458000000000000296,3.233723471917278491
0.459000000000000297,3.189566085416345231
0.460000000000000298,3.145471462000741347
0.461000000000000298,3.101451776960703288
0.462000000000000299,3.057518953325021105
0.463000000000000300,3.013684660338839194
0.464000000000000301,2.969960312201555208
0.465000000000000302,2.926357067055866512
0.466000000000000303,2.882885826218959391
0.467000000000000304,2.839557233647185264
0.468000000000000305,2.796381675625522867
0.469000000000000306,2.753369280673338970
0.470000000000000306,2.710529919658126730
0.471000000000000307,2.667873206108943407
0.472000000000000308,2.625408496721565399
0.473000000000000309,2.583144892047359420
0.474000000000000310,2.541091237358217292
0.475000000000000311,2.499256123679797437
0.476000000000000312,2.457647888985843743
0.477000000000000313,2.416274619546037172
0.478000000000000314,2.375144151420480743
0.479000000000000314,2.334264072093691134
0.480000000000000315,2.293641722241380521
0.481000000000000316,2.253284197623329099
0.482000000000000317,2.213198351095898353
0.483000000000000318,2.173390794737837250
0.484000000000000319,2.133867902083223633
0.485000000000000320,2.094635810455560687
0.486000000000000321,2.055700423397134990
0.487000000000000322,2.017067413187999314
0.488000000000000322,1.978742223449021953
0.489000000000000323,1.940730071823650205
0.490000000000000324,1.903035952733142411
0.491000000000000325,1.865664640200242363
0.492000000000000326,1.828620690736331600
0.493000000000000327,1.791908446287353573
0.494000000000000328,1.755532037233846321
0.495000000000000329,1.719495385440630741
0.496000000000000330,1.683802207351847713
0.497000000000000330,1.648456017127100326
0.498000000000000331,1.613460129814723532
0.499000000000000332,1.578817664558259670
0.500000000000000333,1.544531547832293850
0.501000000000000334,1.510604516704122213
0.502000000000000335,1.477039122117638659
0.503000000000000336,1.443837732196147972
0.504000000000000337,1.411002535560757165
0.505000000000000338,1.378535544661289913
0.506000000000000338,1.346438599116664747
0.507000000000000339,1.314713369061835113
0.508000000000000340,1.283361358498554150
0.509000000000000341,1.252383908647244359
0.510000000000000342,1.221782201297454851
0.511000000000000343,1.191557262154419705
0.512000000000000344,1.161709964179405086
0.513000000000000345,1.132241030921591562
0.514000000000000346,1.103151039839316283
0.515000000000000346,1.074440425608697902
0.516000000000000347,1.046109483417631658
0.517000000000000348,1.018158372243333609
0.518000000000000349,0.990587118111643461
0.519000000000000350,0.963395617336434418
0.520000000000000351,0.936583639737519791
0.521000000000000352,0.910150831835531582
0.522000000000000353,0.884096720022397364
0.523000000000000353,0.858420713705972838
0.524000000000000354,0.833122108427664876
0.525000000000000355,0.808200088951734896
0.526000000000000356,0.783653732325251817
0.527000000000000357,0.759482010907569505
0.528000000000000358,0.735683795368333171
0.529000000000000359,0.712257857653155080
0.530000000000000360,0.689202873916022418
0.531000000000000361,0.666517427417667063
0.532000000000000361,0.644200011389149396
0.533000000000000362,0.622249031859969604
0.534000000000000363,0.600662810450082407
0.535000000000000364,0.579439587125203603
0.536000000000000365,0.558577522914938451
0.537000000000000366,0.538074702593193011
0.538000000000000367,0.517929137320495281
0.539000000000000368,0.498138767247789882
0.540000000000000369,0.478701464081409622
0.541000000000000369,0.459615033608895274
0.542000000000000370,0.440877218185449560
0.543000000000000371,0.422485699180752683
0.544000000000000372,0.404438099386010386
0.545000000000000373,0.386731985381074117
0.546000000000000374,0.369364869861515288
0.547000000000000375,0.352334213925609041
0.548000000000000376,0.335637429321152647
0.549000000000000377,0.319271880652147788
0.550000000000000377,0.303234887545311971
0.551000000000000378,0.287523726776534594
0.552000000000000379,0.272135634357284772
0.553000000000000380,0.257067807581118191
0.554000000000000381,0.242317407030390009
0.555000000000000382,0.227881558543304497
0.556000000000000383,0.213757355141515809
0.557000000000000384,0.199941858918411208
0.558000000000000385,0.186432102888347828
0.559000000000000385,0.173225092797021779
0.560000000000000386,0.160317808893250341
0.561000000000000387,0.147707207662413742
0.562000000000000388,0.135390223521860503
0.563000000000000389,0.123363770478522830
0.564000000000000390,0.111624743749121486
0.565000000000000391,0.100170021343223906
0.566000000000000392,0.088996465609523387
0.567000000000000393,0.078100924745673941
0.568000000000000393,0.067480234272057640
0.569000000000000394,0.057131218469821256
0.570000000000000395,0.047050691783597720
0.571000000000000396,0.037235460189282553
0.572000000000000397,0.027682322527248126
0.573000000000000398,0.018388071801429172
0.574000000000000399,0.009349496444665800
0.575000000000000400,0.000563381550735770
0.576000000000000401,-0.007973489926506228
0.577000000000000401,-0.016264336006467421
0.578000000000000402,-0.024312374547173964
0.579000000000000403,-0.032120822142227057
0.580000000000000404,-0.039692893048925523
0.581000000000000405,-0.047031798147080556
0.582000000000000406,-0.054140743928121446
0.583000000000000407,-0.061022931513983233
0.584000000000000408,-0.067681555705398980
0.585000000000000409,-0.074119804059070871
0.586000000000000409,-0.080340855993315238
0.587000000000000410,-0.086347881921726627
0.588000000000000411,-0.092144042414353353
0.589000000000000412,-0.097732487386022318
0.590000000000000413,-0.103116355311255847
0.591000000000000414,-0.108298772465402510
0.592000000000000415,-0.113282852191506439
0.593000000000000416,-0.118071694192440527
0.594000000000000417,-0.122668383847881479
0.595000000000000417,-0.127075991555681334
0.596000000000000418,-0.131297572097146431
0.597000000000000419,-0.135336164025843336
0.598000000000000420,-0.139194789079421094
0.599000000000000421,-0.142876451614069144
0.600000000000000422,-0.146384138061136482
0.601000000000000423,-0.149720816405482043
0.602000000000000424,-0.152889435685143210
0.603000000000000425,-0.155892925511893515
0.604000000000000425,-0.158734195612223322
0.605000000000000426,-0.161416135388382342
0.606000000000000427,-0.163941613499038935
0.607000000000000428,-0.166313477459110792
0.608000000000000429,-0.168534553258444630
0.609000000000000430,-0.170607644998819918
0.610000000000000431,-0.172535534548999780
0.611000000000000432,-0.174320981217329696
0.612000000000000433,-0.175966721441550039
0.613000000000000433,-0.177475468495424449
0.614000000000000434,-0.178849912211785145
0.615000000000000435,-0.180092718721617973
0.616000000000000436,-0.181206530208827876
0.617000000000000437,-0.182193964680317150
0.618000000000000438,-0.183057615750976593
0.619000000000000439,-0.183800052443264139
0.620000000000000440,-0.184423819001007239
