# Fe2O3-001O_HSPSCA-JS
# h[nm],U(h)[kJ/mol]
0.149999999999999994,133.235370863485343307
0.150999999999999995,132.022483255365870036
0.151999999999999996,129.960796643623240243
0.152999999999999997,127.753911327207831050
0.153999999999999998,125.652856320857011951
0.154999999999999999,123.698722411831028012
0.156000000000000000,121.852657672925303700
0.157000000000000001,120.059877465205047997
0.158000000000000002,118.276689687102432913
0.159000000000000002,116.478101378032562252
0.160000000000000003,114.656285944961723544
0.161000000000000004,112.815640860612205643
0.162000000000000005,110.967399359993493135
0.163000000000000006,109.125136352516577176
0.164000000000000007,107.301603589664296123
0.165000000000000008,105.506863552302235121
0.166000000000000009,103.747485725753989527
0.167000000000000010,102.026509025083285565
0.168000000000000010,100.343889754770913214
0.169000000000000011,98.697203601218760127
0.170000000000000012,97.082428838177094121
0.171000000000000013,95.494693563024185323
0.172000000000000014,93.928916617357245400
0.173000000000000015,92.380308091815322769
0.174000000000000016,90.844721335260032902
0.175000000000000017,89.318865573800152902
0.176000000000000018,87.800398352307595928
0.177000000000000018,86.287921791722325793
0.178000000000000019,84.780907669362406409
0.179000000000000020,83.279574868412893807
0.180000000000000021,81.784739818277401469
0.181000000000000022,80.297656912467715529
0.182000000000000023,78.819862076811574525
0.183000000000000024,77.353029020110653846
0.184000000000000025,75.898844444957035194
0.185000000000000026,74.458905737767395294
0.186000000000000026,73.034642430300721117
0.187000000000000027,71.627261016641938340
0.188000000000000028,70.237711475682786499
0.189000000000000029,68.866673028364346010
0.190000000000000030,67.514556183200397754
0.191000000000000031,66.181517924511183537
0.192000000000000032,64.867486911203215527
0.193000000000000033,63.572195722440525856
0.194000000000000034,62.295217460820289546
0.195000000000000034,61.036004362706918869
0.196000000000000035,59.793926436310108841
0.197000000000000036,58.568308525462256853
0.198000000000000037,57.358464561979687346
0.199000000000000038,56.163728108715169185
0.200000000000000039,54.983478600329178221
0.201000000000000040,53.817162954578442680
0.202000000000000041,52.664312451643084501
0.203000000000000042,51.524554963005677166
0.204000000000000042,50.397622756574897096
0.205000000000000043,49.283356214136304629
0.206000000000000044,48.181703874502844087
0.207000000000000045,47.092719264979876925
0.208000000000000046,46.016555009099405993
0.209000000000000047,44.953454704077557835
0.210000000000000048,43.903743050947646509
0.211000000000000049,42.867814697353516351
0.212000000000000050,41.846122220721738927
0.213000000000000050,40.839163640758016527
0.214000000000000051,39.847469807319669144
0.215000000000000052,38.871591964721993406
0.216000000000000053,37.912089748093826813
0.217000000000000054,36.969519822833397882
0.218000000000000055,36.044425335558500478
0.219000000000000056,35.137326304961639778
0.220000000000000057,34.248711044208711485
0.221000000000000058,33.379028673309491637
0.222000000000000058,32.528682750416649583
0.223000000000000059,31.698026025337107114
0.224000000000000060,30.887356296605155137
0.225000000000000061,30.096913335139230838
0.226000000000000062,29.326876822583169968
0.227000000000000063,28.577365240679363012
0.228000000000000064,27.848435639163977129
0.229000000000000065,27.140084203425850262
0.230000000000000066,26.452247539241284358
0.231000000000000066,25.784804589991598078
0.232000000000000067,25.137579101611159160
0.233000000000000068,24.510342551827097424
0.234000000000000069,23.902817462788863878
0.235000000000000070,23.314681019710839394
0.236000000000000071,22.745568922451862903
0.237000000000000072,22.195079401839102218
0.238000000000000073,21.662777337840484648
0.239000000000000073,21.148198422250082729
0.240000000000000074,20.650853314241199854
0.241000000000000075,20.170231742856948642
0.242000000000000076,19.705806516148609120
0.243000000000000077,19.257037402164790763
0.244000000000000078,18.823374852274952218
0.245000000000000079,18.404263542331090520
0.246000000000000080,17.999145711894499300
0.247000000000000081,17.607464286152598731
0.248000000000000081,17.228665769208404868
0.249000000000000082,16.862202901131947641
0.250000000000000111,16.507537074515830966
0.251000000000000112,16.164140509280009894
0.252000000000000113,15.831498187130629063
0.253000000000000114,15.509109549407151363
0.254000000000000115,15.196489964063335520
0.255000000000000115,14.893171969240114549
0.256000000000000116,14.598706302318316119
0.257000000000000117,14.312662724507124068
0.258000000000000118,14.034630651950731561
0.259000000000000119,13.764219605039361483
0.260000000000000120,13.501059488114142582
0.261000000000000121,13.244800712077241300
0.262000000000000122,12.995114172578064782
0.263000000000000123,12.751691096463648734
0.264000000000000123,12.514242769071946881
0.265000000000000124,12.282500154730158215
0.266000000000000125,12.056213422509561184
0.267000000000000126,11.835151388900802871
0.268000000000000127,11.619100888620446099
0.269000000000000128,11.407866084255342543
0.270000000000000129,11.201267724905898504
0.271000000000000130,10.999142363413431767
0.272000000000000131,10.801341541160116577
0.273000000000000131,10.607730948820027095
0.274000000000000132,10.418189570824321066
0.275000000000000133,10.232608820688813722
0.276000000000000134,10.050891673743572952
0.277000000000000135,9.872951803207088872
0.278000000000000136,9.698712724964682508
0.279000000000000137,9.528106955847237103
0.280000000000000138,9.361075189663624840
0.281000000000000139,9.197565494720709722
0.282000000000000139,9.037532536070973066
0.283000000000000140,8.880936825259757583
0.284000000000000141,8.727743999903989192
0.285000000000000142,8.577924135021230967
0.286000000000000143,8.431451087643392128
0.287000000000000144,8.288301875892582160
0.288000000000000145,8.148456093367133946
0.289000000000000146,8.011895359384006099
0.290000000000000147,7.878602805347623139
0.291000000000000147,7.748562597265393315
0.292000000000000148,7.621759494204257024
0.293000000000000149,7.498178442281039580
0.294000000000000150,7.377804203599882094
0.295000000000000151,7.260621019392010211
0.296000000000000152,7.146612306475612186
0.297000000000000153,7.035760386034624503
0.298000000000000154,6.928046243614636168
0.299000000000000155,6.823449319149690773
0.300000000000000155,6.721947325765046166
0.301000000000000156,6.623516096046566659
0.302000000000000157,6.528129454425844358
0.303000000000000158,6.435759114301083272
0.304000000000000159,6.346374598495151176
0.305000000000000160,6.259943181644245236
0.306000000000000161,6.176429853110855461
0.307000000000000162,6.095797299023581139
0.308000000000000163,6.018005902062259160
0.309000000000000163,5.943013757628976990
0.310000000000000164,5.870776705073326163
0.311000000000000165,5.801248372672985099
0.312000000000000166,5.734380235107363610
0.313000000000000167,5.670121682202362123
0.314000000000000168,5.608420097767617740
0.315000000000000169,5.549220947393039616
0.316000000000000170,5.492467874119055793
0.317000000000000171,5.438102800943861226
0.318000000000000171,5.386066039180897214
0.319000000000000172,5.336296401730315608
0.320000000000000173,5.288731320379062240
0.321000000000000174,5.243306966295063987
0.322000000000000175,5.199958372931473782
0.323000000000000176,5.158619560606961585
0.324000000000000177,5.119223662077338588
0.325000000000000178,5.081703048462038907
0.326000000000000179,5.045989454936166574
0.327000000000000179,5.012014105644858830
0.328000000000000180,4.979707837341334375
0.329000000000000181,4.949001221292883557
0.330000000000000182,4.919824683041071900
0.331000000000000183,4.892108619641964751
0.332000000000000184,4.865783514050862735
0.333000000000000185,4.840780046352495702
0.334000000000000186,4.817029201572602837
0.335000000000000187,4.794462373840059577
0.336000000000000187,4.773011466700118000
0.337000000000000188,4.752608989409262463
0.338000000000000189,4.733188149070051587
0.339000000000000190,4.714682938490820874
0.340000000000000191,4.697028219679964423
0.341000000000000192,4.680159802907392752
0.342000000000000193,4.664014521287676018
0.343000000000000194,4.648530300858989328
0.344000000000000195,4.633646226151106440
0.345000000000000195,4.619302601252138984
0.346000000000000196,4.605441006400074144
0.347000000000000197,4.592004350139154312
0.348000000000000198,4.578936917094492465
0.349000000000000199,4.566184411430184831
0.350000000000000200,4.553693996066870753
0.351000000000000201,4.541414327744432100
0.352000000000000202,4.529295588024101704
0.353000000000000203,4.517289510331707447
0.354000000000000203,4.505349403150619381
0.355000000000000204,4.493430169478598302
0.356000000000000205,4.481488322667689594
0.357000000000000206,4.469481998770364228
0.358000000000000207,4.457370965518668626
0.359000000000000208,4.445116628065660436
0.360000000000000209,4.432682031620470475
0.361000000000000210,4.420031861109986693
0.362000000000000210,4.407132438000733288
0.363000000000000211,4.393951714415221588
0.364000000000000212,4.380459264676678899
0.365000000000000213,4.366626274415781772
0.366000000000000214,4.352425527371918790
0.367000000000000215,4.337831390020342681
0.368000000000000216,4.322819794154857398
0.369000000000000217,4.307368217553905865
0.370000000000000218,4.291455662855632625
0.371000000000000218,4.275062634765170344
0.372000000000000219,4.258171115714714183
0.373000000000000220,4.240764540094166257
0.374000000000000221,4.222827767167181889
0.375000000000000222,4.204347052784372707
0.376000000000000223,4.185310020002008358
0.377000000000000224,4.165705628711561914
0.378000000000000225,4.145524144381689702
0.379000000000000226,4.124757106011073482
0.380000000000000226,4.103397293386780831
0.381000000000000227,4.081438693739469770
0.382000000000000228,4.058876467883064443
0.383000000000000229,4.035706915922982141
0.384000000000000230,4.011927442613517414
0.385000000000000231,3.987536522441250675
0.386000000000000232,3.962533664508073095
0.387000000000000233,3.936919377283681687
0.388000000000000234,3.910695133294163295
0.389000000000000234,3.883863333809711715
0.390000000000000235,3.856427273591324756
0.391000000000000236,3.828391105752924517
0.392000000000000237,3.799759806792230243
0.393000000000000238,3.770539141840485886
0.394000000000000239,3.740735630178119386
0.395000000000000240,3.710356511060410867
0.396000000000000241,3.679409709894313263
0.397000000000000242,3.647903804804760508
0.398000000000000242,3.615847993626014389
0.399000000000000243,3.583252061351016149
0.400000000000000244,3.550126348069059024
0.401000000000000245,3.516481717419561726
0.402000000000000246,3.482329525587580576
0.403000000000000247,3.447681590863981516
0.404000000000000248,3.412550163791395530
0.405000000000000249,3.376947897914580832
0.406000000000000250,3.340887821152065840
0.407000000000000250,3.304383307803738568
0.408000000000000251,3.267448051207370696
0.409000000000000252,3.230096037055118607
0.410000000000000253,3.192341517379440052
0.411000000000000254,3.154198985216170037
0.412000000000000255,3.115683149951020248
0.413000000000000256,3.076808913354162733
0.414000000000000257,3.037591346306371953
0.415000000000000258,2.998045666218627670
0.416000000000000258,2.958187215146111715
0.417000000000000259,2.918031438596055960
0.418000000000000260,2.877593865028080788
0.419000000000000261,2.836890086044378645
0.420000000000000262,2.795935737266320054
0.421000000000000263,2.754746479892930200
0.422000000000000264,2.713337982936125492
0.423000000000000265,2.671725906126467986
0.424000000000000266,2.629925883482694182
0.425000000000000266,2.587953507537543274
0.426000000000000267,2.545824314211703410
0.427000000000000268,2.503553768327174023
0.428000000000000269,2.461157249750821396
0.429000000000000270,2.418650040158376147
0.430000000000000271,2.376047310408704760
0.431000000000000272,2.333364108517751667
0.432000000000000273,2.290615348221286318
0.433000000000000274,2.247815798115136765
0.434000000000000274,2.204980071361368754
0.435000000000000275,2.162122615948714799
0.436000000000000276,2.119257705495138033
0.437000000000000277,2.076399430580424088
0.438000000000000278,2.033561690596457527
0.439000000000000279,1.990758186102699723
0.440000000000000280,1.948002411674327750
0.441000000000000281,1.905307649230453704
0.442000000000000282,1.862686961829643995
0.443000000000000282,1.820153187920193760
0.444000000000000283,1.777718936032315566
0.445000000000000284,1.735396579899671110
0.446000000000000285,1.693198253997556524
0.447000000000000286,1.651135849485132256
0.448000000000000287,1.609221010539256369
0.449000000000000288,1.567465131067408590
0.450000000000000289,1.525879351787423399
0.451000000000000290,1.484474557661821681
0.452000000000000290,1.443261375674609104
0.453000000000000291,1.402250172938643624
0.454000000000000292,1.361451055121733589
0.455000000000000293,1.320873865179818640
0.456000000000000294,1.280528182385786140
0.457000000000000295,1.240423321642577958
0.458000000000000296,1.200568333069488292
0.459000000000000297,1.160972001850718138
0.460000000000000298,1.121642848335401954
0.461000000000000298,1.082589128378637966
0.462000000000000299,1.043818833913086053
0.463000000000000300,1.005339693741084783
0.464000000000000301,0.967159174537281507
0.465000000000000302,0.929284482052152305
0.466000000000000303,0.891722562506815586
0.467000000000000304,0.854480104169923038
0.468000000000000305,0.817563539107563519
0.469000000000000306,0.780979045097295099
0.470000000000000306,0.744732547697707803
0.471000000000000307,0.708829722465123435
0.472000000000000308,0.673275997309223939
0.473000000000000309,0.638076554979623567
0.474000000000000310,0.603236335675723323
0.475000000000000311,0.568760039772167159
0.476000000000000312,0.534652130652777946
0.477000000000000313,0.500916837645655422
0.478000000000000314,0.467558159052752498
0.479000000000000314,0.434579865267088583
0.480000000000000315,0.401985501971239223
0.481000000000000316,0.369778393410760464
0.482000000000000317,0.337961645736550076
0.483000000000000318,0.306538150410228138
0.484000000000000319,0.275510587666905504
0.485000000000000320,0.244881430029872671
0.486000000000000321,0.214652945871892875
0.487000000000000322,0.184827203018052055
0.488000000000000322,0.155406072385246119
0.489000000000000323,0.126391231653574604
0.490000000000000324,0.097784168965080104
0.491000000000000325,0.069586186645509557
0.492000000000000326,0.041798404944853741
0.493000000000000327,0.014421765792639008
0.494000000000000328,-0.012542963435866694
0.495000000000000329,-0.039095186146292774
0.496000000000000330,-0.065234472748129324
0.497000000000000330,-0.090960556877525509
0.498000000000000331,-0.116273331623018977
0.499000000000000332,-0.141172845757433135
0.500000000000000333,-0.165659299978854591
0.501000000000000334,-0.189733043163470588
0.502000000000000335,-0.213394568633037185
0.503000000000000336,-0.236644510439444039
0.504000000000000337,-0.259483639668890209
0.505000000000000338,-0.281912860767897400
0.506000000000000338,-0.303933207893392343
0.507000000000000339,-0.325545841288915228
0.508000000000000340,-0.346752043688871414
0.509000000000000341,-0.367553216752735501
0.510000000000000342,-0.387950877530845673
0.511000000000000343,-0.407946654963533217
0.512000000000000344,-0.427542286415002248
0.513000000000000345,-0.446739614243449268
0.514000000000000346,-0.465540582408805304
0.515000000000000346,-0.483947233119225273
0.516000000000000347,-0.501961703517582847
0.517000000000000348,-0.519586222409027187
0.518000000000000349,-0.536823107030545588
0.519000000000000350,-0.553674759863494570
0.520000000000000351,-0.570143665489898810
0.521000000000000352,-0.586232387493319851
0.522000000000000353,-0.601943565404909564
0.523000000000000353,-0.617279911695363004
0.524000000000000354,-0.632244208813258379
0.525000000000000355,-0.646839306270302616
0.526000000000000356,-0.661068117773893626
0.527000000000000357,-0.674933618407407510
0.528000000000000358,-0.688438841858505568
0.529000000000000359,-0.701586877695707267
0.530000000000000360,-0.714380868693466065
0.531000000000000361,-0.726824008205911198
0.532000000000000361,-0.738919537589356246
0.533000000000000362,-0.750670743673643615
0.534000000000000363,-0.762080956282352395
0.535000000000000364,-0.773153545801890330
0.536000000000000365,-0.783891920799340114
0.537000000000000366,-0.794299525689056041
0.538000000000000367,-0.804379838447793816
0.539000000000000368,-0.814136368378322928
0.540000000000000369,-0.823572653921202269
0.541000000000000369,-0.832692260514616756
0.542000000000000370,-0.841498778501911127
0.543000000000000371,-0.849995821086637626
0.544000000000000372,-0.858187022334745420
0.545000000000000373,-0.866076035223615315
0.546000000000000374,-0.873666529737574526
0.547000000000000375,-0.880962191009506013
0.548000000000000376,-0.887966717508194003
0.549000000000000377,-0.894683819270934322
0.550000000000000377,-0.901117216181047231
0.551000000000000378,-0.907270636289755794
0.552000000000000379,-0.913147814182065920
0.553000000000000380,-0.918752489386081783
0.554000000000000381,-0.924088404825293197
0.555000000000000382,-0.929159305313391415
0.556000000000000383,-0.933968936090949775
0.557000000000000384,-0.938521041403630241
0.558000000000000385,-0.942819363121202181
0.559000000000000385,-0.946867639396951288
0.560000000000000386,-0.950669603366876337
0.561000000000000387,-0.954228981888110228
0.562000000000000388,-0.957549494315993455
0.563000000000000389,-0.960634851319288607
0.564000000000000390,-0.963488753732853587
0.565000000000000391,-0.966114891447294233
0.566000000000000392,-0.968516942334940345
0.567000000000000393,-0.970698571211615069
0.568000000000000393,-0.972663428833541843
0.569000000000000394,-0.974415150928862106
0.570000000000000395,-0.975957357263144809
0.571000000000000396,-0.977293650738254804
0.572000000000000397,-0.978427616524085275
0.573000000000000398,-0.979362821222448665
0.574000000000000399,-0.980102812062621509
0.575000000000000400,-0.980651116127893019
0.576000000000000401,-0.981011239612560870
0.577000000000000401,-0.981186667108800092
0.578000000000000402,-0.981180860922766351
0.579000000000000403,-0.980997260419396278
0.580000000000000404,-0.980639281395336737
0.581000000000000405,-0.980110315479365446
0.582000000000000406,-0.979413729559815871
0.583000000000000407,-0.978552865238345171
0.584000000000000408,-0.977531038309579214
0.585000000000000409,-0.976351538265994301
0.586000000000000409,-0.975017627827513556
0.587000000000000410,-0.973532542495306963
0.588000000000000411,-0.971899490129146115
0.589000000000000412,-0.970121650547922321
0.590000000000000413,-0.968202175152641176
0.591000000000000414,-0.966144186571473940
0.592000000000000415,-0.963950778326319480
0.593000000000000416,-0.961625014520314125
0.594000000000000417,-0.959169929545828692
0.595000000000000417,-0.956588527812468614
0.596000000000000418,-0.953883783494472226
0.597000000000000419,-0.951058640297176794
0.598000000000000420,-0.948116011241898149
0.599000000000000421,-0.945058778468892746
0.600000000000000422,-0.941889793057827829
0.601000000000000423,-0.938611874865337037
0.602000000000000424,-0.935227812379208268
0.603000000000000425,-0.931740362588757476
0.604000000000000425,-0.928152250870882156
0.605000000000000426,-0.924466170891445338
0.606000000000000427,-0.920684784521524691
0.607000000000000428,-0.916810721768028580
0.608000000000000429,-0.912846580718438938
0.609000000000000430,-0.908794927499032790
0.610000000000000431,-0.904658296246426574
0.611000000000000432,-0.900439189091843395
0.612000000000000433,-0.896140076157826870
0.613000000000000433,-0.891763395567001682
0.614000000000000434,-0.887311553462479141
0.615000000000000435,-0.882786924039541510
0.616000000000000436,-0.878191849588254692
0.617000000000000437,-0.873528640546693547
