# Fe2O3-001O_HISTIDINEZWITTER
# h[nm],U(h)[kJ/mol]
0.149999999999999994,183.977460553661018139
0.150999999999999995,179.226906661513169183
0.151999999999999996,176.489099715894468545
0.152999999999999997,174.182172279707941698
0.153999999999999998,171.739998381899681590
0.154999999999999999,169.066585941881129429
0.156000000000000000,166.244449263969187314
0.157000000000000001,163.391461891143364937
0.158000000000000002,160.600727510568532352
0.159000000000000002,157.923898275225582211
0.160000000000000003,155.374839375564675947
0.161000000000000004,152.940800725531147464
0.162000000000000005,150.594482688478876753
0.163000000000000006,148.304026720313487431
0.164000000000000007,146.039986919057866999
0.165000000000000008,143.779374987778226114
0.166000000000000009,141.507325089948380992
0.167000000000000010,139.217053091756127969
0.168000000000000010,136.908744865223525267
0.169000000000000011,134.587894845341480732
0.170000000000000012,132.263482288075351789
0.171000000000000013,129.946246649278720042
0.172000000000000014,127.647217841193452159
0.173000000000000015,125.376575611581984049
0.174000000000000016,123.142853953682589463
0.175000000000000017,120.952468058968207743
0.176000000000000018,118.809518855843947449
0.177000000000000018,116.715819663713915588
0.178000000000000019,114.671087412362950886
0.179000000000000020,112.673244325097442697
0.180000000000000021,110.718782671094388093
0.181000000000000022,108.803153472544551050
0.182000000000000023,106.921148718121571619
0.183000000000000024,105.067254901306483816
0.184000000000000025,103.235963096705887665
0.185000000000000026,101.422027067052084703
0.186000000000000026,99.620665978928428785
0.187000000000000027,97.827712227056451866
0.188000000000000028,96.039707724103934083
0.189000000000000029,94.253953941776629222
0.190000000000000030,92.468522141144873672
0.191000000000000031,90.682230757729868742
0.192000000000000032,88.894596952423569292
0.193000000000000033,87.105769030365166827
0.194000000000000034,85.316445876176530305
0.195000000000000034,83.527788846676216394
0.196000000000000035,81.741330774695910577
0.197000000000000036,79.958885926859110782
0.198000000000000037,78.182463966608906958
0.199000000000000038,76.414190231481015303
0.200000000000000039,74.656233960418916240
0.201000000000000040,72.910745514342778506
0.202000000000000041,71.179803126244081568
0.203000000000000042,69.465369295901808755
0.204000000000000042,67.769256605443246144
0.205000000000000043,66.093102469504756868
0.206000000000000044,64.438352140215158670
0.207000000000000045,62.806249154348222419
0.208000000000000046,61.197832329195385626
0.209000000000000047,59.613938376550564158
0.210000000000000048,58.055209202651113287
0.211000000000000049,56.522102988572875404
0.212000000000000050,55.014908193744965104
0.213000000000000050,53.533759689056083175
0.214000000000000051,52.078656300370539611
0.215000000000000052,50.649479123870833064
0.216000000000000053,49.246010057935215798
0.217000000000000054,47.867950079370920946
0.218000000000000055,46.514936872504371479
0.219000000000000056,45.186561496172103602
0.220000000000000057,43.882383844820161301
0.221000000000000058,42.601946724888151152
0.222000000000000058,41.344788425920818042
0.223000000000000059,40.110453717218042868
0.224000000000000060,38.898503245302862297
0.225000000000000061,37.708521345248655621
0.226000000000000062,36.540122310276402118
0.227000000000000063,35.392955189424839091
0.228000000000000064,34.266707202991099734
0.229000000000000065,33.161105880349069253
0.230000000000000066,32.075920035220860882
0.231000000000000066,31.010959700031129671
0.232000000000000067,29.966075144147044540
0.233000000000000068,28.941155101094523161
0.234000000000000069,27.936124327720911253
0.235000000000000070,26.950940614181774890
0.236000000000000071,25.985591357967599890
0.237000000000000072,25.040089808313375386
0.238000000000000073,24.114471079576475177
0.239000000000000073,23.208788023807702672
0.240000000000000074,22.323107044019138812
0.241000000000000075,21.457503920788735030
0.242000000000000076,20.612059716005212806
0.243000000000000077,19.786856808898470206
0.244000000000000078,18.981975111138972068
0.245000000000000079,18.197488499817115581
0.246000000000000080,17.433461499603730260
0.247000000000000081,16.689946238395044986
0.248000000000000081,15.966979694297126713
0.249000000000000082,15.264581245924736308
0.250000000000000111,14.582750532684226386
0.251000000000000112,13.921465626979117047
0.252000000000000113,13.280681516105241613
0.253000000000000114,12.660328887976380230
0.254000000000000115,12.060313211710280257
0.255000000000000115,11.480514101487969469
0.256000000000000116,10.920784949938999731
0.257000000000000117,10.380952815572532799
0.258000000000000118,9.860818547433456871
0.259000000000000119,9.360157129178102053
0.260000000000000120,8.878718224102408740
0.261000000000000121,8.416226902282680555
0.262000000000000122,7.972384530870805008
0.263000000000000123,7.546869808692669324
0.264000000000000123,7.139339926598205821
0.265000000000000124,6.749431835478165276
0.266000000000000125,6.376763604467617697
0.267000000000000126,6.020935852577530056
0.268000000000000127,5.681533237808091386
0.269000000000000128,5.358125988684011354
0.270000000000000129,5.050271464090871021
0.271000000000000130,4.757515728267985189
0.272000000000000131,4.479395128812830862
0.273000000000000131,4.215437866560007407
0.274000000000000132,3.965165547204525076
0.275000000000000133,3.728094705533484987
0.276000000000000134,3.503738294104709272
0.277000000000000135,3.291607129157989586
0.278000000000000136,3.091211287457920065
0.279000000000000137,2.902061448643153074
0.280000000000000138,2.723670178490825045
0.281000000000000139,2.555553149293687376
0.282000000000000139,2.397230294290267238
0.283000000000000140,2.248226893782367064
0.284000000000000141,2.108074591220051808
0.285000000000000142,1.976312338130719493
0.286000000000000143,1.852487267316971664
0.287000000000000144,1.736155494248494024
0.288000000000000145,1.626882847026146717
0.289000000000000146,1.524245525705393289
0.290000000000000147,1.427830692129917756
0.291000000000000147,1.337236991749547910
0.292000000000000148,1.252075009178632792
0.293000000000000149,1.171967659496266245
0.294000000000000150,1.096550517498654953
0.295000000000000151,1.025472087289222900
0.296000000000000152,0.958394014736784428
0.297000000000000153,0.894991245446629669
0.298000000000000154,0.834952130978088958
0.299000000000000155,0.777978486105218581
0.300000000000000155,0.723785599958132186
0.301000000000000156,0.672102203902688933
0.302000000000000157,0.622670399017478671
0.303000000000000158,0.575245546011912134
0.304000000000000159,0.529596120398502679
0.305000000000000160,0.485503535689116361
0.306000000000000161,0.442761937329193001
0.307000000000000162,0.401177970018441576
0.308000000000000163,0.360570520992266885
0.309000000000000163,0.320770441756122349
0.310000000000000164,0.281620250677029449
0.311000000000000165,0.242973818743428632
0.312000000000000166,0.204696040707133958
0.313000000000000167,0.166662493721185051
0.314000000000000168,0.128759085484780739
0.315000000000000169,0.090881693802735974
0.316000000000000170,0.052935799362321276
0.317000000000000171,0.014836113425977560
0.318000000000000171,-0.023493797965543572
0.319000000000000172,-0.062121891788075333
0.320000000000000173,-0.101108026436541459
0.321000000000000174,-0.140504339444012999
0.322000000000000175,-0.180355623323476155
0.323000000000000176,-0.220699698432779201
0.324000000000000177,-0.261567781854992520
0.325000000000000178,-0.302984851374889230
0.326000000000000179,-0.344970003717814389
0.327000000000000179,-0.387536806299073389
0.328000000000000180,-0.430693641810552308
0.329000000000000181,-0.474444045046625462
0.330000000000000182,-0.518787031442341284
0.331000000000000183,-0.563717416865476717
0.332000000000000184,-0.609226128267707390
0.333000000000000185,-0.655300504861309641
0.334000000000000186,-0.701924589544854927
0.335000000000000187,-0.749079410355059538
0.336000000000000187,-0.796743251772449201
0.337000000000000188,-0.844891915755061618
0.338000000000000189,-0.893498972418644732
0.339000000000000190,-0.942536000322014234
0.340000000000000191,-0.991972816353618336
0.341000000000000192,-1.041777695250379443
0.342000000000000193,-1.091917578810913003
0.343000000000000194,-1.142358274894878623
0.344000000000000195,-1.193064646325695533
0.345000000000000195,-1.244000789838668464
0.346000000000000196,-1.295130205237081888
0.347000000000000197,-1.346415954938680049
0.348000000000000198,-1.397820814111571108
0.349000000000000199,-1.449307411613756980
0.350000000000000200,-1.500838361963551026
0.351000000000000201,-1.552376388579385758
0.352000000000000202,-1.603884438537001689
0.353000000000000203,-1.655325789100155376
0.354000000000000203,-1.706664146287350192
0.355000000000000204,-1.757863735742135614
0.356000000000000205,-1.808889386178465397
0.357000000000000206,-1.859706605675275792
0.358000000000000207,-1.910281651095589339
0.359000000000000208,-1.960581590906397498
0.360000000000000209,-2.010574361674949184
0.361000000000000210,-2.060228818515548621
0.362000000000000210,-2.109514779759329439
0.363000000000000211,-2.158403066116329594
0.364000000000000212,-2.206865534595914724
0.365000000000000213,-2.254875107447598559
0.366000000000000214,-2.302405796379764613
0.367000000000000215,-2.349432722308796073
0.368000000000000216,-2.395932130885924938
0.369000000000000217,-2.441881404043103831
0.370000000000000218,-2.487259067793487155
0.371000000000000218,-2.532044796515566354
0.372000000000000219,-2.576219413943741987
0.373000000000000220,-2.619764891081346025
0.374000000000000221,-2.662664341245249311
0.375000000000000222,-2.704902012444329706
0.376000000000000223,-2.746463277287293892
0.377000000000000224,-2.787334620607894831
0.378000000000000225,-2.827503624988922049
0.379000000000000226,-2.866958954358995726
0.380000000000000226,-2.905690335829522741
0.381000000000000227,-2.943688539931684556
0.382000000000000228,-2.980945359406969253
0.383000000000000229,-3.017453586697532053
0.384000000000000230,-3.053206990275995292
0.385000000000000231,-3.088200289947946597
0.386000000000000232,-3.122429131253407597
0.387000000000000233,-3.155890059087629318
0.388000000000000234,-3.188580490654943755
0.389000000000000234,-3.220498687863678988
0.390000000000000235,-3.251643729263783200
0.391000000000000236,-3.282015481623454356
0.392000000000000237,-3.311614571235044657
0.393000000000000238,-3.340442355035425859
0.394000000000000239,-3.368500891620394899
0.395000000000000240,-3.395792912227830751
0.396000000000000241,-3.422321791759247223
0.397000000000000242,-3.448091519904629365
0.398000000000000242,-3.473106672430957165
0.399000000000000243,-3.497372382690197234
0.400000000000000244,-3.520894313398539310
0.401000000000000245,-3.543678628734453717
0.402000000000000246,-3.565731966799149610
0.403000000000000247,-3.587061412479530809
0.404000000000000248,-3.607674470749918871
0.405000000000000249,-3.627579040445594760
0.406000000000000250,-3.646783388537774506
0.407000000000000250,-3.665296124936752165
0.408000000000000251,-3.683126177846809846
0.409000000000000252,-3.700282769693819862
0.410000000000000253,-3.716775393643745762
0.411000000000000254,-3.732613790727794090
0.412000000000000255,-3.747807927587499588
0.413000000000000256,-3.762367974851013486
0.414000000000000257,-3.776304286149338996
0.415000000000000258,-3.789627377779806405
0.416000000000000258,-3.802347909021710048
0.417000000000000259,-3.814476663107643439
0.418000000000000260,-3.826024528852194351
0.419000000000000261,-3.837002482938326686
0.420000000000000262,-3.847421572860103112
0.421000000000000263,-3.857292900519454726
0.422000000000000264,-3.866627606472925471
0.423000000000000265,-3.875436854823782973
0.424000000000000266,-3.883731818753413556
0.425000000000000266,-3.891523666685075877
0.426000000000000267,-3.898823549072243821
0.427000000000000268,-3.905642585802966416
0.428000000000000269,-3.911991854210791875
0.429000000000000270,-3.917882377682348594
0.430000000000000271,-3.923325114850887196
0.431000000000000272,-3.928330949364692515
0.432000000000000273,-3.932910680218648203
0.433000000000000274,-3.937075012636998217
0.434000000000000274,-3.940834549494794281
0.435000000000000275,-3.944199783265320836
0.436000000000000276,-3.947181088480505196
0.437000000000000277,-3.949788714691010227
0.438000000000000278,-3.952032779912646898
0.439000000000000279,-3.953923264545525562
0.440000000000000280,-3.955470005752235174
0.441000000000000281,-3.956682692281335623
0.442000000000000282,-3.957570859722425727
0.443000000000000282,-3.958143886178862481
0.444000000000000283,-3.958410988344524206
0.445000000000000284,-3.958381217970766919
0.446000000000000285,-3.958063458709935922
0.447000000000000286,-3.957466423321994053
0.448000000000000287,-3.956598651230600616
0.449000000000000288,-3.955468506415553698
0.450000000000000289,-3.954084175628275410
0.451000000000000290,-3.952453666917397079
0.452000000000000290,-3.950584808451684804
0.453000000000000291,-3.948485247627566253
0.454000000000000292,-3.946162450448983172
0.455000000000000293,-3.943623701167270124
0.456000000000000294,-3.940876102169147632
0.457000000000000295,-3.937926574101104027
0.458000000000000296,-3.934781856218623197
0.459000000000000297,-3.931448506949126731
0.460000000000000298,-3.927932904657506441
0.461000000000000298,-3.924241248603673959
0.462000000000000299,-3.920379560081558079
0.463000000000000300,-3.916353683729407287
0.464000000000000301,-3.912169289001480532
0.465000000000000302,-3.907831871791459744
0.466000000000000303,-3.903346756198180945
0.467000000000000304,-3.898719096424655639
0.468000000000000305,-3.893953878801435398
0.469000000000000306,-3.889055923925833103
0.470000000000000306,-3.884029888908736350
0.471000000000000307,-3.878880269720840879
0.472000000000000308,-3.873611403630709216
0.473000000000000309,-3.868227471727097022
0.474000000000000310,-3.862732501518241435
0.475000000000000311,-3.857130369601265762
0.476000000000000312,-3.851424804394890877
0.477000000000000313,-3.845619388929021998
0.478000000000000314,-3.839717563684935442
0.479000000000000314,-3.833722629480212252
0.480000000000000315,-3.827637750392508309
0.481000000000000316,-3.821465956716841195
0.482000000000000317,-3.815210147950968356
0.483000000000000318,-3.808873095803912090
0.484000000000000319,-3.802457447222760578
0.485000000000000320,-3.795965727433162407
0.486000000000000321,-3.789400342989114989
0.487000000000000322,-3.782763584827855574
0.488000000000000322,-3.776057631325824282
0.489000000000000323,-3.769284551352028778
0.490000000000000324,-3.762446307315087779
0.491000000000000325,-3.755544758200619615
0.492000000000000326,-3.748581662595674491
0.493000000000000327,-3.741558681697276789
0.494000000000000328,-3.734477382302038961
0.495000000000000329,-3.727339239774290380
0.496000000000000330,-3.720145640990003333
0.497000000000000330,-3.712897887254315243
0.498000000000000331,-3.705597197190148684
0.499000000000000332,-3.698244709596084423
0.500000000000000333,-3.690841486271365657
0.501000000000000334,-3.683388514806223757
0.502000000000000335,-3.675886711335908164
0.503000000000000336,-3.668336923256787063
0.504000000000000337,-3.660739931903130184
0.505000000000000338,-3.653096455183170832
0.506000000000000338,-3.645407150173352484
0.507000000000000339,-3.637672615669552023
0.508000000000000340,-3.629893394694325259
0.509000000000000341,-3.622069976959350068
0.510000000000000342,-3.614202801282106581
0.511000000000000343,-3.606292257956292158
0.512000000000000344,-3.598338691075167795
0.513000000000000345,-3.590342400807418954
0.514000000000000346,-3.582303645625114719
0.515000000000000346,-3.574222644483237676
0.516000000000000347,-3.566099578950634452
0.517000000000000348,-3.557934595292154167
0.518000000000000349,-3.549727806501685734
0.519000000000000350,-3.541479294286177915
0.520000000000000351,-3.533189111000456961
0.521000000000000352,-3.524857281533005704
0.522000000000000353,-3.516483805142637031
0.523000000000000353,-3.508068657246318001
0.524000000000000354,-3.499611791158285801
0.525000000000000355,-3.491113139780652297
0.526000000000000356,-3.482572617245808466
0.527000000000000357,-3.473990120510932478
0.528000000000000358,-3.465365530904970459
0.529000000000000359,-3.456698715628428342
0.530000000000000360,-3.447989529206465953
0.531000000000000361,-3.439237814895693468
0.532000000000000361,-3.430443406045211141
0.533000000000000362,-3.421606127412343490
0.534000000000000363,-3.412725796433649261
0.535000000000000364,-3.403802224451793812
0.536000000000000365,-3.394835217898772406
0.537000000000000366,-3.385824579436233162
0.538000000000000367,-3.376770109053353508
0.539000000000000368,-3.367671605123119694
0.540000000000000369,-3.358528865417430787
0.541000000000000369,-3.349341688081932666
0.542000000000000370,-3.340109872571045635
0.543000000000000371,-3.330833220544066275
0.544000000000000372,-3.321511536722923097
0.545000000000000373,-3.312144629712363120
0.546000000000000374,-3.302732312783251523
0.547000000000000375,-3.293274404619727314
0.548000000000000376,-3.283770730030972196
0.549000000000000377,-3.274221120628259207
0.550000000000000377,-3.264625415468099590
0.551000000000000378,-3.254983461662135369
0.552000000000000379,-3.245295114954637850
0.553000000000000380,-3.235560240268232857
0.554000000000000381,-3.225778712218638766
0.555000000000000382,-3.215950415599240220
0.556000000000000383,-3.206075245836036203
0.557000000000000384,-3.196153109413940818
0.558000000000000385,-3.186183924274942125
0.559000000000000385,-3.176167620189009444
0.560000000000000386,-3.166104139098389059
0.561000000000000387,-3.155993435436021066
0.562000000000000388,-3.145835476418785248
0.563000000000000389,-3.135630242316318483
0.564000000000000390,-3.125377726696025427
0.565000000000000391,-3.115077936645060497
0.566000000000000392,-3.104730892969888689
0.567000000000000393,-3.094336630374183272
0.568000000000000393,-3.083895197615618144
0.569000000000000394,-3.073406657642327566
0.570000000000000395,-3.062871087709639006
0.571000000000000396,-3.052288579477647978
0.572000000000000397,-3.041659239090441780
0.573000000000000398,-3.030983187237397125
0.574000000000000399,-3.020260559197323058
0.575000000000000400,-3.009491504865950517
0.576000000000000401,-2.998676188767405382
0.577000000000000401,-2.987814790050291602
0.578000000000000402,-2.976907502468857381
0.579000000000000403,-2.965954534349873661
0.580000000000000404,-2.954956108545818250
0.581000000000000405,-2.943912462374793648
0.582000000000000406,-2.932823847547840312
0.583000000000000407,-2.921690530084039672
0.584000000000000408,-2.910512790214055734
0.585000000000000409,-2.899290922272494520
0.586000000000000409,-2.888025234579637335
0.587000000000000410,-2.876716049313039925
0.588000000000000411,-2.865363702369387422
0.589000000000000412,-2.853968543217200171
0.590000000000000413,-2.842530934740670201
0.591000000000000414,-2.831051253075212770
0.592000000000000415,-2.819529887435110904
0.593000000000000416,-2.807967239933617076
0.594000000000000417,-2.796363725395980104
0.595000000000000417,-2.784719771165860447
0.596000000000000418,-2.773035816905288886
0.597000000000000419,-2.761312314388871592
0.598000000000000420,-2.749549727292299739
0.599000000000000421,-2.737748530975753436
0.600000000000000422,-2.725909212262403347
0.601000000000000423,-2.714032269212412363
0.602000000000000424,-2.702118210892775707
0.603000000000000425,-2.690167557143284149
0.604000000000000425,-2.678180838338925174
0.605000000000000426,-2.666158595149039634
0.606000000000000427,-2.654101378293586500
0.607000000000000428,-2.642009748296580973
0.608000000000000429,-2.629884275237345914
0.609000000000000430,-2.617725538499420246
0.610000000000000431,-2.605534126517781157
0.611000000000000432,-2.593310636524321922
0.612000000000000433,-2.581055674291978796
0.613000000000000433,-2.568769853877764131
