# Fe2O3-001O_BSAI12
# h[nm],U(h)[kJ/mol]
0.149999999999999994,136.652191943820298548
0.150999999999999995,134.565831875996707367
0.151999999999999996,132.727156301533966598
0.152999999999999997,130.902075031418831941
0.153999999999999998,129.030754119624020859
0.154999999999999999,127.124296030107942101
0.156000000000000000,125.213139593277020367
0.157000000000000001,123.324434721331954279
0.158000000000000002,121.474692980512145368
0.159000000000000002,119.669735550267915869
0.160000000000000003,117.907504215440937401
0.161000000000000004,116.181439833258167482
0.162000000000000005,114.483378706387085799
0.163000000000000006,112.805607532387924152
0.164000000000000007,111.142070915194111080
0.165000000000000008,109.488881658082803483
0.166000000000000009,107.844330821395487874
0.167000000000000010,106.208585314847439918
0.168000000000000010,104.583227141499904178
0.169000000000000011,102.970747992333642173
0.170000000000000012,101.374074837553109774
0.171000000000000013,99.796170510692604694
0.172000000000000014,98.239729176688939560
0.173000000000000015,96.706969631882941485
0.174000000000000016,95.199518520537893096
0.175000000000000017,93.718369467358201064
0.176000000000000018,92.263901556537888382
0.177000000000000018,90.835940436781285712
0.178000000000000019,89.433846708936712844
0.179000000000000020,88.056618478014755169
0.180000000000000021,86.702997531472533410
0.181000000000000022,85.371571204059407023
0.182000000000000023,84.060864393205392275
0.183000000000000024,82.769418278170618919
0.184000000000000025,81.495854018553785636
0.185000000000000026,80.238921056934927378
0.186000000000000026,78.997530649546192194
0.187000000000000027,77.770775938091077251
0.188000000000000028,76.557940303359728773
0.189000000000000029,75.358495957123665221
0.190000000000000030,74.172094780719959317
0.191000000000000031,72.998553349891864173
0.192000000000000032,71.837833933106907125
0.193000000000000033,70.690023045704535321
0.194000000000000034,69.555308909671381912
0.195000000000000034,68.433958927771030289
0.196000000000000035,67.326298045327803266
0.197000000000000036,66.232688653083840791
0.198000000000000037,65.153512486594237885
0.199000000000000038,64.089154805171475004
0.200000000000000039,63.039990987838315561
0.201000000000000040,62.006375564872087125
0.202000000000000041,60.988633609964267634
0.203000000000000042,59.987054347638014917
0.204000000000000042,59.001886780781248376
0.205000000000000043,58.033337111164975397
0.206000000000000044,57.081567708785733828
0.207000000000000045,56.146697381065415300
0.208000000000000046,55.228802697803153876
0.209000000000000047,54.327920139992649240
0.210000000000000048,53.444048858154381776
0.211000000000000049,52.577153846928283087
0.212000000000000050,51.727169365850180327
0.213000000000000050,50.894002460283545020
0.214000000000000051,50.077536460427168663
0.215000000000000052,49.277634359421618626
0.216000000000000053,48.494141993282113390
0.217000000000000054,47.726890965298807146
0.218000000000000055,46.975701275430424175
0.219000000000000056,46.240383630935212977
0.220000000000000057,45.520741428003461237
0.221000000000000058,44.816572405516332367
0.222000000000000058,44.127669981345214012
0.223000000000000059,43.453824288965648748
0.224000000000000060,42.794822937746083369
0.225000000000000061,42.150451524266550507
0.226000000000000062,41.520493924611649561
0.227000000000000063,40.904732398953932204
0.228000000000000064,40.302947540082300293
0.229000000000000065,39.714918097008450104
0.230000000000000066,39.140420703569091643
0.231000000000000066,38.579229540179213132
0.232000000000000067,38.031115954722054084
0.233000000000000068,37.495848066099348728
0.234000000000000069,36.973190371322132819
0.235000000000000070,36.462903374283584412
0.236000000000000071,35.964743251600275187
0.237000000000000072,35.478461568199087139
0.238000000000000073,35.003805052715044610
0.239000000000000073,34.540515440291770233
0.240000000000000074,34.088329388069134041
0.241000000000000075,33.646978466526931584
0.242000000000000076,33.216189227940148498
0.243000000000000077,32.795683351500073854
0.244000000000000078,32.385177863167776025
0.245000000000000079,31.984385427049925710
0.246000000000000080,31.593014704015523364
0.247000000000000081,31.210770772396973172
0.248000000000000081,30.837355604928546882
0.249000000000000082,30.472468595557529625
0.250000000000000111,30.115807129403265208
0.251000000000000112,29.767067188922794685
0.252000000000000113,29.425943989254108146
0.253000000000000114,29.092132635734049728
0.254000000000000115,28.765328796712605453
0.255000000000000115,28.445229384995656119
0.256000000000000116,28.131533241529460554
0.257000000000000117,27.823941815280527123
0.258000000000000118,27.522159833652430905
0.259000000000000119,27.225895958204034741
0.260000000000000120,26.934863420883925045
0.261000000000000121,26.648780636462809923
0.262000000000000122,26.367371787321854271
0.263000000000000123,26.090367377233867785
0.264000000000000123,25.817504751248218753
0.265000000000000124,25.548528579256174709
0.266000000000000125,25.283191301264238859
0.267000000000000126,25.021253532837178568
0.268000000000000127,24.762484429585185808
0.269000000000000128,24.506662009960010096
0.270000000000000129,24.253573435989626006
0.271000000000000130,24.003015251919954665
0.272000000000000131,23.754793581043877282
0.273000000000000131,23.508724281281882185
0.274000000000000132,23.264633060335459191
0.275000000000000133,23.022355551463121515
0.276000000000000134,22.781737351131919667
0.277000000000000135,22.542634019973039727
0.278000000000000136,22.304911048621498537
0.279000000000000137,22.068443790146751837
0.280000000000000138,21.833117360885353264
0.281000000000000139,21.598826511569093611
0.282000000000000139,21.365475470704602401
0.283000000000000140,21.132977762203559280
0.284000000000000141,20.901255999289084286
0.285000000000000142,20.670241656713603362
0.286000000000000143,20.439874823319307495
0.287000000000000144,20.210103936954574522
0.288000000000000145,19.980885503730043240
0.289000000000000146,19.752183803558835962
0.290000000000000147,19.523970583875215112
0.291000000000000147,19.296224743369798205
0.292000000000000148,19.068932007514689531
0.293000000000000149,18.842084597582434924
0.294000000000000150,18.615680894787967503
0.295000000000000151,18.389725101104140492
0.296000000000000152,18.164226898220213968
0.297000000000000153,17.939201106028942689
0.298000000000000154,17.714667341942959666
0.299000000000000155,17.490649682255401842
0.300000000000000155,17.267176326673904896
0.301000000000000156,17.044279267071750894
0.302000000000000157,16.821993961415081742
0.303000000000000158,16.600359013742558290
0.304000000000000159,16.379415860991795029
0.305000000000000160,16.159208467387919939
0.306000000000000161,15.939783027032660812
0.307000000000000162,15.721187675257592531
0.308000000000000163,15.503472209234057999
0.309000000000000163,15.286687818263235528
0.310000000000000164,15.070886824104608337
0.311000000000000165,14.856122431638377535
0.312000000000000166,14.642448490098619374
0.313000000000000167,14.429919265057771227
0.314000000000000168,14.218589221290903524
0.315000000000000169,14.008512816598635453
0.316000000000000170,13.799744306621892775
0.317000000000000171,13.592337560638762639
0.318000000000000171,13.386345888294448159
0.319000000000000172,13.181821877178510505
0.320000000000000173,12.978817241130528259
0.321000000000000174,12.777382679124729137
0.322000000000000175,12.577567744556342078
0.323000000000000176,12.379420724727882686
0.324000000000000177,12.182988530310982611
0.325000000000000178,11.988316594539885074
0.326000000000000179,11.795448781875148114
0.327000000000000179,11.604427305861310771
0.328000000000000180,11.415292655889013318
0.329000000000000181,11.228083532561608848
0.330000000000000182,11.042836791357002468
0.331000000000000183,10.859587394268499949
0.332000000000000184,10.678368369103004909
0.333000000000000185,10.499210776111011612
0.334000000000000186,10.322143681620413957
0.335000000000000187,10.147194138345156489
0.336000000000000187,9.974387172039893557
0.337000000000000188,9.803745774173400207
0.338000000000000189,9.635290900295565564
0.339000000000000190,9.469041473776460549
0.340000000000000191,9.305014394600124916
0.341000000000000192,9.143224552900827362
0.342000000000000193,8.983684846935087620
0.343000000000000194,8.826406205189346821
0.344000000000000195,8.671397612330173033
0.345000000000000195,8.518666138710827340
0.346000000000000196,8.368216973156398453
0.347000000000000197,8.220053458757559994
0.348000000000000198,8.074177131411534702
0.349000000000000199,7.930587760857624957
0.350000000000000200,7.789283393963549074
0.351000000000000201,7.650260400027808494
0.352000000000000202,7.513513517872612901
0.353000000000000203,7.379035904510994115
0.354000000000000203,7.246819185180939371
0.355000000000000204,7.116853504548818599
0.356000000000000205,6.989127578893354453
0.357000000000000206,6.863628749090480596
0.358000000000000207,6.740343034228833297
0.359000000000000208,6.619255185694013832
0.360000000000000209,6.500348741568859445
0.361000000000000210,6.383606081205608795
0.362000000000000210,6.269008479834016434
0.363000000000000211,6.156536163078020429
0.364000000000000212,6.046168361261394786
0.365000000000000213,5.937883363390854541
0.366000000000000214,5.831658570712543010
0.367000000000000215,5.727470549745331319
0.368000000000000216,5.625295084701433801
0.369000000000000217,5.525107229211918991
0.370000000000000218,5.426881357281151175
0.371000000000000218,5.330591213400902362
0.372000000000000219,5.236209961760806664
0.373000000000000220,5.143710234497938849
0.374000000000000221,5.053064178933968975
0.375000000000000222,4.964243503753843711
0.376000000000000223,4.877219524084893898
0.377000000000000224,4.791963205440703533
0.378000000000000225,4.708445206498348412
0.379000000000000226,4.626635920682465652
0.380000000000000226,4.546505516533577484
0.381000000000000227,4.468023976842486533
0.382000000000000228,4.391161136536029019
0.383000000000000229,4.315886719303345664
0.384000000000000230,4.242170372955179403
0.385000000000000231,4.169981703511725257
0.386000000000000232,4.099290308017901729
0.387000000000000233,4.030065806087327118
0.388000000000000234,3.962277870179301775
0.389000000000000234,3.895896254615194287
0.390000000000000235,3.830890823343134688
0.391000000000000236,3.767231576461943288
0.392000000000000237,3.704888675517150176
0.393000000000000238,3.643832467583747015
0.394000000000000239,3.584033508152058456
0.395000000000000240,3.525462582834435921
0.396000000000000241,3.468090727912023219
0.397000000000000242,3.411889249741972385
0.398000000000000242,3.356829743046580550
0.399000000000000243,3.302884108106982630
0.400000000000000244,3.250024566884634147
0.401000000000000245,3.198223678094817224
0.402000000000000246,3.147454351257085392
0.403000000000000247,3.097689859747897234
0.404000000000000248,3.048903852881465149
0.405000000000000249,3.001070367045077791
0.406000000000000250,2.954163835915515790
0.407000000000000250,2.908159099783429014
0.408000000000000251,2.863031414012703557
0.409000000000000252,2.818756456662004251
0.410000000000000253,2.775310335295611441
0.411000000000000254,2.732669593010786713
0.412000000000000255,2.690811213708771632
0.413000000000000256,2.649712626636330448
0.414000000000000257,2.609351710224772969
0.415000000000000258,2.569706795252948428
0.416000000000000258,2.530756667360658074
0.417000000000000259,2.492480568938498120
0.418000000000000260,2.454858200419939074
0.419000000000000261,2.417869721000962979
0.420000000000000262,2.381495748812375801
0.421000000000000263,2.345717360569304244
0.422000000000000264,2.310516090722174898
0.423000000000000265,2.275873930132823464
0.424000000000000266,2.241773324299038528
0.425000000000000266,2.208197171150366067
0.426000000000000267,2.175128818437407574
0.427000000000000268,2.142552060736446329
0.428000000000000269,2.110451136090671476
0.429000000000000270,2.078810722308697123
0.430000000000000271,2.047615932940655803
0.431000000000000272,2.016852312951477266
0.432000000000000273,1.986505834110527502
0.433000000000000274,1.956562890116173126
0.434000000000000274,1.927010291473299830
0.435000000000000275,1.897835260141333746
0.436000000000000276,1.869025423969632005
0.437000000000000277,1.840568810936729305
0.438000000000000278,1.812453843209266058
0.439000000000000279,1.784669331035926287
0.440000000000000280,1.757204466491204542
0.441000000000000281,1.730048817083288615
0.442000000000000282,1.703192319239735797
0.443000000000000282,1.676625271684301755
0.444000000000000283,1.650338328717533498
0.445000000000000284,1.624322493413454582
0.446000000000000285,1.598569110744041621
0.447000000000000286,1.573069860642731799
0.448000000000000287,1.547816751017824455
0.449000000000000288,1.522802110726000802
0.450000000000000289,1.498018582515922681
0.451000000000000290,1.473459115951276210
0.452000000000000290,1.449116960322242686
0.453000000000000291,1.424985657554021179
0.454000000000000292,1.401059035120462370
0.455000000000000293,1.377331198970630499
0.456000000000000294,1.353796526475607775
0.457000000000000295,1.330449659402476170
0.458000000000000296,1.307285496922137469
0.459000000000000297,1.284299188657131996
0.460000000000000298,1.261486127775349297
0.461000000000000298,1.238841944135177897
0.462000000000000299,1.216362497487267103
0.463000000000000300,1.194043870737810042
0.464000000000000301,1.171882363277856332
0.465000000000000302,1.149874484382991779
0.466000000000000303,1.128016946687306454
0.467000000000000304,1.106306659735331266
0.468000000000000305,1.084740723615430946
0.469000000000000306,1.063316422677739626
0.470000000000000306,1.042031219339548676
0.471000000000000307,1.020882747980873750
0.472000000000000308,0.999868808932559361
0.473000000000000309,0.978987362559125218
0.474000000000000310,0.958236523438403487
0.475000000000000311,0.937614554639659259
0.476000000000000312,0.917119862101861139
0.477000000000000313,0.896750989113386354
0.478000000000000314,0.876506610894482896
0.479000000000000314,0.856385529283415492
0.480000000000000315,0.836386667527230232
0.481000000000000316,0.816509065177797866
0.482000000000000317,0.796751873093716867
0.483000000000000318,0.777114348548460177
0.484000000000000319,0.757595850445039298
0.485000000000000320,0.738195834637358606
0.486000000000000321,0.718913849358194912
0.487000000000000322,0.699749530753765669
0.488000000000000322,0.680702598524665303
0.489000000000000323,0.661772851672781659
0.490000000000000324,0.642960164353836294
0.491000000000000325,0.624264481835000162
0.492000000000000326,0.605685816556981171
0.493000000000000327,0.587224244299871745
0.494000000000000328,0.568879900452029519
0.495000000000000329,0.550652976381080461
0.496000000000000330,0.532543715906222404
0.497000000000000330,0.514552411870708992
0.498000000000000331,0.496679402813659465
0.499000000000000332,0.478925069739920217
0.500000000000000333,0.461289832986925774
0.501000000000000334,0.443774149187389555
0.502000000000000335,0.426378508326472339
0.503000000000000336,0.409103430892277964
0.504000000000000337,0.391949465118256513
0.505000000000000338,0.374917184316232888
0.506000000000000338,0.358007184298643921
0.507000000000000339,0.341220080888569255
0.508000000000000340,0.324556507516179482
0.509000000000000341,0.308017112900048573
0.510000000000000342,0.291602558811979162
0.511000000000000343,0.275313517923722606
0.512000000000000344,0.259150671734201921
0.513000000000000345,0.243114708575672411
0.514000000000000346,0.227206321697254632
0.515000000000000346,0.211426207424406931
0.516000000000000347,0.195775063392723492
0.517000000000000348,0.180253586854529774
0.518000000000000349,0.164862473056774650
0.519000000000000350,0.149602413688616626
0.520000000000000351,0.134474095397250026
0.521000000000000352,0.119478198370308569
0.522000000000000353,0.104615394983487861
0.523000000000000353,0.089886348511682992
0.524000000000000354,0.075291711902275668
0.525000000000000355,0.060832126608948614
0.526000000000000356,0.046508221484631330
0.527000000000000357,0.032320611732001368
0.528000000000000358,0.018269897910125541
0.529000000000000359,0.004356664995753021
0.530000000000000360,-0.009418518502151946
0.531000000000000361,-0.023055101376125806
0.532000000000000361,-0.036552550503539748
0.533000000000000362,-0.049910351580969500
0.534000000000000363,-0.063128009810966029
0.535000000000000364,-0.076205050542648867
0.536000000000000365,-0.089141019867380766
0.537000000000000366,-0.101935485170945639
0.538000000000000367,-0.114588035643449326
0.539000000000000368,-0.127098282748337343
0.540000000000000369,-0.139465860651692586
0.541000000000000369,-0.151690426613167284
0.542000000000000370,-0.163771661339673441
0.543000000000000371,-0.175709269303149757
0.544000000000000372,-0.187502979023511623
0.545000000000000373,-0.199152543318001168
0.546000000000000374,-0.210657739518071013
0.547000000000000375,-0.222018369654903236
0.548000000000000376,-0.233234260614729433
0.549000000000000377,-0.244305264264953914
0.550000000000000377,-0.255231257552242963
0.551000000000000378,-0.266012142573500976
0.552000000000000379,-0.276647846620880600
0.553000000000000380,-0.287138322201716978
0.554000000000000381,-0.297483547034421258
0.555000000000000382,-0.307683524021302945
0.556000000000000383,-0.317738281199178685
0.557000000000000384,-0.327647871668798663
0.558000000000000385,-0.337412373503843177
0.559000000000000385,-0.347031889640499969
0.560000000000000386,-0.356506547748376867
0.561000000000000387,-0.365836500083623950
0.562000000000000388,-0.375021923325047912
0.563000000000000389,-0.384063018394065203
0.564000000000000390,-0.392960010259189474
0.565000000000000391,-0.401713147725864583
0.566000000000000392,-0.410322703212333273
0.567000000000000393,-0.418788972512313784
0.568000000000000393,-0.427112274545079718
0.569000000000000394,-0.435292951093726621
0.570000000000000395,-0.443331366532215831
0.571000000000000396,-0.451227907541826234
0.572000000000000397,-0.458982982817708218
0.573000000000000398,-0.466597022766040426
0.574000000000000399,-0.474070479192464866
0.575000000000000400,-0.481403824982313933
0.576000000000000401,-0.488597553773178928
0.577000000000000401,-0.495652179620422184
0.578000000000000402,-0.502568236656060208
0.579000000000000403,-0.509346278741556802
0.580000000000000404,-0.515986879115067576
0.581000000000000405,-0.522490630033498049
0.582000000000000406,-0.528858142409934673
0.583000000000000407,-0.535090045446817930
0.584000000000000408,-0.541186986265332237
0.585000000000000409,-0.547149629531398118
0.586000000000000409,-0.552978657078650793
0.587000000000000410,-0.558674767528863803
0.588000000000000411,-0.564238675910062604
0.589000000000000412,-0.569671113272834595
0.590000000000000413,-0.574972826305041540
0.591000000000000414,-0.580144576945372470
0.592000000000000415,-0.585187141995999083
0.593000000000000416,-0.590101312734652494
0.594000000000000417,-0.594887894526422656
0.595000000000000417,-0.599547706435600625
0.596000000000000418,-0.604081580837733778
0.597000000000000419,-0.608490363032301862
0.598000000000000420,-0.612774910856115129
0.599000000000000421,-0.616936094297814930
0.600000000000000422,-0.620974795113604761
0.601000000000000423,-0.624891906444458911
0.602000000000000424,-0.628688332435075048
0.603000000000000425,-0.632364987854712401
0.604000000000000425,-0.635922797720093524
0.605000000000000426,-0.639362696920631080
0.606000000000000427,-0.642685629846112327
0.607000000000000428,-0.645892550016935574
0.608000000000000429,-0.648984419717242522
0.609000000000000430,-0.651962209630865042
0.610000000000000431,-0.654826898480436848
0.611000000000000432,-0.657579472669663989
0.612000000000000433,-0.660220925928942326
0.613000000000000433,-0.662752258964453556
0.614000000000000434,-0.665174479110812511
0.615000000000000435,-0.667488599987399733
0.616000000000000436,-0.669695641158457255
0.617000000000000437,-0.671796627797102142
