# Fe2O3-001O_1HIMIDAZOLE-AC
# h[nm],U(h)[kJ/mol]
0.149999999999999994,113.221220446688079164
0.150999999999999995,111.062937580162454765
0.151999999999999996,109.035585711415478727
0.152999999999999997,107.059831643759892472
0.153999999999999998,105.111252618815569804
0.154999999999999999,103.187763705221712485
0.156000000000000000,101.293726026361881054
0.157000000000000001,99.433181684564146963
0.158000000000000002,97.607758155697169400
0.159000000000000002,95.816709322155702466
0.160000000000000003,94.057728874362538818
0.161000000000000004,92.327860412721747707
0.162000000000000005,90.624218005403022858
0.163000000000000006,88.944438233891389700
0.164000000000000007,87.286884535990452605
0.165000000000000008,85.650663681958278062
0.166000000000000009,84.035521088765889886
0.167000000000000010,82.441673343911674010
0.168000000000000010,80.869622393713228803
0.169000000000000011,79.319981455370253798
0.170000000000000012,77.793330243567197613
0.171000000000000013,76.290107423274065468
0.172000000000000014,74.810541345489710352
0.173000000000000015,73.354615731293790759
0.174000000000000016,71.922064536056765860
0.175000000000000017,70.512389235785192909
0.176000000000000018,69.124891775565444618
0.177000000000000018,67.758717034653528799
0.178000000000000019,66.412899610537621697
0.179000000000000020,65.086410801465078180
0.180000000000000021,63.778202736188497113
0.181000000000000022,62.487247576084349987
0.182000000000000023,61.212570552528504209
0.183000000000000024,59.953276283490239962
0.184000000000000025,58.708568338410067611
0.185000000000000026,57.477762401821244964
0.186000000000000026,56.260293642459487273
0.187000000000000027,55.055719047014392231
0.188000000000000028,53.863715547565469421
0.189000000000000029,52.684074779041324632
0.190000000000000030,51.516695265348531052
0.191000000000000031,50.361572765031937138
0.192000000000000032,49.218789421576573773
0.193000000000000033,48.088502269230914976
0.194000000000000034,46.970931549667071181
0.195000000000000034,45.866349202988111244
0.196000000000000035,44.775067811970686193
0.197000000000000036,43.697430203043673203
0.198000000000000037,42.633799842357014143
0.199000000000000038,41.584552110602757580
0.200000000000000039,40.550066495663926958
0.201000000000000040,39.530719706954535297
0.202000000000000041,38.526879688518327782
0.203000000000000042,37.538900488493467833
0.204000000000000042,36.567117929313972979
0.205000000000000043,35.611846014926761939
0.206000000000000044,34.673374007338907177
0.207000000000000045,33.751964104062253114
0.208000000000000046,32.847849649682224538
0.209000000000000047,31.961233818156511433
0.210000000000000048,31.092288706967632805
0.211000000000000049,30.241154789441758055
0.212000000000000050,29.407940677029046128
0.213000000000000050,28.592723148834416236
0.214000000000000051,27.795547410977370362
0.215000000000000052,27.016427553299497077
0.216000000000000053,26.255347175433183082
0.217000000000000054,25.512260158242362706
0.218000000000000055,24.787091560126896184
0.219000000000000056,24.079738620655060544
0.220000000000000057,23.390071856475021406
0.221000000000000058,22.717936236501429903
0.222000000000000058,22.063152425015211122
0.223000000000000059,21.425518082612622806
0.224000000000000060,20.804809215939499722
0.225000000000000061,20.200781567902595270
0.226000000000000062,19.613172040609150315
0.227000000000000063,19.041700143692835923
0.228000000000000064,18.486069460979514645
0.229000000000000065,17.945969128662277114
0.230000000000000066,17.421075318325538461
0.231000000000000066,16.911052718302197917
0.232000000000000067,16.415556006990808413
0.233000000000000068,15.934231311911952744
0.234000000000000069,15.466717648459852086
0.235000000000000070,15.012648332511551175
0.236000000000000071,14.571652361297982026
0.237000000000000072,14.143355757219993052
0.238000000000000073,13.727382869608039329
0.239000000000000073,13.323357629775983924
0.240000000000000074,12.930904755100740999
0.241000000000000075,12.549650898270341415
0.242000000000000076,12.179225738275247792
0.243000000000000077,11.819263010166872974
0.244000000000000078,11.469401471068191967
0.245000000000000079,11.129285800387929584
0.246000000000000080,10.798567432656771103
0.247000000000000081,10.476905321865846332
0.248000000000000081,10.163966636640342500
0.249000000000000082,9.859427386019600448
0.250000000000000111,9.562972976035307937
0.251000000000000112,9.274298697679263626
0.252000000000000113,8.993110147226754947
0.253000000000000114,8.719123580231563864
0.254000000000000115,8.452066200828786791
0.255000000000000115,8.191676388273839038
0.256000000000000116,7.937703862907005359
0.257000000000000117,7.689909793963773055
0.258000000000000118,7.448066851851675274
0.259000000000000119,7.211959207683970696
0.260000000000000120,6.981382483000706074
0.261000000000000121,6.756143652719565296
0.262000000000000122,6.536060904442408059
0.263000000000000123,6.320963457301398414
0.264000000000000123,6.110691343561080124
0.265000000000000124,5.905095156202597728
0.266000000000000125,5.704035765704020378
0.267000000000000126,5.507384009199212116
0.268000000000000127,5.315020355147366260
0.269000000000000128,5.126834546579663865
0.270000000000000129,4.942725225908501940
0.271000000000000130,4.762599544191298939
0.272000000000000131,4.586372757636482334
0.273000000000000131,4.413967814024992720
0.274000000000000132,4.245314931599004638
0.275000000000000133,4.080351172840865459
0.276000000000000134,3.919020015432108206
0.277000000000000135,3.761270922545412621
0.278000000000000136,3.607058914482587308
0.279000000000000137,3.456344143531009827
0.280000000000000138,3.309091473769775860
0.281000000000000139,3.165270067416209088
0.282000000000000139,3.024852979164454503
0.283000000000000140,2.887816759831086877
0.284000000000000141,2.754141070488952181
0.285000000000000142,2.623808308140042289
0.286000000000000143,2.496803243852081966
0.287000000000000144,2.373112674161860003
0.288000000000000145,2.252725086431079493
0.289000000000000146,2.135630338729331612
0.290000000000000147,2.021819354711761108
0.291000000000000147,1.911283833858804737
0.292000000000000148,1.804015977349705979
0.293000000000000149,1.700008229752522526
0.294000000000000150,1.599253036629566083
0.295000000000000151,1.501742618079349167
0.296000000000000152,1.407468758164146960
0.297000000000000153,1.316422610105732360
0.298000000000000154,1.228594517070972003
0.299000000000000155,1.143973848313495356
0.300000000000000155,1.062548850387353472
0.301000000000000156,0.984306513103599956
0.302000000000000157,0.909232449860274405
0.303000000000000158,0.837310791941014321
0.304000000000000159,0.768524096346232199
0.305000000000000160,0.702853266694398626
0.306000000000000161,0.640277486708039190
0.307000000000000162,0.580774165780413631
0.308000000000000163,0.524318896103733723
0.309000000000000163,0.470885420827883205
0.310000000000000164,0.420445612710125594
0.311000000000000165,0.372969462710722510
0.312000000000000166,0.328425077986389424
0.313000000000000167,0.286778688733348053
0.314000000000000168,0.247994663333678644
0.315000000000000169,0.212035531262868615
0.316000000000000170,0.178862013222446603
0.317000000000000171,0.148433057969607235
0.318000000000000171,0.120705885325041895
0.319000000000000172,0.095636034851051349
0.320000000000000173,0.073177419704091640
0.321000000000000174,0.053282385179199955
0.322000000000000175,0.035901771477679735
0.323000000000000176,0.020984980244509465
0.324000000000000177,0.008480044437513995
0.325000000000000178,-0.001666298893419521
0.326000000000000179,-0.009508533322371665
0.327000000000000179,-0.015102285646704749
0.328000000000000180,-0.018504246740612774
0.329000000000000181,-0.019772091016679337
0.330000000000000182,-0.018964394831297849
0.331000000000000183,-0.016140554152950681
0.332000000000000184,-0.011360701794480222
0.333000000000000185,-0.004685624493578899
0.334000000000000186,0.003823319891425881
0.335000000000000187,0.014104284820224544
0.336000000000000187,0.026095016909695068
0.337000000000000188,0.039732936956082821
0.338000000000000189,0.054955219938139767
0.339000000000000190,0.071698873814810438
0.340000000000000191,0.089900816945973697
0.341000000000000192,0.109497953979066698
0.342000000000000193,0.130427250058759714
0.343000000000000194,0.152625803230033191
0.344000000000000195,0.176030914918502895
0.345000000000000195,0.200580158383884821
0.346000000000000196,0.226211445054962379
0.347000000000000197,0.252863088665677083
0.348000000000000198,0.280473867122988052
0.349000000000000199,0.308983082047763868
0.350000000000000200,0.338330615939682999
0.351000000000000201,0.368456986926842922
0.352000000000000202,0.399303401069516284
0.353000000000000203,0.430811802195979365
0.354000000000000203,0.462924919256377965
0.355000000000000204,0.495586311187988016
0.356000000000000205,0.528740409292231872
0.357000000000000206,0.562332557130359123
0.358000000000000207,0.596309047950895676
0.359000000000000208,0.630617159667484217
0.360000000000000209,0.665205187411059495
0.361000000000000210,0.700022473685193880
0.362000000000000210,0.735019436157802630
0.363000000000000211,0.770147593126543351
0.364000000000000212,0.805359586698899954
0.365000000000000213,0.840609203731386700
0.366000000000000214,0.875851394575229869
0.367000000000000215,0.911042289678715256
0.368000000000000216,0.946139214098654535
0.369000000000000217,0.981100699975715029
0.370000000000000218,1.015886497030005886
0.371000000000000218,1.050457581135101570
0.372000000000000219,1.084776161029807895
0.373000000000000220,1.118805683228247805
0.374000000000000221,1.152510835189568095
0.375000000000000222,1.185857546809447438
0.376000000000000223,1.218812990295757626
0.377000000000000224,1.251345578491346977
0.378000000000000225,1.283424961706763900
0.379000000000000226,1.315022023125903994
0.380000000000000226,1.346108872847168625
0.381000000000000227,1.376658840622628999
0.382000000000000228,1.406646467357013819
0.383000000000000229,1.436047495427874354
0.384000000000000230,1.464838857887658108
0.385000000000000231,1.492998666607425751
0.386000000000000232,1.520506199421334248
0.387000000000000233,1.547341886329832938
0.388000000000000234,1.573487294818675775
0.389000000000000234,1.598925114349535992
0.390000000000000235,1.623639140077124399
0.391000000000000236,1.647614255846197029
0.392000000000000237,1.670836416520896206
0.393000000000000238,1.693292629697277674
0.394000000000000239,1.714970936848783767
0.395000000000000240,1.735860393952898040
0.396000000000000241,1.755951051645926908
0.397000000000000242,1.775233934951422343
0.398000000000000242,1.793701022626307706
0.399000000000000243,1.811345226167407230
0.400000000000000244,1.828160368519645917
0.401000000000000245,1.844141162525589239
0.402000000000000246,1.859283189154856242
0.403000000000000247,1.873582875550224403
0.404000000000000248,1.887037472925965131
0.405000000000000249,1.899645034352519302
0.406000000000000250,1.911404392460206214
0.407000000000000250,1.922315137093250970
0.408000000000000251,1.932377592944120481
0.409000000000000252,1.941592797196685982
0.410000000000000253,1.949962477205551492
0.411000000000000254,1.957489028237430873
0.412000000000000255,1.964175491299295917
0.413000000000000256,1.970025531076638803
0.414000000000000257,1.975043414004115316
0.415000000000000258,1.979233986489418395
0.416000000000000258,1.982602653310281182
0.417000000000000259,1.985155356203159416
0.418000000000000260,1.986898552661161332
0.419000000000000261,1.987839194957617295
0.420000000000000262,1.987984709410665518
0.421000000000000263,1.987342975903139575
0.422000000000000264,1.985922307671150744
0.423000000000000265,1.983731431373668475
0.424000000000000266,1.980779467454476972
0.425000000000000266,1.977075910807104320
0.426000000000000267,1.972630611752254071
0.427000000000000268,1.967453757336541376
0.428000000000000269,1.961555852960503277
0.429000000000000270,1.954947704343004800
0.430000000000000271,1.947640399828467483
0.431000000000000272,1.939645293042575158
0.432000000000000273,1.930973985901437429
0.433000000000000274,1.921638311978487224
0.434000000000000274,1.911650320232751721
0.435000000000000275,1.901022259101566636
0.436000000000000276,1.889766560960112418
0.437000000000000277,1.877895826949686819
0.438000000000000278,1.865422812176033673
0.439000000000000279,1.852360411278535013
0.440000000000000280,1.838721644370600927
0.441000000000000281,1.824519643351165898
0.442000000000000282,1.809767638586606608
0.443000000000000282,1.794478945962244554
0.444000000000000283,1.778666954301878489
0.445000000000000284,1.762345113153707343
0.446000000000000285,1.745526920940490667
0.447000000000000286,1.728225913471448605
0.448000000000000287,1.710455652813229976
0.449000000000000288,1.692229716516822080
0.450000000000000289,1.673561687197107073
0.451000000000000290,1.654465142461495786
0.452000000000000290,1.634953645183767179
0.453000000000000291,1.615040734119136401
0.454000000000000292,1.594739914856245333
0.455000000000000293,1.574064651101670709
0.456000000000000294,1.553028356292325718
0.457000000000000295,1.531644385530986474
0.458000000000000296,1.509926027840008844
0.459000000000000297,1.487886498728226981
0.460000000000000298,1.465538933065791083
0.461000000000000298,1.442896378261756762
0.462000000000000299,1.419971787738959268
0.463000000000000300,1.396778014700799542
0.464000000000000301,1.373327806184338584
0.465000000000000302,1.349633797394181212
0.466000000000000303,1.325708506311417567
0.467000000000000304,1.301564328572023088
0.468000000000000305,1.277213532608920676
0.469000000000000306,1.252668255051999191
0.470000000000000306,1.227940496380300006
0.471000000000000307,1.203042116820611573
0.472000000000000308,1.177984832486675515
0.473000000000000309,1.152780211753229977
0.474000000000000310,1.127439671859168824
0.475000000000000311,1.101974475733970227
0.476000000000000312,1.076395729041817351
0.477000000000000313,1.050714377437551139
0.478000000000000314,1.024941204028946284
0.479000000000000314,0.999086827039566416
0.480000000000000315,0.973161697666702685
0.481000000000000316,0.947176098128811206
0.482000000000000317,0.921140139896995280
0.483000000000000318,0.895063762105096528
0.484000000000000319,0.868956730133030653
0.485000000000000320,0.842828634358059658
0.486000000000000321,0.816688889068757917
0.487000000000000322,0.790546731536496461
0.488000000000000322,0.764411221239355010
0.489000000000000323,0.738291239233413554
0.490000000000000324,0.712195487666466898
0.491000000000000325,0.686132489429287284
0.492000000000000326,0.660110587939627846
0.493000000000000327,0.634137947054242757
0.494000000000000328,0.608222551104266818
0.495000000000000329,0.582372205049411340
0.496000000000000330,0.556594534746484793
0.497000000000000330,0.530896987327818093
0.498000000000000331,0.505286831685333393
0.499000000000000332,0.479771159055986662
0.500000000000000333,0.454356883704430115
0.501000000000000334,0.429050743698887183
0.502000000000000335,0.403859301776202329
0.503000000000000336,0.378788946292246909
0.504000000000000337,0.353845892253807415
0.505000000000000338,0.329036182428304957
0.506000000000000338,0.304365688527668987
0.507000000000000339,0.279840112462834134
0.508000000000000340,0.255464987665416920
0.509000000000000341,0.231245680473156495
0.510000000000000342,0.207187391575869795
0.511000000000000343,0.183295157518664542
0.512000000000000344,0.159573852259325383
0.513000000000000345,0.136028188776809056
0.514000000000000346,0.112662720727845861
0.515000000000000346,0.089481844148844150
0.516000000000000347,0.066489799200217609
0.517000000000000348,0.043690671950432601
0.518000000000000349,0.021088396197129499
0.519000000000000350,-0.001313244677244396
0.520000000000000351,-0.023510615817829355
0.521000000000000352,-0.045500228980167978
0.522000000000000353,-0.067278740585773628
0.523000000000000353,-0.088842949752801048
0.524000000000000354,-0.110189796303937701
0.525000000000000355,-0.131316358753744977
0.526000000000000356,-0.152219852277422768
0.527000000000000357,-0.172897626663087334
0.528000000000000358,-0.193347164249463022
0.529000000000000359,-0.213566077850827180
0.530000000000000360,-0.233552108671062714
0.531000000000000361,-0.253303124208544173
0.532000000000000361,-0.272817116153535655
0.533000000000000362,-0.292092198279728099
0.534000000000000363,-0.311126604331464329
0.535000000000000364,-0.329918685908195841
0.536000000000000365,-0.348466910347563108
0.537000000000000366,-0.366769858608545940
0.538000000000000367,-0.384826223155975700
0.539000000000000368,-0.402634805847749688
0.540000000000000369,-0.420194515825918102
0.541000000000000369,-0.437504367412888950
0.542000000000000370,-0.454563478013828071
0.543000000000000371,-0.471371066026386454
0.544000000000000372,-0.487926448758769393
0.545000000000000373,-0.504229040357138003
0.546000000000000374,-0.520278349743312996
0.547000000000000375,-0.536073978563647913
0.548000000000000376,-0.551615619149984804
0.549000000000000377,-0.566903052493450632
0.550000000000000377,-0.581936146231944562
0.551000000000000378,-0.596714852651983430
0.552000000000000379,-0.611239206705672222
0.553000000000000380,-0.625509324043429848
0.554000000000000381,-0.639525399063092803
0.555000000000000382,-0.653287702976041329
0.556000000000000383,-0.666796581890830131
0.557000000000000384,-0.680052454914937377
0.558000000000000385,-0.693055812275046867
0.559000000000000385,-0.705807213456398186
0.560000000000000386,-0.718307285361584169
0.561000000000000387,-0.730556720489234923
0.562000000000000388,-0.742556275132939203
0.563000000000000389,-0.754306767600796069
0.564000000000000390,-0.765809076455850724
0.565000000000000391,-0.777064138777783575
0.566000000000000392,-0.788072948446070676
0.567000000000000393,-0.798836554444899316
0.568000000000000393,-0.809356059190033728
0.569000000000000394,-0.819632616877863263
0.570000000000000395,-0.829667431856795701
0.571000000000000396,-0.839461757021138233
0.572000000000000397,-0.849016892227669073
0.573000000000000398,-0.858334182734935225
0.574000000000000399,-0.867415017665442711
0.575000000000000400,-0.876260828490799448
0.576000000000000401,-0.884873087539856940
0.577000000000000401,-0.893253306529956936
0.578000000000000402,-0.901403035121250085
0.579000000000000403,-0.909323859494139297
0.580000000000000404,-0.917017400949863948
0.581000000000000405,-0.924485314534172375
0.582000000000000406,-0.931729287684104790
0.583000000000000407,-0.938751038897802759
0.584000000000000408,-0.945552316427338169
0.585000000000000409,-0.952134896994466629
0.586000000000000409,-0.958500584529241251
0.587000000000000410,-0.964651208931427862
0.588000000000000411,-0.970588624854560988
0.589000000000000412,-0.976314710512631079
0.590000000000000413,-0.981831366509187675
0.591000000000000414,-0.987140514688805482
0.592000000000000415,-0.992244097010761217
0.593000000000000416,-0.997144074444761275
0.594000000000000417,-1.001842425888598509
0.595000000000000417,-1.006341147107578049
0.596000000000000418,-1.010642249695522077
0.597000000000000419,-1.014747760057234105
0.598000000000000420,-1.018659718412193937
0.599000000000000421,-1.022380177819346869
0.600000000000000422,-1.025911203222774182
0.601000000000000423,-1.029254870518048204
0.602000000000000424,-1.032413265639106736
0.603000000000000425,-1.035388483665428794
0.604000000000000425,-1.038182627949275849
0.605000000000000426,-1.040797809262839380
0.606000000000000427,-1.043236144965075995
0.607000000000000428,-1.045499758187939054
0.608000000000000429,-1.047590777041932375
0.609000000000000430,-1.049511333840584371
0.610000000000000431,-1.051263564343795531
0.611000000000000432,-1.052849607019688660
0.612000000000000433,-1.054271602324812651
0.613000000000000433,-1.055531692002465549
0.614000000000000434,-1.056632018398859119
0.615000000000000435,-1.057574723796927296
0.616000000000000436,-1.058361949767536725
0.617000000000000437,-1.058995836537874435
0.618000000000000438,-1.059478522376734011
