# Fe2O3-001O_METHOXYMETHANE-AC
# h[nm],U(h)[kJ/mol]
0.149999999999999994,96.075259348596219411
0.150999999999999995,94.671611604336447954
0.151999999999999996,93.039561950882500696
0.152999999999999997,91.368934657268567889
0.153999999999999998,89.737583271845380750
0.154999999999999999,88.165559386873198378
0.156000000000000000,86.646885009348935114
0.157000000000000001,85.167095733674912594
0.158000000000000002,83.712030990259535201
0.159000000000000002,82.271472242916019013
0.160000000000000003,80.839939871113159597
0.161000000000000004,79.416085407833776344
0.162000000000000005,78.001534416810358152
0.163000000000000006,76.599657314631514282
0.164000000000000007,75.214506855631356075
0.165000000000000008,73.850016336754919166
0.166000000000000009,72.509469912870514463
0.167000000000000010,71.195213595343375346
0.168000000000000010,69.908557410605368432
0.169000000000000011,68.649815674692916900
0.170000000000000012,67.418436743753787255
0.171000000000000013,66.213181699701792127
0.172000000000000014,65.032320644942942067
0.173000000000000015,63.873824133640141554
0.174000000000000016,62.735535001410184464
0.175000000000000017,61.615312165797810451
0.176000000000000018,60.511142823578531136
0.177000000000000018,59.421222986566306190
0.178000000000000019,58.344008666832827714
0.179000000000000020,57.278241460751395664
0.180000000000000021,56.222952999582581413
0.181000000000000022,55.177452921976154698
0.182000000000000023,54.141304842179195589
0.183000000000000024,53.114294368338264007
0.184000000000000025,52.096392670879403397
0.185000000000000026,51.087718488782357440
0.186000000000000026,50.088500847091957269
0.187000000000000027,49.099044179829014922
0.188000000000000028,48.119697032012425097
0.189000000000000029,47.150825065397306446
0.190000000000000030,46.192788719366490113
0.191000000000000031,45.245925580129750188
0.192000000000000032,44.310537283150267740
0.193000000000000033,43.386880608381680702
0.194000000000000034,42.475162317116037514
0.195000000000000034,41.575537214272387132
0.196000000000000035,40.688108892244841286
0.197000000000000036,39.812932613979796770
0.198000000000000037,38.950019816558175023
0.199000000000000038,38.099343755921566412
0.200000000000000039,37.260845863147828538
0.201000000000000040,36.434442438422507848
0.202000000000000041,35.620031367007129575
0.203000000000000042,34.817498599300265028
0.204000000000000042,34.026724192439644412
0.205000000000000043,33.247587762322822869
0.206000000000000044,32.479973241444540122
0.207000000000000045,31.723772878992644308
0.208000000000000046,30.978890454968457391
0.209000000000000047,30.245243709718018010
0.210000000000000048,29.522766014382760602
0.211000000000000049,28.811407326751613311
0.212000000000000050,28.111134491254421874
0.213000000000000050,27.421930951880547411
0.214000000000000051,26.743795953149980704
0.215000000000000052,26.076743307437663333
0.216000000000000053,25.420799807460635833
0.217000000000000054,24.776003361066550212
0.218000000000000055,24.142400922056747703
0.219000000000000056,23.520046286044276940
0.220000000000000057,22.908997814645420732
0.221000000000000058,22.309316144953164951
0.222000000000000058,21.721061934507805091
0.223000000000000059,21.144293685100031155
0.224000000000000060,20.579065681898644158
0.225000000000000061,20.025426077745134279
0.226000000000000062,19.483415146118648664
0.227000000000000063,18.953063720337940623
0.228000000000000064,18.434391831097350689
0.229000000000000065,17.927407549470952830
0.230000000000000066,17.432106038090388722
0.231000000000000066,16.948468809310291761
0.232000000000000067,16.476463185819497426
0.233000000000000068,16.016041956317245365
0.234000000000000069,15.567143216530007876
0.235000000000000070,15.129690383965055389
0.236000000000000071,14.703592373348644884
0.237000000000000072,14.288743918641362285
0.238000000000000073,13.885026026824064616
0.239000000000000073,13.492306548265791122
0.240000000000000074,13.110440848380079615
0.241000000000000075,12.739272565413946481
0.242000000000000076,12.378634439556078561
0.243000000000000077,12.028349199065281994
0.244000000000000078,11.688230489775170540
0.245000000000000079,11.358083835097460224
0.246000000000000080,11.037707614498296849
0.247000000000000081,10.726894049334738668
0.248000000000000081,10.425430185892174961
0.249000000000000082,10.133098866438682961
0.250000000000000111,9.849679680092426892
0.251000000000000112,9.574949886270372801
0.252000000000000113,9.308685304437361197
0.253000000000000114,9.050661164796574454
0.254000000000000115,8.800652915444338475
0.255000000000000115,8.558436982351153688
0.256000000000000116,8.323791479319101683
0.257000000000000117,8.096496865801631415
0.258000000000000118,7.876336551152485654
0.259000000000000119,7.663097444494164634
0.260000000000000120,7.456570449963246361
0.261000000000000121,7.256550907600498590
0.262000000000000122,7.062838980608306727
0.263000000000000123,6.875239990099056619
0.264000000000000123,6.693564698806781621
0.265000000000000124,6.517629545533961455
0.266000000000000125,6.347256832357540901
0.267000000000000126,6.182274866826621640
0.268000000000000127,6.022518061551140889
0.269000000000000128,5.867826993709945427
0.270000000000000129,5.718048427100424824
0.271000000000000130,5.573035299413504617
0.272000000000000131,5.432646677450795991
0.273000000000000131,5.296747683007192897
0.274000000000000132,5.165209392125726495
0.275000000000000133,5.037908710394333411
0.276000000000000134,4.914728226899113928
0.277000000000000135,4.795556049378308927
0.278000000000000136,4.680285623037248044
0.279000000000000137,4.568815535389999738
0.280000000000000138,4.461049309389622408
0.281000000000000139,4.356895186997909342
0.282000000000000139,4.256265905229117408
0.283000000000000140,4.159078466581699551
0.284000000000000141,4.065253905649116817
0.285000000000000142,3.974717053576399817
0.286000000000000143,3.887396301904613161
0.287000000000000144,3.803223367221786333
0.288000000000000145,3.722133057916408916
0.289000000000000146,3.644063044210390068
0.290000000000000147,3.568953632531238984
0.291000000000000147,3.496747545170605598
0.292000000000000148,3.427389706066990449
0.293000000000000149,3.360827033446124545
0.294000000000000150,3.297008239952597286
0.295000000000000151,3.235883640811381579
0.296000000000000152,3.177404970468293843
0.297000000000000153,3.121525208073746782
0.298000000000000154,3.068198412095004102
0.299000000000000155,3.017379564268141134
0.300000000000000155,2.969024423032175175
0.301000000000000156,2.923089386524421407
0.302000000000000157,2.879531365157563805
0.303000000000000158,2.838307663745672560
0.304000000000000159,2.799375873097546652
0.305000000000000160,2.762693770952155070
0.306000000000000161,2.728219232091205093
0.307000000000000162,2.695910147428880244
0.308000000000000163,2.665724351847817530
0.309000000000000163,2.637619560523172701
0.310000000000000164,2.611553313453249814
0.311000000000000165,2.587482927895313090
0.312000000000000166,2.565365458388450648
0.313000000000000167,2.545157664031839406
0.314000000000000168,2.526815982676058336
0.315000000000000169,2.510296511677017506
0.316000000000000170,2.495554994856403752
0.317000000000000171,2.482546815309336186
0.318000000000000171,2.471226993698528496
0.319000000000000172,2.461550191674956700
0.320000000000000173,2.453470720067282951
0.321000000000000174,2.446942551486313899
0.322000000000000175,2.441919336995899137
0.323000000000000176,2.438354426508264172
0.324000000000000177,2.436200892569391208
0.325000000000000178,2.435411557208636779
0.326000000000000179,2.435939021536060789
0.327000000000000179,2.437735697781197253
0.328000000000000180,2.440753843477696527
0.329000000000000181,2.444945597509232016
0.330000000000000182,2.450263017744064520
0.331000000000000183,2.456658119997142897
0.332000000000000184,2.464082918071046180
0.333000000000000185,2.472489464639200385
0.334000000000000186,2.481829892747179578
0.335000000000000187,2.492056457720268625
0.336000000000000187,2.503121579277769904
0.337000000000000188,2.514977883666826397
0.338000000000000189,2.527578245640480503
0.339000000000000190,2.540875830116686274
0.340000000000000191,2.554824133366689232
0.341000000000000192,2.569377023592458897
0.342000000000000193,2.584488780764199412
0.343000000000000194,2.600114135599551179
0.344000000000000195,2.616208307576903813
0.345000000000000195,2.632727041885058128
0.346000000000000196,2.649626645221544674
0.347000000000000197,2.666864020361216170
0.348000000000000198,2.684396699425740884
0.349000000000000199,2.702182875793425865
0.350000000000000200,2.720181434596892878
0.351000000000000201,2.738351981764196363
0.352000000000000202,2.756654871566323717
0.353000000000000203,2.775051232641181809
0.354000000000000203,2.793502992470904722
0.355000000000000204,2.811972900295636624
0.356000000000000205,2.830424548452879385
0.357000000000000206,2.848822392137100312
0.358000000000000207,2.867131767579599533
0.359000000000000208,2.885318908653379477
0.360000000000000209,2.903350961912381401
0.361000000000000210,2.921196000078665200
0.362000000000000210,2.938823033994933276
0.363000000000000211,2.956202023063396744
0.364000000000000212,2.973303884195227731
0.365000000000000213,2.990100499297858150
0.366000000000000214,3.006564721330007295
0.367000000000000215,3.022670378956844317
0.368000000000000216,3.038392279839738030
0.369000000000000217,3.053706212597115943
0.370000000000000218,3.068588947474530482
0.371000000000000218,3.083018235763596238
0.372000000000000219,3.096972808010647782
0.373000000000000220,3.110432371057101353
0.374000000000000221,3.123377603954311521
0.375000000000000222,3.135790152796539942
0.376000000000000223,3.147652624515990372
0.377000000000000224,3.158948579684464075
0.378000000000000225,3.169662524366249734
0.379000000000000226,3.179779901067075976
0.380000000000000226,3.189287078823804134
0.381000000000000227,3.198171342479548596
0.382000000000000228,3.206420881188511096
0.383000000000000229,3.214024776194472022
0.384000000000000230,3.220972987926602915
0.385000000000000231,3.227256342455409932
0.386000000000000232,3.232866517351346225
0.387000000000000233,3.237796026987659559
0.388000000000000234,3.242038207328516997
0.389000000000000234,3.245587200242445736
0.390000000000000235,3.248437937380453722
0.391000000000000236,3.250586123657105642
0.392000000000000237,3.252028220372076728
0.393000000000000238,3.252761428008547284
0.394000000000000239,3.252783668743937540
0.395000000000000240,3.252093568707353111
0.396000000000000241,3.250690440017111715
0.397000000000000242,3.248574262630618215
0.398000000000000242,3.245745666037792354
0.399000000000000243,3.242205910828143800
0.400000000000000244,3.237956870160552114
0.401000000000000245,3.233001011163540106
0.402000000000000246,3.227341376292996333
0.403000000000000247,3.220981564672930286
0.404000000000000248,3.213925713443956944
0.405000000000000249,3.206178479142978599
0.406000000000000250,3.197745019136599254
0.407000000000000250,3.188630973129570556
0.408000000000000251,3.178842444768726239
0.409000000000000252,3.168385983361615033
0.410000000000000253,3.157268565728211573
0.411000000000000254,3.145497578202946620
0.412000000000000255,3.133080798803432820
0.413000000000000256,3.120026379581178677
0.414000000000000257,3.106342829168799113
0.415000000000000258,3.092038995537122581
0.416000000000000258,3.077124048974940074
0.417000000000000259,3.061607465303004094
0.418000000000000260,3.045499009333283880
0.419000000000000261,3.028808718583485327
0.420000000000000262,3.011546887256149940
0.421000000000000263,2.993724050490784716
0.422000000000000264,2.975350968896849579
0.423000000000000265,2.956438613374577695
0.424000000000000266,2.936998150229948479
0.425000000000000266,2.917040926589523409
0.426000000000000267,2.896578456120096678
0.427000000000000268,2.875622405057553177
0.428000000000000269,2.854184578548731643
0.429000000000000270,2.832276907309459801
0.430000000000000271,2.809911434601426450
0.431000000000000272,2.787100303529998602
0.432000000000000273,2.763855744664601932
0.433000000000000274,2.740190063982772095
0.434000000000000274,2.716115631138536379
0.435000000000000275,2.691644868055375728
0.436000000000000276,2.666790237843536637
0.437000000000000277,2.641564234041102743
0.438000000000000278,2.615979370177871299
0.439000000000000279,2.590048169660690736
0.440000000000000280,2.563783155978573980
0.441000000000000281,2.537196843225654419
0.442000000000000282,2.510301726939617062
0.443000000000000282,2.483110275253131771
0.444000000000000283,2.455634920355351802
0.445000000000000284,2.427888050260484043
0.446000000000000285,2.399882000880077193
0.447000000000000286,2.371629048395490269
0.448000000000000287,2.343141401926844392
0.449000000000000288,2.314431196494525000
0.450000000000000289,2.285510486269141772
0.451000000000000290,2.256391238105748265
0.452000000000000290,2.227085325357872847
0.453000000000000291,2.197604521966913804
0.454000000000000292,2.167960496822214367
0.455000000000000293,2.138164808387098770
0.456000000000000294,2.108228899586046090
0.457000000000000295,2.078164092948058261
0.458000000000000296,2.047981586001247134
0.459000000000000297,2.017692446913597060
0.460000000000000298,1.987307610374736466
0.461000000000000298,1.956837873713660914
0.462000000000000299,1.926293893247108757
0.463000000000000300,1.895686180853452196
0.464000000000000301,1.865025100766815047
0.465000000000000302,1.834320866586211851
0.466000000000000303,1.803583538494387684
0.467000000000000304,1.772823020681164596
0.468000000000000305,1.742049058966014474
0.469000000000000306,1.711271238614623602
0.470000000000000306,1.680498982344251768
0.471000000000000307,1.649741548512668743
0.472000000000000308,1.619008029485545119
0.473000000000000309,1.588307350177116106
0.474000000000000310,1.557648266759115163
0.475000000000000311,1.527039365532808946
0.476000000000000312,1.496489061959306088
0.477000000000000313,1.466005599843002161
0.478000000000000314,1.435597050663443675
0.479000000000000314,1.405271313050647564
0.480000000000000315,1.375036112399181221
0.481000000000000316,1.344899000616241569
0.482000000000000317,1.314867355999125742
0.483000000000000318,1.284948383237477731
0.484000000000000319,1.255149113535823924
0.485000000000000320,1.225476404851957968
0.486000000000000321,1.195936942246788703
0.487000000000000322,1.166537238341378124
0.488000000000000322,1.137283633876947198
0.489000000000000323,1.108182298373714403
0.490000000000000324,1.079239230884479817
0.491000000000000325,1.050460260839011450
0.492000000000000326,1.021851048975286558
0.493000000000000327,0.993417088353797162
0.494000000000000328,0.965163705451150378
0.495000000000000329,0.937096061329307672
0.496000000000000330,0.909219152876893366
0.497000000000000330,0.881537814119014440
0.498000000000000331,0.854056717592251324
0.499000000000000332,0.826780375781418497
0.500000000000000333,0.799713142614822070
0.501000000000000334,0.772859215014894518
0.502000000000000335,0.746222634501029991
0.503000000000000336,0.719807288841666559
0.504000000000000337,0.693616913752599817
0.505000000000000338,0.667655094638728297
0.506000000000000338,0.641925268376391855
0.507000000000000339,0.616430725133606860
0.508000000000000340,0.591174610225575936
0.509000000000000341,0.566159926002882674
0.510000000000000342,0.541389533769913056
0.511000000000000343,0.516866155731059429
0.512000000000000344,0.492592376962395107
0.513000000000000345,0.468570647406541418
0.514000000000000346,0.444803283888492385
0.515000000000000346,0.421292472150337272
0.516000000000000347,0.398040268902761396
0.517000000000000348,0.375048603891349697
0.518000000000000349,0.352319281975768006
0.519000000000000350,0.329853985219968560
0.520000000000000351,0.307654274991602639
0.521000000000000352,0.285721594068906126
0.522000000000000353,0.264057268753425445
0.523000000000000353,0.242662510986888735
0.524000000000000354,0.221538420470770075
0.525000000000000355,0.200685986786952292
0.526000000000000356,0.180106091518143135
0.527000000000000357,0.159799510366587821
0.528000000000000358,0.139766915269776859
0.529000000000000359,0.120008876511902035
0.530000000000000360,0.100525864829801720
0.531000000000000361,0.081318253512238980
0.532000000000000361,0.062386320491386718
0.533000000000000362,0.043730250425464204
0.534000000000000363,0.025350136771488431
0.535000000000000364,0.007245983847148097
0.536000000000000365,-0.010582291119091846
0.537000000000000366,-0.028134855950591044
0.538000000000000367,-0.045411961498634544
0.539000000000000368,-0.062413939632891643
0.540000000000000369,-0.079141201246946222
0.541000000000000369,-0.095594234279655493
0.542000000000000370,-0.111773601752988144
0.543000000000000371,-0.127679939827026745
0.544000000000000372,-0.143313955872711396
0.545000000000000373,-0.158676426562913087
0.546000000000000374,-0.173768195982380330
0.547000000000000375,-0.188590173757046203
0.548000000000000376,-0.203143333203202048
0.549000000000000377,-0.217428709496931744
0.550000000000000377,-0.231447397864284199
0.551000000000000378,-0.245200551792487842
0.552000000000000379,-0.258689381262630858
0.553000000000000380,-0.271915151004093858
0.554000000000000381,-0.284879178771026365
0.555000000000000382,-0.297582833641189703
0.556000000000000383,-0.310027534337341204
0.557000000000000384,-0.322214747571456739
0.558000000000000385,-0.334145986411926166
0.559000000000000385,-0.345822808673953208
0.560000000000000386,-0.357246815333274903
0.561000000000000387,-0.368419648963362323
0.562000000000000388,-0.379342992196186723
0.563000000000000389,-0.390018566206697614
0.564000000000000390,-0.400448129221014415
0.565000000000000391,-0.410633475048460705
0.566000000000000392,-0.420576431637433246
0.567000000000000393,-0.430278859655158719
0.568000000000000393,-0.439742651091311998
0.569000000000000394,-0.448969727885535796
0.570000000000000395,-0.457962040578792806
0.571000000000000396,-0.466721566988527681
0.572000000000000397,-0.475250310907616158
0.573000000000000398,-0.483550300826990298
0.574000000000000399,-0.491623588681900592
0.575000000000000400,-0.499472248621707415
0.576000000000000401,-0.507098375803105350
0.577000000000000401,-0.514504085206691442
0.578000000000000402,-0.521691510476722575
0.579000000000000403,-0.528662802783944064
0.580000000000000404,-0.535420129711381199
0.581000000000000405,-0.541965674162885103
0.582000000000000406,-0.548301633294341118
0.583000000000000407,-0.554430217467312914
0.584000000000000408,-0.560353649225014072
0.585000000000000409,-0.566074162290362781
0.586000000000000409,-0.571594000585984530
0.587000000000000410,-0.576915417275957410
0.588000000000000411,-0.582040673829065325
0.589000000000000412,-0.586972039103429433
0.590000000000000413,-0.591711788452227716
0.591000000000000414,-0.596262202850341927
0.592000000000000415,-0.600625568041708080
0.593000000000000416,-0.604804173707116033
0.594000000000000417,-0.608800312652266196
0.595000000000000417,-0.612616280015850889
0.596000000000000418,-0.616254372497387237
0.597000000000000419,-0.619716887604633393
0.598000000000000420,-0.623006122920272021
0.599000000000000421,-0.626124375387690724
0.600000000000000422,-0.629073940615565319
0.601000000000000423,-0.631857112201010929
0.602000000000000424,-0.634476181071077172
0.603000000000000425,-0.636933434842325341
0.604000000000000425,-0.639231157198202338
0.605000000000000426,-0.641371627284020529
0.606000000000000427,-0.643357119119260634
0.607000000000000428,-0.645189901026906987
0.608000000000000429,-0.646872235079670732
0.609000000000000430,-0.648406376562692066
0.610000000000000431,-0.649794573452625368
0.611000000000000432,-0.651039065912733195
0.612000000000000433,-0.652142085803792182
0.613000000000000433,-0.653105856210560831
0.614000000000000434,-0.653932590983527851
0.615000000000000435,-0.654624494295696135
0.616000000000000436,-0.655183760214165134
0.617000000000000437,-0.655612572286264017
0.618000000000000438,-0.655913103139948772
0.619000000000000439,-0.656087514098248836
