# CNT15-NH3+-2_HMB
# h[nm],U(h)[kJ/mol]
0.149999999999999994,143.476080957319425124
0.150999999999999995,141.574143587018909329
0.151999999999999996,139.679320408018043054
0.152999999999999997,137.805283229773465337
0.153999999999999998,135.944938972157700618
0.154999999999999999,134.088768776573317609
0.156000000000000000,132.231305774322549951
0.157000000000000001,130.372003596096078581
0.158000000000000002,128.513899009215691649
0.159000000000000002,126.661788025111789580
0.160000000000000003,124.820677039961282162
0.161000000000000004,122.994755473593656347
0.162000000000000005,121.186883162634032374
0.163000000000000006,119.398481238121718206
0.164000000000000007,117.629690096060727456
0.165000000000000008,115.879671218207292327
0.166000000000000009,114.146957607517194333
0.167000000000000010,112.429787965303688679
0.168000000000000010,110.726386471893448515
0.169000000000000011,109.035170892783895624
0.170000000000000012,107.354886482004417303
0.171000000000000013,105.684672527375795426
0.172000000000000014,104.024073479190292346
0.173000000000000015,102.373008562539112631
0.174000000000000016,100.731713607435580116
0.175000000000000017,99.100667364551398464
0.176000000000000018,97.480512433962886121
0.177000000000000018,95.871978565826466934
0.178000000000000019,94.275813791199965408
0.179000000000000020,92.692726786425481578
0.180000000000000021,91.123342156410359394
0.181000000000000022,89.568168970193895007
0.182000000000000023,88.027581885360490332
0.183000000000000024,86.501813520759938569
0.184000000000000025,84.990956331682411928
0.185000000000000026,83.494972055871599537
0.186000000000000026,82.013706781477665686
0.187000000000000027,80.546909792685710272
0.188000000000000028,79.094254535009028473
0.189000000000000029,77.655360276764866967
0.190000000000000030,76.229813299598959020
0.191000000000000031,74.817186709026913150
0.192000000000000032,73.417058201385998473
0.193000000000000033,72.029025346659068418
0.194000000000000034,70.652718141566111854
0.195000000000000034,69.287808751376189775
0.196000000000000035,67.934018491658463290
0.197000000000000036,66.591122203905413812
0.198000000000000037,65.258950253999643110
0.199000000000000038,63.937388432920556625
0.200000000000000039,62.626376068325953383
0.201000000000000040,61.325902667197638607
0.202000000000000041,60.036003407040631430
0.203000000000000042,58.756753779358838585
0.204000000000000042,57.488263667191020545
0.205000000000000043,56.230671110917263888
0.206000000000000044,54.984135985506291888
0.207000000000000045,53.748833779678271583
0.208000000000000046,52.524949634564237044
0.209000000000000047,51.312672767494277082
0.210000000000000048,50.112191376400950560
0.211000000000000049,48.923688092592826138
0.212000000000000050,47.747336024726948267
0.213000000000000050,46.583295414920698363
0.214000000000000051,45.431710909156002742
0.215000000000000052,44.292709428420074858
0.216000000000000053,43.166398614263783884
0.217000000000000054,42.052865812460815675
0.218000000000000055,40.952177550986796462
0.219000000000000056,39.864379463351767185
0.220000000000000057,38.789496605137635754
0.221000000000000058,37.727534110151857760
0.222000000000000058,36.678478132629194874
0.223000000000000059,35.642297023154284830
0.224000000000000060,34.618942688192120727
0.225000000000000061,33.608352086087911914
0.226000000000000062,32.610448815935036748
0.227000000000000063,31.625144759636498293
0.228000000000000064,30.652341741650360518
0.229000000000000065,29.691933175182345650
0.230000000000000066,28.743805667863263409
0.231000000000000066,27.807840564131595329
0.232000000000000067,26.883915405564977164
0.233000000000000068,25.971905294209808090
0.234000000000000069,25.071684147505326479
0.235000000000000070,24.183125836658629026
0.236000000000000071,23.306105203283003391
0.237000000000000072,22.440498951751067125
0.238000000000000073,21.586186417040721608
0.239000000000000073,20.743050209868307832
0.240000000000000074,19.910976742617087609
0.241000000000000075,19.089856641001425430
0.242000000000000076,18.279585047568893685
0.243000000000000077,17.480061824055276531
0.244000000000000078,16.691191660293984711
0.245000000000000079,15.912884097858938759
0.246000000000000080,15.145053476915673940
0.247000000000000081,14.387618814883911256
0.248000000000000081,13.640503625504203811
0.249000000000000082,12.903635686766355306
0.250000000000000111,12.176946765918751581
0.251000000000000112,11.460372309454685436
0.252000000000000113,10.753851105576680780
0.253000000000000114,10.057324926194599612
0.254000000000000115,9.370738155022717564
0.255000000000000115,8.694037407825751629
0.256000000000000116,8.027171150328944904
0.257000000000000117,7.370089318764830644
0.258000000000000118,6.722742947488538512
0.259000000000000119,6.085083807558252289
0.260000000000000120,5.457064059656639543
0.261000000000000121,4.838635924227290275
0.262000000000000122,4.229751371219222733
0.263000000000000123,3.630361831379149695
0.264000000000000123,3.040417930603962926
0.265000000000000124,2.459869248469680247
0.266000000000000125,1.888664101686922336
0.267000000000000126,1.326749352898748846
0.268000000000000127,0.774070244932597906
0.269000000000000128,0.230570260346947276
0.270000000000000129,-0.303808994128771270
0.271000000000000130,-0.829127878875175695
0.272000000000000131,-1.345448789181893590
0.273000000000000131,-1.852836200519204279
0.274000000000000132,-2.351356692367551293
0.275000000000000133,-2.841078951797934682
0.276000000000000134,-3.322073758081116157
0.277000000000000135,-3.794413949666846086
0.278000000000000136,-4.258174374920821847
0.279000000000000137,-4.713431828034314819
0.280000000000000138,-5.160264971533282896
0.281000000000000139,-5.598754246813010482
0.282000000000000139,-6.028981774108944869
0.283000000000000140,-6.451031243289942374
0.284000000000000141,-6.864987796824796540
0.285000000000000142,-7.270937906230102499
0.286000000000000143,-7.668969243257505397
0.287000000000000144,-8.059170547022269204
0.288000000000000145,-8.441631488215469048
0.289000000000000146,-8.816442531476759825
0.290000000000000147,-9.183694796939168015
0.291000000000000147,-9.543479921887477957
0.292000000000000148,-9.895889923403013100
0.293000000000000149,-10.241017062796228032
0.294000000000000150,-10.578953712559412637
0.295000000000000151,-10.909792226501789258
0.296000000000000152,-11.233624813661483799
0.297000000000000153,-11.550543416521925622
0.298000000000000154,-11.860639593996026520
0.299000000000000155,-12.164004409578806687
0.300000000000000155,-12.460728325009476691
0.301000000000000156,-12.750901099726512200
0.302000000000000157,-13.034611696345578480
0.303000000000000158,-13.311948192338110886
0.304000000000000159,-13.582997698040585988
0.305000000000000160,-13.847846281079117858
0.306000000000000161,-14.106578897252067151
0.307000000000000162,-14.359279327874361343
0.308000000000000163,-14.606030123551459354
0.309000000000000163,-14.846912554317919231
0.310000000000000164,-15.082006566045944140
0.311000000000000165,-15.311390743002224468
0.312000000000000166,-15.535142276407260198
0.313000000000000167,-15.753336938830093672
0.314000000000000168,-15.966049064232299415
0.315000000000000169,-16.173351533459051410
0.316000000000000170,-16.375315764961033693
0.317000000000000171,-16.572011710519028327
0.318000000000000171,-16.763507855733600138
0.319000000000000172,-16.949871225034751632
0.320000000000000173,-17.131167390960307273
0.321000000000000174,-17.307460487447912101
0.322000000000000175,-17.478813226883172405
0.323000000000000176,-17.645286920645229856
0.324000000000000177,-17.806941502891671547
0.325000000000000178,-17.963835557325939618
0.326000000000000179,-18.116026346693733018
0.327000000000000179,-18.263569844757917338
0.328000000000000180,-18.406520770506656248
0.329000000000000181,-18.544932624354792949
0.330000000000000182,-18.678857726104503456
0.331000000000000183,-18.808347254438530172
0.332000000000000184,-18.933451287726086321
0.333000000000000185,-19.054218845929739246
0.334000000000000186,-19.170697933409730496
0.335000000000000187,-19.282935582430390298
0.336000000000000187,-19.390977897182839484
0.337000000000000188,-19.494870098145849369
0.338000000000000189,-19.594656566617167925
0.339000000000000190,-19.690380889255980179
0.340000000000000191,-19.782085902486386431
0.341000000000000192,-19.869813736621210865
0.342000000000000193,-19.953605859574494730
0.343000000000000194,-20.033503120040016654
0.344000000000000195,-20.109545790021737588
0.345000000000000195,-20.181773606611734806
0.346000000000000196,-20.250225812918554169
0.347000000000000197,-20.314941198058257044
0.348000000000000198,-20.375958136128048181
0.349000000000000199,-20.433314624090414213
0.350000000000000200,-20.487048318503390476
0.351000000000000201,-20.537196571039963544
0.352000000000000202,-20.583796462746541067
0.353000000000000203,-20.626884836997525952
0.354000000000000203,-20.666498331109455222
0.355000000000000204,-20.702673406584160887
0.356000000000000205,-20.735446377956776587
0.357000000000000206,-20.764853440229984471
0.358000000000000207,-20.790930694880678686
0.359000000000000208,-20.813714174431247272
0.360000000000000209,-20.833239865581635542
0.361000000000000210,-20.849543730903189243
0.362000000000000210,-20.862661729099489349
0.363000000000000211,-20.872629833843035385
0.364000000000000212,-20.879484051200787320
0.365000000000000213,-20.883260435664290355
0.366000000000000214,-20.883995104803812382
0.367000000000000215,-20.881724252568396594
0.368000000000000216,-20.876484161256673389
0.369000000000000217,-20.868311212185279402
0.370000000000000218,-20.857241895084378314
0.371000000000000218,-20.843312816251092556
0.372000000000000219,-20.826560705494088666
0.373000000000000220,-20.807022421903603515
0.374000000000000221,-20.784734958482612655
0.375000000000000222,-20.759735445676085419
0.376000000000000223,-20.732061153836394141
0.377000000000000224,-20.701749494663410189
0.378000000000000225,-20.668838021658721971
0.379000000000000226,-20.633364429633868298
0.380000000000000226,-20.595366553312928204
0.381000000000000227,-20.554882365069826022
0.382000000000000228,-20.511949971841154650
0.383000000000000229,-20.466607611254946875
0.384000000000000230,-20.418893647016030712
0.385000000000000231,-20.368846563588363097
0.386000000000000232,-20.316504960214125219
0.387000000000000233,-20.261907544309472939
0.388000000000000234,-20.205093124275855132
0.389000000000000234,-20.146100601765787985
0.390000000000000235,-20.084968963440907430
0.391000000000000236,-20.021737272259755969
0.392000000000000237,-19.956444658331953690
0.393000000000000238,-19.889130309374671413
0.394000000000000239,-19.819833460806286496
0.395000000000000240,-19.748593385511707510
0.396000000000000241,-19.675449383312578533
0.397000000000000242,-19.600440770174639482
0.398000000000000242,-19.523606867184060576
0.399000000000000243,-19.444986989322924131
0.400000000000000244,-19.364620434073636090
0.401000000000000245,-19.282546469880767148
0.402000000000000246,-19.198804324497761087
0.403000000000000247,-19.113433173245194752
0.404000000000000248,-19.026472127206083940
0.405000000000000249,-18.937960221382716952
0.406000000000000250,-18.847936402838492143
0.407000000000000250,-18.756439518847365377
0.408000000000000251,-18.663508305072216586
0.409000000000000252,-18.569181373792826406
0.410000000000000253,-18.473497202202779022
0.411000000000000254,-18.376494120793928744
0.412000000000000255,-18.278210301845927432
0.413000000000000256,-18.178683748037535395
0.414000000000000257,-18.077952281195173612
0.415000000000000258,-17.976053531193763035
0.416000000000000258,-17.873024925023489828
0.417000000000000259,-17.768903676035556316
0.418000000000000260,-17.663726773379146096
0.419000000000000261,-17.557530971640680661
0.420000000000000262,-17.450352780695993715
0.421000000000000263,-17.342228455785146934
0.422000000000000264,-17.233193987818562931
0.423000000000000265,-17.123285093922767430
0.424000000000000266,-17.012537208233297292
0.425000000000000266,-16.900985472941101762
0.426000000000000267,-16.788664729598899328
0.427000000000000268,-16.675609510692549264
0.428000000000000269,-16.561854031482262428
0.429000000000000270,-16.447432182117871946
0.430000000000000271,-16.332377520031506890
0.431000000000000272,-16.216723262610788225
0.432000000000000273,-16.100502280154803003
0.433000000000000274,-15.983747089114984874
0.434000000000000274,-15.866489845621970289
0.435000000000000275,-15.748762339299627655
0.436000000000000276,-15.630595987366621813
0.437000000000000277,-15.512021829025377073
0.438000000000000278,-15.393070520138312673
0.439000000000000279,-15.273772328190409198
0.440000000000000280,-15.154157127536894478
0.441000000000000281,-15.034254394934635002
0.442000000000000282,-14.914093205355408500
0.443000000000000282,-14.793702228078711158
0.444000000000000283,-14.673109723061845244
0.445000000000000284,-14.552343537584414790
0.446000000000000285,-14.431431103164191754
0.447000000000000286,-14.310399432741295556
0.448000000000000287,-14.189275118126889907
0.449000000000000288,-14.068084327713071602
0.450000000000000289,-13.946852804439689777
0.451000000000000290,-13.825605864014283597
0.452000000000000290,-13.704368393380827129
0.453000000000000291,-13.583164849432771248
0.454000000000000292,-13.462019257966028718
0.455000000000000293,-13.340955212867067203
0.456000000000000294,-13.219995875531399321
0.457000000000000295,-13.099163974507678887
0.458000000000000296,-12.978481805362161339
0.459000000000000297,-12.857971230758849401
0.460000000000000298,-12.737653680749737362
0.461000000000000298,-12.617550153270460811
0.462000000000000299,-12.497681214835729691
0.463000000000000300,-12.378067001429378990
0.464000000000000301,-12.258727219583834156
0.465000000000000302,-12.139681147643589298
0.466000000000000303,-12.020947637207241243
0.467000000000000304,-11.902545114742897781
0.468000000000000305,-11.784491583371501378
0.469000000000000306,-11.666804624812719737
0.470000000000000306,-11.549501401488216246
0.471000000000000307,-11.432598658776640832
0.472000000000000308,-11.316112727415520212
0.473000000000000309,-11.200059526044347180
0.474000000000000310,-11.084454563883983980
0.475000000000000311,-10.969312943546867700
0.476000000000000312,-10.854649363973374321
0.477000000000000313,-10.740478123488616191
0.478000000000000314,-10.626813122975180548
0.479000000000000314,-10.513667869156616774
0.480000000000000315,-10.401055477986659525
0.481000000000000316,-10.288988678139618926
0.482000000000000317,-10.177479814596850360
0.483000000000000318,-10.066540852324806110
0.484000000000000319,-9.956183380039947295
0.485000000000000320,-9.846418614055968632
0.486000000000000321,-9.737257402208863155
0.487000000000000322,-9.628710227855389547
0.488000000000000322,-9.520787213940568705
0.489000000000000323,-9.413498127130155879
0.490000000000000324,-9.306852382003697244
0.491000000000000325,-9.200859045304252248
0.492000000000000326,-9.095526840240639288
0.493000000000000327,-8.990864150838508095
0.494000000000000328,-8.886879026336211851
0.495000000000000329,-8.783579185621887220
0.496000000000000330,-8.680972021708010189
0.497000000000000330,-8.579064606239956703
0.498000000000000331,-8.477863694034915909
0.499000000000000332,-8.377375727648134429
0.500000000000000333,-8.277606841962789730
0.501000000000000334,-8.178562868800515417
0.502000000000000335,-8.080249341549409436
0.503000000000000336,-7.982671499806582638
0.504000000000000337,-7.885834294032095571
0.505000000000000338,-7.789742390211637613
0.506000000000000338,-7.694400174525080516
0.507000000000000339,-7.599811758018175212
0.508000000000000340,-7.505980981274861463
0.509000000000000341,-7.412911419087715004
0.510000000000000342,-7.320606385123918258
0.511000000000000343,-7.229068936584596372
0.512000000000000344,-7.138301878855052962
0.513000000000000345,-7.048307770143887652
0.514000000000000346,-6.959088926108757178
0.515000000000000346,-6.870647424466772790
0.516000000000000347,-6.782985109587523986
0.517000000000000348,-6.696103597067006419
0.518000000000000349,-6.610004278280302792
0.519000000000000350,-6.524688324911690707
0.520000000000000351,-6.440156693460101778
0.521000000000000352,-6.356410129718655710
0.522000000000000353,-6.273449173226510744
0.523000000000000353,-6.191274161691601385
0.524000000000000354,-6.109885235383037738
0.525000000000000355,-6.029282341491520647
0.526000000000000356,-5.949465238456761895
0.527000000000000357,-5.870433500260641146
0.528000000000000358,-5.792186520684703410
0.529000000000000359,-5.714723517531373531
0.530000000000000360,-5.638043536807355594
0.531000000000000361,-5.562145456868607951
0.532000000000000361,-5.487027992525729481
0.533000000000000362,-5.412689699109055397
0.534000000000000363,-5.339128976492540701
0.535000000000000364,-5.266344073075691412
0.536000000000000365,-5.194333089722849905
0.537000000000000366,-5.123093983659179784
0.538000000000000367,-5.052624572322590879
0.539000000000000368,-4.982922537171328159
0.540000000000000369,-4.913985427446292853
0.541000000000000369,-4.845810663888036274
0.542000000000000370,-4.778395542407609220
0.543000000000000371,-4.711737237711107085
0.544000000000000372,-4.645832806877466581
0.545000000000000373,-4.580679192889213880
0.546000000000000374,-4.516273228115771587
0.547000000000000375,-4.452611637749249063
0.548000000000000376,-4.389691043192399889
0.549000000000000377,-4.327507965398575074
0.550000000000000377,-4.266058828163487249
0.551000000000000378,-4.205339961368772528
0.552000000000000379,-4.145347604177187506
0.553000000000000380,-4.086077908179392537
0.554000000000000381,-4.027526940492291097
0.555000000000000382,-3.969690686809016711
0.556000000000000383,-3.912565054400388043
0.557000000000000384,-3.856145875068172302
0.558000000000000385,-3.800428908049940269
0.559000000000000385,-3.745409842875839779
0.560000000000000386,-3.691084302177290333
0.561000000000000387,-3.637447844447797785
0.562000000000000388,-3.584495966756017449
0.563000000000000389,-3.532224107411286784
0.564000000000000390,-3.480627648581827494
0.565000000000000391,-3.429701918865821320
0.566000000000000392,-3.379442195815611338
0.567000000000000393,-3.329843708415344050
0.568000000000000393,-3.280901639512208590
0.569000000000000394,-3.232611128201656303
0.570000000000000395,-3.184967272166927543
0.571000000000000396,-3.137965129973077527
0.572000000000000397,-3.091599723316009296
0.573000000000000398,-3.045866039226670985
0.574000000000000399,-3.000759032230966739
0.575000000000000400,-2.956273626465564242
0.576000000000000401,-2.912404717750094907
0.577000000000000401,-2.869147175616167278
0.578000000000000402,-2.826495845293424569
0.579000000000000403,-2.784445549653211227
0.580000000000000404,-2.742991091110235757
0.581000000000000405,-2.702127253482570435
0.582000000000000406,-2.661848803810512365
0.583000000000000407,-2.622150494134694476
0.584000000000000408,-2.583027063233881648
0.585000000000000409,-2.544473238322942699
0.586000000000000409,-2.506483736711400123
0.587000000000000410,-2.469053267423065190
0.588000000000000411,-2.432176532777160727
0.589000000000000412,-2.395848229931484941
0.590000000000000413,-2.360063052387975979
0.591000000000000414,-2.324815691461239453
0.592000000000000415,-2.290100837710506099
0.593000000000000416,-2.255913182335413936
0.594000000000000417,-2.222247418536174468
0.595000000000000417,-2.189098242838679376
0.596000000000000418,-2.156460356384735988
0.597000000000000419,-2.124328466188335707
0.598000000000000420,-2.092697286358053965
0.599000000000000421,-2.061561539286318911
0.600000000000000422,-2.030915956805908973
0.601000000000000423,-2.000755281314219758
0.602000000000000424,-1.971074266865755931
0.603000000000000425,-1.941867680233338334
0.604000000000000425,-1.913130301938525069
0.605000000000000426,-1.884856927251682635
0.606000000000000427,-1.857042367162308638
0.607000000000000428,-1.829681449319817244
0.608000000000000429,-1.802769018945689750
