# CNT15-NH3+-2_LEUSCA-JS
# h[nm],U(h)[kJ/mol]
0.149999999999999994,180.697799327476559483
0.150999999999999995,177.623639522846588079
0.151999999999999996,175.925607545094578654
0.152999999999999997,174.558696938923674224
0.153999999999999998,173.109377944336529254
0.154999999999999999,171.476271812681432039
0.156000000000000000,169.691178657984437450
0.157000000000000001,167.825227942250819524
0.158000000000000002,165.944841304303139395
0.159000000000000002,164.095408781660182740
0.160000000000000003,162.299223129875542782
0.161000000000000004,160.559778929674564552
0.162000000000000005,158.868048220927192915
0.163000000000000006,157.208494076294897468
0.164000000000000007,155.563854103591552303
0.165000000000000008,153.918437469007130858
0.166000000000000009,152.260044267801958995
0.167000000000000010,150.580774076699157149
0.168000000000000010,148.877030708662289271
0.169000000000000011,147.149008655775048737
0.170000000000000012,145.399897541321507788
0.171000000000000013,143.634983896684417459
0.172000000000000014,141.860775421225639548
0.173000000000000015,140.084226634747466278
0.174000000000000016,138.312108208172332979
0.175000000000000017,136.550535102512185404
0.176000000000000018,134.804649858754260094
0.177000000000000018,133.078445482672492517
0.178000000000000019,131.374705828172523070
0.179000000000000020,129.695038794098906010
0.180000000000000021,128.039977810806931302
0.181000000000000022,126.409129031065504023
0.182000000000000023,124.801344602085265478
0.183000000000000024,123.214905824276613089
0.184000000000000025,121.647703504643075689
0.185000000000000026,120.097406127635778716
0.186000000000000026,118.561609435366193566
0.187000000000000027,117.037963550280821323
0.188000000000000028,115.524275859520486165
0.189000000000000029,114.018589521399576370
0.190000000000000030,112.519238684780845006
0.191000000000000031,111.024882379266500720
0.192000000000000032,109.534519591969484509
0.193000000000000033,108.047488350031017035
0.194000000000000034,106.563451729414779834
0.195000000000000034,105.082373657599418948
0.196000000000000035,103.604487212611203972
0.197000000000000036,102.130257879166265411
0.198000000000000037,100.660343934116525588
0.199000000000000038,99.195555821690092557
0.200000000000000039,97.736816062668168570
0.201000000000000040,96.285120934501378542
0.202000000000000041,94.841504871330542414
0.203000000000000042,93.407008270527910554
0.204000000000000042,91.982649159629843894
0.205000000000000043,90.569398976175079952
0.206000000000000044,89.168162543156043398
0.207000000000000045,87.779762183485587457
0.208000000000000046,86.404925806176962055
0.209000000000000047,85.044278712366448758
0.210000000000000048,83.698338808085750884
0.211000000000000049,82.367514869879215667
0.212000000000000050,81.052107486012204163
0.213000000000000050,79.752312287296959425
0.214000000000000051,78.468225084786467960
0.215000000000000052,77.199848544309531917
0.216000000000000053,75.947100047825756519
0.217000000000000054,74.709820416920564412
0.218000000000000055,73.487783202742875233
0.219000000000000056,72.280704277877617869
0.220000000000000057,71.088251497827499747
0.221000000000000058,69.910054231987572848
0.222000000000000058,68.745712595424123492
0.223000000000000059,67.594806242832788712
0.224000000000000060,66.456902614274568464
0.225000000000000061,65.331564548370408829
0.226000000000000062,64.218357202360635938
0.227000000000000063,63.116854239698660933
0.228000000000000064,62.026643264619295337
0.229000000000000065,60.947330499426321637
0.230000000000000066,59.878544714169642305
0.231000000000000066,58.819940430041256718
0.232000000000000067,57.771200427358643026
0.233000000000000068,56.732037596588483552
0.234000000000000069,55.702196176664372729
0.235000000000000070,54.681452429050956709
0.236000000000000071,53.669614798784479603
0.237000000000000072,52.666523615246568113
0.238000000000000073,51.672050385880787360
0.239000000000000073,50.686096735596905205
0.240000000000000074,49.708593043372282239
0.241000000000000075,48.739496825701429827
0.242000000000000076,47.778790914179616323
0.243000000000000077,46.826481471755670327
0.244000000000000078,45.882595889152334223
0.245000000000000079,44.947180599718755900
0.246000000000000080,44.020298847631252670
0.247000000000000081,43.102028440957077748
0.248000000000000081,42.192459517707348482
0.249000000000000082,41.291692349669958162
0.250000000000000111,40.399835205577268482
0.251000000000000112,39.517002292055138923
0.252000000000000113,38.643311787844950800
0.253000000000000114,37.778883984011578434
0.254000000000000115,36.923839540253375446
0.255000000000000115,36.078297865033320591
0.256000000000000116,35.242375625050087251
0.257000000000000117,34.416185387570095600
0.258000000000000118,33.599834397343478543
0.259000000000000119,32.793423488222437356
0.260000000000000120,31.997046128185836267
0.261000000000000121,31.210787595240127246
0.262000000000000122,30.434724280604331881
0.263000000000000123,29.668923114687157039
0.264000000000000123,28.913441110615544005
0.265000000000000124,28.168325019465811465
0.266000000000000125,27.433611090870165583
0.267000000000000126,26.709324932311005796
0.268000000000000127,25.995481460161538934
0.269000000000000128,25.292084935375889643
0.270000000000000129,24.599129076661164106
0.271000000000000130,23.916597243969256681
0.272000000000000131,23.244462685220305787
0.273000000000000131,22.582688839299756012
0.274000000000000132,21.931229688551848511
0.275000000000000133,21.290030154214740321
0.276000000000000134,20.659026528499168762
0.277000000000000135,20.038146937298819239
0.278000000000000136,19.427311827826546420
0.279000000000000137,18.826434475795210233
0.280000000000000138,18.235421507097687055
0.281000000000000139,17.654173429282703722
0.282000000000000139,17.082585168470185266
0.283000000000000140,16.520546607695287378
0.284000000000000141,15.967943123013787599
0.285000000000000142,15.424656114038592492
0.286000000000000143,14.890563525906486575
0.287000000000000144,14.365540359994273700
0.288000000000000145,13.849459171010646941
0.289000000000000146,13.342190548387378612
0.290000000000000147,12.843603580173541090
0.291000000000000147,12.353566297905718585
0.292000000000000148,11.871946101178371791
0.293000000000000149,11.398610160877371555
0.294000000000000150,10.933425800260440752
0.295000000000000151,10.476260853275562113
0.296000000000000152,10.026983999698973804
0.297000000000000153,9.585465076850983479
0.298000000000000154,9.151575367808074901
0.299000000000000155,8.725187866177341434
0.300000000000000155,8.306177517631249785
0.301000000000000156,7.894421438520625500
0.302000000000000157,7.489799111989145608
0.303000000000000158,7.092192562107626941
0.304000000000000159,6.701486506627816198
0.305000000000000160,6.317568489027137524
0.306000000000000161,5.940328990576428048
0.307000000000000162,5.569661523213632393
0.308000000000000163,5.205462704048560596
0.309000000000000163,4.847632312357119666
0.310000000000000164,4.496073329948834463
0.311000000000000165,4.150691965810109352
0.312000000000000166,3.811397665937001022
0.313000000000000167,3.478103109277146388
0.314000000000000168,3.150724190700456173
0.315000000000000169,2.829179991913284731
0.316000000000000170,2.513392741221358140
0.317000000000000171,2.203287763033527025
0.318000000000000171,1.898793417981488929
0.319000000000000172,1.599841034510252502
0.320000000000000173,1.306364832772007434
0.321000000000000174,1.018301841630607552
0.322000000000000175,0.735591809556907616
0.323000000000000176,0.458177110166840318
0.324000000000000177,0.186002643123721889
0.325000000000000178,-0.080984268904118958
0.326000000000000179,-0.342833986571901561
0.327000000000000179,-0.599594662846100634
0.328000000000000180,-0.851312354057687570
0.329000000000000181,-1.098031132459609260
0.330000000000000182,-1.339793199760164200
0.331000000000000183,-1.576639001136614704
0.332000000000000184,-1.808607339265240865
0.333000000000000185,-2.035735487936114474
0.334000000000000186,-2.258059304851824489
0.335000000000000187,-2.475613343239914776
0.336000000000000187,-2.688430961938650832
0.337000000000000188,-2.896544433644004712
0.338000000000000189,-3.099985051034543915
0.339000000000000190,-3.298783230517248199
0.340000000000000191,-3.492968613363452768
0.341000000000000192,-3.682570164029111304
0.342000000000000193,-3.867616265477580750
0.343000000000000194,-4.048134811345857287
0.344000000000000195,-4.224153294816661131
0.345000000000000195,-4.395698894080296348
0.346000000000000196,-4.562798554288712616
0.347000000000000197,-4.725479065923632760
0.348000000000000198,-4.883767139517533273
0.349000000000000199,-5.037689476682865042
0.350000000000000200,-5.187272837420325189
0.351000000000000201,-5.332544103691239989
0.352000000000000202,-5.473530339252553389
0.353000000000000203,-5.610258845765375924
0.354000000000000203,-5.742757215199665310
0.355000000000000204,-5.871053378567775205
0.356000000000000205,-5.995175651029841291
0.357000000000000206,-6.115152773422821930
0.358000000000000207,-6.231013950272494384
0.359000000000000208,-6.342788884355877954
0.360000000000000209,-6.450507807887609246
0.361000000000000210,-6.554201510409660258
0.362000000000000210,-6.653901363469339358
0.363000000000000211,-6.749639342174643453
0.364000000000000212,-6.841448043720445682
0.365000000000000213,-6.929360702981964160
0.366000000000000214,-7.013411205275150273
0.367000000000000215,-7.093634096385680543
0.368000000000000216,-7.170064589970503555
0.369000000000000217,-7.242738572436769218
0.370000000000000218,-7.311692605404542356
0.371000000000000218,-7.376963925859787885
0.372000000000000219,-7.438590444104764110
0.373000000000000220,-7.496610739612743046
0.374000000000000221,-7.551064054893430466
0.375000000000000222,-7.601990287474838404
0.376000000000000223,-7.649429980106750904
0.377000000000000224,-7.693424309289182084
0.378000000000000225,-7.734015072228155319
0.379000000000000226,-7.771244672319431501
0.380000000000000226,-7.805156103259262679
0.381000000000000227,-7.835792931878638790
0.382000000000000228,-7.863199279796400099
0.383000000000000229,-7.887419803983412692
0.384000000000000230,-7.908499676328228034
0.385000000000000231,-7.926484562292249514
0.386000000000000232,-7.941420598739474812
0.387000000000000233,-7.953354371023955594
0.388000000000000234,-7.962332889414764914
0.389000000000000234,-7.968403564936350492
0.390000000000000235,-7.971614184698833760
0.391000000000000236,-7.972012886790366792
0.392000000000000237,-7.969648134800943140
0.393000000000000238,-7.964568692044244003
0.394000000000000239,-7.956823595541210992
0.395000000000000240,-7.946462129826683096
0.396000000000000241,-7.933533800637358802
0.397000000000000242,-7.918088308536688658
0.398000000000000242,-7.900175522529989003
0.399000000000000243,-7.879845453719866555
0.400000000000000244,-7.857148229049987442
0.401000000000000245,-7.832134065182377647
0.402000000000000246,-7.804853242550905179
0.403000000000000247,-7.775356079631363215
0.404000000000000248,-7.743692907465989705
0.405000000000000249,-7.709914044477971018
0.406000000000000250,-7.674069771609131507
0.407000000000000250,-7.636210307811927223
0.408000000000000251,-7.596385785924470113
0.409000000000000252,-7.554646228955436804
0.410000000000000253,-7.511041526803467150
0.411000000000000254,-7.465621413433832565
0.412000000000000255,-7.418435444533082901
0.413000000000000256,-7.369532975660781915
0.414000000000000257,-7.318963140915217380
0.415000000000000258,-7.266774832128858108
0.416000000000000258,-7.213016678607030663
0.417000000000000259,-7.157737027422212073
0.418000000000000260,-7.100983924274487435
0.419000000000000261,-7.042805094927416576
0.420000000000000262,-6.983247927227070662
0.421000000000000263,-6.922359453710726029
0.422000000000000264,-6.860186334810366660
0.423000000000000265,-6.796774842654864202
0.424000000000000266,-6.732170845473875787
0.425000000000000266,-6.666419792604784789
0.426000000000000267,-6.599566700103677519
0.427000000000000268,-6.531656136959753667
0.428000000000000269,-6.462732211911943914
0.429000000000000270,-6.392838560865749642
0.430000000000000271,-6.322018334906887027
0.431000000000000272,-6.250314188908395074
0.432000000000000273,-6.177768270726310185
0.433000000000000274,-6.104422210978958319
0.434000000000000274,-6.030317113403746099
0.435000000000000275,-5.955493545785176757
0.436000000000000276,-5.879991531447035236
0.437000000000000277,-5.803850541301032173
0.438000000000000278,-5.727109486444097897
0.439000000000000279,-5.649806711295768835
0.440000000000000280,-5.571979987266738377
0.441000000000000281,-5.493666506949439921
0.442000000000000282,-5.414902878821078680
0.443000000000000282,-5.335725122449133551
0.444000000000000283,-5.256168664189355688
0.445000000000000284,-5.176268333365770857
0.446000000000000285,-5.096058358922006981
0.447000000000000286,-5.015572366533500137
0.448000000000000287,-4.934843376169165019
0.449000000000000288,-4.853903800091949883
0.450000000000000289,-4.772785441286652386
0.451000000000000290,-4.691519492304047745
0.452000000000000290,-4.610136534509885919
0.453000000000000291,-4.528666537727273678
0.454000000000000292,-4.447138860261238946
0.455000000000000293,-4.365582249293836092
0.456000000000000294,-4.284024841638566450
0.457000000000000295,-4.202494164842653923
0.458000000000000296,-4.121017138625752807
0.459000000000000297,-4.039620076643976709
0.460000000000000298,-3.958328688567795073
0.461000000000000298,-3.877168082462899346
0.462000000000000299,-3.796162767462774923
0.463000000000000300,-3.715336656722100006
0.464000000000000301,-3.634713070640168464
0.465000000000000302,-3.554314740343642143
0.466000000000000303,-3.474163811417840808
0.467000000000000304,-3.394281847876416514
0.468000000000000305,-3.314689836358881703
0.469000000000000306,-3.235408190545890683
0.470000000000000306,-3.156456755782438783
0.471000000000000307,-3.077854813898827757
0.472000000000000308,-2.999621088220097764
0.473000000000000309,-2.921773748754137756
0.474000000000000310,-2.844330417549431278
0.475000000000000311,-2.767308174212955940
0.476000000000000312,-2.690723561579823730
0.477000000000000313,-2.614592591525300769
0.478000000000000314,-2.538930750911071232
0.479000000000000314,-2.463753007657240701
0.480000000000000315,-2.389073816931788663
0.481000000000000316,-2.314907127449681745
0.482000000000000317,-2.241266387873636301
0.483000000000000318,-2.168164553309108733
0.484000000000000319,-2.095614091885953378
0.485000000000000320,-2.023626991419683829
0.486000000000000321,-1.952214766145183189
0.487000000000000322,-1.881388463516151077
0.488000000000000322,-1.811158671063475722
0.489000000000000323,-1.741535523306402045
0.490000000000000324,-1.672528708709893008
0.491000000000000325,-1.604147476682388884
0.492000000000000326,-1.536400644607888388
0.493000000000000327,-1.469296604906857429
0.494000000000000328,-1.402843332120301989
0.495000000000000329,-1.337048390011767118
0.496000000000000330,-1.271918938682055966
0.497000000000000330,-1.207461741691817192
0.498000000000000331,-1.143683173186967217
0.499000000000000332,-1.080589225022686728
0.500000000000000333,-1.018185513881208148
0.501000000000000334,-0.956477288379224966
0.502000000000000335,-0.895469436160881371
0.503000000000000336,-0.835166490972295450
0.504000000000000337,-0.775572639713786538
0.505000000000000338,-0.716691729466261029
0.506000000000000338,-0.658527274488183378
0.507000000000000339,-0.601082463179786641
0.508000000000000340,-0.544360165011334218
0.509000000000000341,-0.488362937412474163
0.510000000000000342,-0.433093032619555174
0.511000000000000343,-0.378552404478353199
0.512000000000000344,-0.324742715199371812
0.513000000000000345,-0.271665342063348358
0.514000000000000346,-0.219321384074505937
0.515000000000000346,-0.167711668559278021
0.516000000000000347,-0.116836757708369501
0.517000000000000348,-0.066696955060238233
0.518000000000000349,-0.017292311923845682
0.519000000000000350,0.031377366260818371
0.520000000000000351,0.079312513626410536
0.521000000000000352,0.126513797647442583
0.522000000000000353,0.172982112976667685
0.523000000000000353,0.218718575350010352
0.524000000000000354,0.263724515561166994
0.525000000000000355,0.308001473507290346
0.526000000000000356,0.351551192306681748
0.527000000000000357,0.394375612489495153
0.528000000000000358,0.436476866262609231
0.529000000000000359,0.477857271849070397
0.530000000000000360,0.518519327903349536
0.531000000000000361,0.558465708002688244
0.532000000000000361,0.597699255215424441
0.533000000000000362,0.636222976746594338
0.534000000000000363,0.674040038661478769
0.535000000000000364,0.711153760687327496
0.536000000000000365,0.747567611093672091
0.537000000000000366,0.783285201651433227
0.538000000000000367,0.818310282671136258
0.539000000000000368,0.852646738120162340
0.540000000000000369,0.886298580819413706
0.541000000000000369,0.919269947719124958
0.542000000000000370,0.951565095254050419
0.543000000000000371,0.983188394777809949
0.544000000000000372,1.014144328076321377
0.545000000000000373,1.044437482960146157
0.546000000000000374,1.074072548935594229
0.547000000000000375,1.103054312954264260
0.548000000000000376,1.131387655240758461
0.549000000000000377,1.159077545198263559
0.550000000000000377,1.186129037391637109
0.551000000000000378,1.212547267607558377
0.552000000000000379,1.238337448991357004
0.553000000000000380,1.263504868260023617
0.554000000000000381,1.288054881990970291
0.555000000000000382,1.311992912985892268
0.556000000000000383,1.335324446709375668
0.557000000000000384,1.358055027801446268
0.558000000000000385,1.380190256663701209
0.559000000000000385,1.401735786118200267
0.560000000000000386,1.422697318138593792
0.561000000000000387,1.443080600652792311
0.562000000000000388,1.462891424416500552
0.563000000000000389,1.482135619956901129
0.564000000000000390,1.500819054585792234
0.565000000000000391,1.518947629481442796
0.566000000000000392,1.536527276838454137
0.567000000000000393,1.553563957084765246
0.568000000000000393,1.570063656165185062
0.569000000000000394,1.586032382890552261
0.570000000000000395,1.601476166351776254
0.571000000000000396,1.616401053397978460
0.572000000000000397,1.630813106177847471
0.573000000000000398,1.644718399743544834
0.574000000000000399,1.658123019716123192
0.575000000000000400,1.671033060011861027
0.576000000000000401,1.683454620628515030
0.577000000000000401,1.695393805490680972
0.578000000000000402,1.706856720353500778
0.579000000000000403,1.717849470763822994
0.580000000000000404,1.728378160077895132
0.581000000000000405,1.738448887534898235
0.582000000000000406,1.748067746385334686
0.583000000000000407,1.757240822073485642
0.584000000000000408,1.765974190473105221
0.585000000000000409,1.774273916175430177
0.586000000000000409,1.782146050828749440
0.587000000000000410,1.789596631528598936
0.588000000000000411,1.796631679257834069
0.589000000000000412,1.803257197375623067
0.590000000000000413,1.809479170154646654
0.591000000000000414,1.815303561365583906
0.592000000000000415,1.820736312908067145
0.593000000000000416,1.825783343487325627
0.594000000000000417,1.830450547335657374
0.595000000000000417,1.834743792977861165
0.596000000000000418,1.838668922039983444
0.597000000000000419,1.842231748100352728
0.598000000000000420,1.845438055582296899
0.599000000000000421,1.848293598687612560
0.600000000000000422,1.850804100370076366
0.601000000000000423,1.852975251348186081
0.602000000000000424,1.854812709156359984
0.603000000000000425,1.856322097233817470
0.604000000000000425,1.857509004050406087
0.605000000000000426,1.858378982268619195
0.606000000000000427,1.858937547940957558
0.607000000000000428,1.859190179742159943
0.608000000000000429,1.859142318235145641
0.609000000000000430,1.858799365170466844
0.610000000000000431,1.858166682818054749
0.611000000000000432,1.857249593330908555
0.612000000000000433,1.856053378139896681
0.613000000000000433,1.854583277378920814
0.614000000000000434,1.852844489339874112
