# CNT15-NH3+-2_SERSCA-JS
# h[nm],U(h)[kJ/mol]
0.200000000000000011,65.288991176870226241
0.201000000000000012,62.539717883753972671
0.202000000000000013,60.988720677883620169
0.203000000000000014,59.978003607646847684
0.204000000000000015,59.137761196509813999
0.205000000000000016,58.280948630619931805
0.206000000000000016,57.331431066264698870
0.207000000000000017,56.276103853357653861
0.208000000000000018,55.133905958933951297
0.209000000000000019,53.936554254215948845
0.210000000000000020,52.717253604829998892
0.211000000000000021,51.504700583273780978
0.212000000000000022,50.320484847381493410
0.213000000000000023,49.178569325428526327
0.214000000000000024,48.085950135869119038
0.215000000000000024,47.043899282445600818
0.216000000000000025,46.049407810240445826
0.217000000000000026,45.096597213345241073
0.218000000000000027,44.177969774419963755
0.219000000000000028,43.285437212978081334
0.220000000000000029,42.411111253951148115
0.221000000000000030,41.547866723381282839
0.222000000000000031,40.689702852029803637
0.223000000000000032,39.831935499617301844
0.224000000000000032,38.971254800573191801
0.225000000000000033,38.105681267461555706
0.226000000000000034,37.234450062962565653
0.227000000000000035,36.357848917634797203
0.228000000000000036,35.477030660566619247
0.229000000000000037,34.593816945053646350
0.230000000000000038,33.710505730132808822
0.231000000000000039,32.829691546400312063
0.232000000000000040,31.954104579579393430
0.233000000000000040,31.086472146216710399
0.234000000000000041,30.229404180068645047
0.235000000000000042,29.385302845014376061
0.236000000000000043,28.556295282248139955
0.237000000000000044,27.744187725578633774
0.238000000000000045,26.950438720413433913
0.239000000000000046,26.176148905378692433
0.240000000000000047,25.422064712209905935
0.241000000000000048,24.688593367535190737
0.242000000000000048,23.975826703759430814
0.243000000000000049,23.283571475766812853
0.244000000000000050,22.611384111445381961
0.245000000000000051,21.958608077866976771
0.246000000000000052,21.324412306413233154
0.247000000000000053,20.707829377958749006
0.248000000000000054,20.107792415230949956
0.249000000000000055,19.523169858019176814
0.250000000000000056,18.952797504408273710
0.251000000000000056,18.395507385699502834
0.252000000000000057,17.850153203447213457
0.253000000000000058,17.315632194333304028
0.254000000000000059,16.790903403365145863
0.255000000000000060,16.275002439548519106
0.256000000000000061,15.767052862498365684
0.257000000000000062,15.266274405334295139
0.258000000000000063,14.771988280663634896
0.259000000000000064,14.283619844480602623
0.260000000000000064,13.800698909337203446
0.261000000000000065,13.322858004998774817
0.262000000000000066,12.849828883677242075
0.263000000000000067,12.381437559385220837
0.264000000000000068,11.917598158358238436
0.265000000000000069,11.458305841077820020
0.266000000000000070,11.003629037266003721
0.267000000000000071,10.553701214230283512
0.268000000000000071,10.108712376899699592
0.269000000000000072,9.668900475456332799
0.270000000000000073,9.234542874166553617
0.271000000000000074,8.805948013280248787
0.272000000000000075,8.383447375027857973
0.273000000000000076,7.967387845057670503
0.274000000000000077,7.558124542300369342
0.275000000000000078,7.156014173346157747
0.276000000000000079,6.761408952042219589
0.277000000000000079,6.374651111191448116
0.278000000000000080,5.996068020953377875
0.279000000000000081,5.625967917776788063
0.280000000000000082,5.264636238377784494
0.281000000000000083,4.912332545341977941
0.282000000000000084,4.569288024291348727
0.283000000000000085,4.235703527122161915
0.284000000000000086,3.911748131491421532
0.285000000000000087,3.597558183407261190
0.286000000000000087,3.293236787361688123
0.287000000000000088,2.998853706834949229
0.288000000000000089,2.714445637104136555
0.289000000000000090,2.440016812012967051
0.290000000000000091,2.175539906620303832
0.291000000000000092,1.920957198359552365
0.292000000000000093,1.676181950437277690
0.293000000000000094,1.441099982606983243
0.294000000000000095,1.215571396111918556
0.295000000000000095,0.999432421441560748
0.296000000000000096,0.792497359541123658
0.297000000000000097,0.594560589205828771
0.298000000000000098,0.405398615543695051
0.299000000000000099,0.224772136566972230
0.300000000000000100,0.052428107144510384
0.301000000000000101,-0.111898218310746450
0.302000000000000102,-0.268481280953271395
0.303000000000000103,-0.417603264927021489
0.304000000000000103,-0.559552209668150669
0.305000000000000104,-0.694620197811320672
0.306000000000000105,-0.823101627676410930
0.307000000000000106,-0.945291577673994299
0.308000000000000107,-1.061484268441248657
0.309000000000000108,-1.171971627106378033
0.310000000000000109,-1.277041956780677667
0.311000000000000110,-1.376978713190807557
0.312000000000000111,-1.472059389289620990
0.313000000000000111,-1.562554507716849672
0.314000000000000112,-1.648726720119509936
0.315000000000000113,-1.730830011580245964
0.316000000000000114,-1.809109007736163566
0.317000000000000115,-1.883798381595289895
0.318000000000000116,-1.955122356567725372
0.319000000000000117,-2.023294301818003404
0.320000000000000118,-2.088516415708740137
0.321000000000000119,-2.150979492837728380
0.322000000000000119,-2.210862769965586505
0.323000000000000120,-2.268333845983485642
0.324000000000000121,-2.323548670975435826
0.325000000000000122,-2.376651599381427005
0.326000000000000123,-2.427775502261877882
0.327000000000000124,-2.477041933695655285
0.328000000000000125,-2.524561346409135432
0.329000000000000126,-2.570433351827388968
0.330000000000000127,-2.614747019858051580
0.331000000000000127,-2.657581213858777325
0.332000000000000128,-2.699004956397848876
0.333000000000000129,-2.739077821591049400
0.334000000000000130,-2.777850349983359113
0.335000000000000131,-2.815364482139128377
0.336000000000000132,-2.851654007305989502
0.337000000000000133,-2.886745023724690551
0.338000000000000134,-2.920656407366426510
0.339000000000000135,-2.953400286089657545
0.340000000000000135,-2.984982516418707821
0.341000000000000136,-3.015403160354293455
0.342000000000000137,-3.044656959831391951
0.343000000000000138,-3.072733806640552068
0.344000000000000139,-3.099619205824739154
0.345000000000000140,-3.125294730753697348
0.346000000000000141,-3.149738468261390700
0.347000000000000142,-3.172925452408565938
0.348000000000000143,-3.194828085601766343
0.349000000000000143,-3.215416545961374162
0.350000000000000144,-3.234659179984881838
0.351000000000000145,-3.252522879696838398
0.352000000000000146,-3.268973443614159979
0.353000000000000147,-3.283975920984411268
0.354000000000000148,-3.297494938875468851
0.355000000000000149,-3.309495011807625620
0.356000000000000150,-3.319940833723973306
0.357000000000000151,-3.328797552191738340
0.358000000000000151,-3.336031024816629831
0.359000000000000152,-3.341608057934070786
0.360000000000000153,-3.345496627716110005
0.361000000000000154,-3.347666083900485923
0.362000000000000155,-3.348087336409796055
0.363000000000000156,-3.346733025183526333
0.364000000000000157,-3.343577673594617217
0.365000000000000158,-3.338597825865579072
0.366000000000000159,-3.331772168936687706
0.367000000000000159,-3.323081639271573184
0.368000000000000160,-3.312509515113261305
0.369000000000000161,-3.300041494726936087
0.370000000000000162,-3.285665761184719535
0.371000000000000163,-3.269373034262859079
0.372000000000000164,-3.251156610032974292
0.373000000000000165,-3.231012388737089847
0.374000000000000166,-3.208938891540945804
0.375000000000000167,-3.184937266761949548
0.376000000000000167,-3.159011286167524357
0.377000000000000168,-3.131167331936397957
0.378000000000000169,-3.101414374869987167
0.379000000000000170,-3.069763944433939962
0.380000000000000171,-3.036230091200527781
0.381000000000000172,-3.000829342252198995
0.382000000000000173,-2.963580650094293389
0.383000000000000174,-2.924505335611856882
0.384000000000000175,-2.883627025590943305
0.385000000000000175,-2.840971585309613801
0.386000000000000176,-2.796567046687799429
0.387000000000000177,-2.750443532468374919
0.388000000000000178,-2.702633176884807309
0.389000000000000179,-2.653170043252793153
0.390000000000000180,-2.602090038905707559
0.391000000000000181,-2.549430827875256877
0.392000000000000182,-2.495231741700755457
0.393000000000000183,-2.439533688731856387
0.394000000000000183,-2.382379062271620107
0.395000000000000184,-2.323811647888472720
0.396000000000000185,-2.263876530207655779
0.397000000000000186,-2.202619999475148305
0.398000000000000187,-2.140089458169403436
0.399000000000000188,-2.076333327919157590
0.400000000000000189,-2.011400956968857567
0.401000000000000190,-1.945342528416550865
0.402000000000000191,-1.878208969433510900
0.403000000000000191,-1.810051861658865446
0.404000000000000192,-1.740923352947727931
0.405000000000000193,-1.670876070636535982
0.406000000000000194,-1.599963036475233968
0.407000000000000195,-1.528237583362412000
0.408000000000000196,-1.455753274006168940
0.409000000000000197,-1.382563821621135336
0.410000000000000198,-1.308723012759947624
0.411000000000000199,-1.234284632365798107
0.412000000000000199,-1.159302391121825426
0.413000000000000200,-1.083829855162564471
0.414000000000000201,-1.007920378202646461
0.415000000000000202,-0.931627036128416242
0.416000000000000203,-0.855002564089358819
0.417000000000000204,-0.778099296117380601
0.418000000000000205,-0.700969107294355687
0.419000000000000206,-0.623663358480581076
0.420000000000000207,-0.546232843609643970
0.421000000000000207,-0.468727739548899958
0.422000000000000208,-0.391197558518073529
0.423000000000000209,-0.313691103053216236
0.424000000000000210,-0.236256423497499979
0.425000000000000211,-0.158940777995538240
0.426000000000000212,-0.081790594963331922
0.427000000000000213,-0.004851438001585551
0.428000000000000214,0.071832026783535730
0.429000000000000214,0.148216061091895029
0.430000000000000215,0.224257882415888427
0.431000000000000216,0.299915689747542402
0.432000000000000217,0.375148687054692842
0.433000000000000218,0.449917104576696036
0.434000000000000219,0.524182217992424926
0.435000000000000220,0.597906365514958793
0.436000000000000221,0.671052962969012179
0.437000000000000222,0.743586516908438466
0.438000000000000222,0.815472635832190207
0.439000000000000223,0.886678039558112863
0.440000000000000224,0.957170566814567136
0.441000000000000225,1.026919181110516721
0.442000000000000226,1.095893974944807114
0.443000000000000227,1.164066172415913147
0.444000000000000228,1.231408130293155656
0.445000000000000229,1.297893337610458220
0.446000000000000230,1.363496413843426014
0.447000000000000230,1.428193105730165779
0.448000000000000231,1.491960282795842474
0.449000000000000232,1.554775931640382858
0.450000000000000233,1.616619149048012405
0.451000000000000234,1.677470133976685984
0.452000000000000235,1.737310178484504419
0.453000000000000236,1.796121657649456749
0.454000000000000237,1.853888018537675819
0.455000000000000238,1.910593768274582160
0.456000000000000238,1.966224461272001678
0.457000000000000239,2.020766685663440754
0.458000000000000240,2.074208048998252174
0.459000000000000241,2.126537163244601292
0.460000000000000242,2.177743629149474280
0.461000000000000243,2.227818020003146771
0.462000000000000244,2.276751864853845397
0.463000000000000245,2.324537631217443945
0.464000000000000246,2.371168707325349345
0.465000000000000246,2.416639383952661646
0.466000000000000247,2.460944835867306946
0.467000000000000248,2.504081102939490933
0.468000000000000249,2.546045070949456424
0.469000000000000250,2.586834452130346129
0.470000000000000251,2.626447765481461527
0.471000000000000252,2.664884316886106053
0.472000000000000253,2.702144179066692686
0.473000000000000254,2.738228171408677358
0.474000000000000254,2.773137839683536221
0.475000000000000255,2.806875435699703214
0.476000000000000256,2.839443896909290110
0.477000000000000257,2.870846825996957286
0.478000000000000258,2.901088470476389514
0.479000000000000259,2.930173702318395357
0.480000000000000260,2.958107997633629971
0.481000000000000261,2.984897416431825601
0.482000000000000262,3.010548582478155488
0.483000000000000262,3.035068663266474065
0.484000000000000263,3.058465350127935078
0.485000000000000264,3.080746838492600226
0.486000000000000265,3.101921808320508678
0.487000000000000266,3.121999404717811899
0.488000000000000267,3.140989218752580747
0.489000000000000268,3.158901268483884195
0.490000000000000269,3.175745980217032027
0.491000000000000270,3.191534169996741888
0.492000000000000270,3.206277025349410170
0.493000000000000271,3.219986087284604004
0.494000000000000272,3.232673232565290711
0.495000000000000273,3.244350656255443166
0.496000000000000274,3.255030854552918296
0.497000000000000275,3.264726607914896217
0.498000000000000276,3.273450964482316206
0.499000000000000277,3.281217223809243855
0.500000000000000222,3.288038920902350615
0.501000000000000334,3.293929810575139783
0.502000000000000224,3.298903852120903313
0.503000000000000336,3.302975194307922635
0.504000000000000226,3.306158160699773418
0.505000000000000338,3.308467235303186982
0.506000000000000227,3.309917048545289564
0.507000000000000339,3.310522363581756000
0.508000000000000229,3.310298062936767760
0.509000000000000341,3.309259135475366431
0.510000000000000231,3.307420663708311004
0.511000000000000343,3.304797811429223575
0.512000000000000233,3.301405811683390645
0.513000000000000345,3.297259955067230575
0.514000000000000234,3.292375578357118915
0.515000000000000346,3.286768053466010198
0.516000000000000236,3.280452776725885311
0.517000000000000348,3.273445158493824003
0.518000000000000238,3.265760613079334185
0.519000000000000350,3.257414548990102077
0.520000000000000240,3.248422359493373879
0.521000000000000352,3.238799413489678702
0.522000000000000242,3.228561046695683778
0.523000000000000353,3.217722553132498664
0.524000000000000243,3.206299176915841542
0.525000000000000355,3.194306104344113439
0.526000000000000245,3.181758456280395109
0.527000000000000357,3.168671280824175263
0.528000000000000247,3.155059546268574433
0.529000000000000359,3.140938134338616017
0.530000000000000249,3.126321833706087183
0.531000000000000361,3.111225333776345359
0.532000000000000250,3.095663218742465528
0.533000000000000362,3.079649961901887334
0.534000000000000252,3.063199920230874174
0.535000000000000364,3.046327329211738988
0.536000000000000254,3.029046297908137397
0.537000000000000366,3.011370804283250990
0.538000000000000256,2.993314690756071705
0.539000000000000368,2.974891659990611004
0.540000000000000258,2.956115270913148851
0.541000000000000369,2.936998934952331552
0.542000000000000259,2.917555912497245885
0.543000000000000371,2.897799309568252824
0.544000000000000261,2.877742074695674113
0.545000000000000373,2.857396996001221989
0.546000000000000263,2.836776698477245340
0.547000000000000375,2.815893641458669716
0.548000000000000265,2.794760116282864360
0.549000000000000377,2.773388244132278135
0.550000000000000266,2.751789974055174337
0.551000000000000378,2.729977081159388419
0.552000000000000268,2.707961164974484802
0.553000000000000380,2.685753647977365155
0.554000000000000270,2.663365774276756248
0.555000000000000382,2.640808608451749251
0.556000000000000272,2.618093034539914044
0.557000000000000384,2.595229755170286978
0.558000000000000274,2.572229290836815174
0.559000000000000385,2.549101979307738741
0.560000000000000275,2.525857975166583724
0.561000000000000387,2.502507249480336871
0.562000000000000277,2.479059589590688173
0.563000000000000389,2.455524599023958476
0.564000000000000279,2.431911697515753090
0.565000000000000391,2.408230121146126113
0.566000000000000281,2.384488922581415427
0.567000000000000393,2.360696971418651202
0.568000000000000282,2.336862954628849298
0.569000000000000394,2.312995377095244720
0.570000000000000284,2.289102562242948835
0.571000000000000396,2.265192652756145897
0.572000000000000286,2.241273611379502206
0.573000000000000398,2.217353221800103746
0.574000000000000288,2.193439089606656012
0.575000000000000400,2.169538643322415084
0.576000000000000290,2.145659135508805271
0.577000000000000401,2.121807643936258536
0.578000000000000291,2.097991072819368696
0.579000000000000403,2.074216154113150079
0.580000000000000293,2.050489448867520714
0.581000000000000405,2.026817348636934302
0.582000000000000295,2.003206076942561698
0.583000000000000407,1.979661690783946382
0.584000000000000297,1.956190082197720503
0.585000000000000409,1.932796979860466946
0.586000000000000298,1.909487950733436579
0.587000000000000410,1.886268401746324930
0.588000000000000300,1.863143581517970659
0.589000000000000412,1.840118582111330170
0.590000000000000302,1.817198340820672886
0.591000000000000414,1.794387641988528070
0.592000000000000304,1.771691118850436952
0.593000000000000416,1.749113255405187362
0.594000000000000306,1.726658388308653924
0.595000000000000417,1.704330708789108417
0.596000000000000307,1.682134264582238359
0.597000000000000419,1.660072961883823028
0.598000000000000309,1.638150567318390483
0.599000000000000421,1.616370709922066995
0.600000000000000311,1.594736883137906513
0.601000000000000423,1.573252446822032580
0.602000000000000313,1.551920629259130990
0.603000000000000425,1.530744529185564140
0.604000000000000314,1.509727117818845832
0.605000000000000426,1.488871240891834757
0.606000000000000316,1.468179620690469367
0.607000000000000428,1.447654858093543329
0.608000000000000318,1.427299434613378493
0.609000000000000430,1.407115714436041554
0.610000000000000320,1.387105946460058581
0.611000000000000432,1.367272266332311359
0.612000000000000322,1.347616698480228248
0.613000000000000433,1.328141158139010347
0.614000000000000323,1.308847453373044090
0.615000000000000435,1.289737287090418238
0.616000000000000325,1.270812259049733495
0.617000000000000437,1.252073867858172651
0.618000000000000327,1.233523512960130741
0.619000000000000439,1.215162496615477483
0.620000000000000329,1.196992025866753018
0.621000000000000441,1.179013214494508910
0.622000000000000330,1.161227084960139599
0.623000000000000442,1.143634570335454237
0.624000000000000332,1.126236516218489747
0.625000000000000444,1.109033682634775975
0.626000000000000334,1.092026745923679210
0.627000000000000446,1.075216300609101561
0.628000000000000336,1.058602861254168692
0.629000000000000448,1.042186864299307958
0.630000000000000338,1.025968669883381201
0.631000000000000449,1.009948563647288022
0.632000000000000339,0.994126758519820242
0.633000000000000451,0.978503396485221999
0.634000000000000341,0.963078550332255312
0.635000000000000453,0.947852225384276936
0.636000000000000343,0.932824361210237263
0.637000000000000455,0.917994833316073455
0.638000000000000345,0.903363454816484945
0.639000000000000457,0.888929978086636430
0.640000000000000346,0.874694096393755949
0.641000000000000458,0.860655445508266892
0.642000000000000348,0.846813605294438942
0.643000000000000460,0.833168101280237550
0.644000000000000350,0.819718406206389139
0.645000000000000462,0.806463941554384056
0.646000000000000352,0.793404079053474431
0.647000000000000464,0.780538142166398052
0.648000000000000353,0.767865407553943280
0.649000000000000465,0.755385106518106975
0.650000000000000355,0.743096426423980994
0.651000000000000467,0.730998512100179410
0.652000000000000357,0.719090467217904705
0.653000000000000469,0.707371355648577227
0.654000000000000359,0.695840202800079410
0.655000000000000471,0.684495996931599682
0.656000000000000361,0.673337690447155190
0.657000000000000473,0.662364201167761624
0.658000000000000362,0.651574413582392764
0.659000000000000474,0.640967180077716470
0.660000000000000364,0.630541322146740302
0.661000000000000476,0.620295631576373796
0.662000000000000366,0.610228871614104440
0.663000000000000478,0.600339778113770595
0.664000000000000368,0.590627060660645631
0.665000000000000480,0.581089403675844607
0.666000000000000369,0.571725467500280304
0.667000000000000481,0.562533889458203262
0.668000000000000371,0.553513284900545077
0.669000000000000483,0.544662248228123702
