# CNT15-NH3+-2_ASPPSCA-JS
# h[nm],U(h)[kJ/mol]
0.149999999999999994,113.026610834212036139
0.150999999999999995,110.193238437726606094
0.151999999999999996,108.781222076021208522
0.152999999999999997,107.655109248787510978
0.153999999999999998,106.404885050546496927
0.154999999999999999,104.958929023295496563
0.156000000000000000,103.376082003384766494
0.157000000000000001,101.742761320388169111
0.158000000000000002,100.129076063954485676
0.159000000000000002,98.576033204875244564
0.160000000000000003,97.097481998603328179
0.161000000000000004,95.687659870667886253
0.162000000000000005,94.329592926798000008
0.163000000000000006,93.002183472279980947
0.164000000000000007,91.685258665509493881
0.165000000000000008,90.362599633462934889
0.166000000000000009,89.023303553493533968
0.167000000000000010,87.661932483814766215
0.168000000000000010,86.277883389273327452
0.169000000000000011,84.874340380202085043
0.170000000000000012,83.457080583127023488
0.171000000000000013,82.033319356890245899
0.172000000000000014,80.610708002854153165
0.173000000000000015,79.196540665021458949
0.174000000000000016,77.797186342898299927
0.175000000000000017,76.417734775612828457
0.176000000000000018,75.061828734629813198
0.177000000000000018,73.731647307868030339
0.178000000000000019,72.428002678168681427
0.179000000000000020,71.150514707980420326
0.180000000000000021,69.897831781374435423
0.181000000000000022,68.667871661082898527
0.182000000000000023,67.458061768203805286
0.183000000000000024,66.265563736781103898
0.184000000000000025,65.087471999491583574
0.185000000000000026,63.920980347922316867
0.186000000000000026,62.763513818280344481
0.187000000000000027,61.612825894052036801
0.188000000000000028,60.467062952224388539
0.189000000000000029,59.324799197001325979
0.190000000000000030,58.185046123766525739
0.191000000000000031,57.047240936665808420
0.192000000000000032,55.911218400196467826
0.193000000000000033,54.777170423482047568
0.194000000000000034,53.645597328701363438
0.195000000000000034,52.517254303407085558
0.196000000000000035,51.393096029317419493
0.197000000000000036,50.274221955769213821
0.198000000000000037,49.161824172877864214
0.199000000000000038,48.057139357781139211
0.200000000000000039,46.961405830491457891
0.201000000000000040,45.875826371628171785
0.202000000000000041,44.801537126087815466
0.203000000000000042,43.739582644678009160
0.204000000000000042,42.690896897639490248
0.205000000000000043,41.656289925919701034
0.206000000000000044,40.636439673106963255
0.207000000000000045,39.631888457606500253
0.208000000000000046,38.643043495262304532
0.209000000000000047,37.670180861618057122
0.210000000000000048,36.713452285060760971
0.211000000000000049,35.772894182312711564
0.212000000000000050,34.848438381722118606
0.213000000000000050,33.939924023686685928
0.214000000000000051,33.047110177980925982
0.215000000000000052,32.169688771944024097
0.216000000000000053,31.307297479097787374
0.217000000000000054,30.459532272941629572
0.218000000000000055,29.625959403961608984
0.219000000000000056,28.806126608200894879
0.220000000000000057,27.999573402287001755
0.221000000000000058,27.205840362093091755
0.222000000000000058,26.424477319923074248
0.223000000000000059,25.655050448158068122
0.224000000000000060,24.897148225710349578
0.225000000000000061,24.150386307556537702
0.226000000000000062,23.414411337293994819
0.227000000000000063,22.688903758379932896
0.228000000000000064,21.973579691804605574
0.229000000000000065,21.268191956774355589
0.230000000000000066,20.572530316906401993
0.231000000000000066,19.886421037826369940
0.232000000000000067,19.209725843268877554
0.233000000000000068,18.542340356146784330
0.234000000000000069,17.884192108893429918
0.235000000000000070,17.235238203985737471
0.236000000000000071,16.595462701190839994
0.237000000000000072,15.964873802981770723
0.238000000000000073,15.343500903952470793
0.239000000000000073,14.731391564113176074
0.240000000000000074,14.128608459821077048
0.241000000000000075,13.535226359938832275
0.242000000000000076,12.951329168723535901
0.243000000000000077,12.377007071026216778
0.244000000000000078,11.812353809701592766
0.245000000000000079,11.257464119745449693
0.246000000000000080,10.712431338638779721
0.247000000000000081,10.177345207709105779
0.248000000000000081,9.652289875044420597
0.249000000000000082,9.137342106619323445
0.250000000000000111,8.632569708818618182
0.251000000000000112,8.138030162466568740
0.252000000000000113,7.653769465776642633
0.253000000000000114,7.179821181315642953
0.254000000000000115,6.716205680104243569
0.255000000000000115,6.262929574336490113
0.256000000000000116,5.819985328867813834
0.257000000000000117,5.387351040572339045
0.258000000000000118,4.964990373881351893
0.259000000000000119,4.552852640259994033
0.260000000000000120,4.150873009035644046
0.261000000000000121,3.758972836835593689
0.262000000000000122,3.377060102899531735
0.263000000000000123,3.005029937684420727
0.264000000000000123,2.642765232453248014
0.265000000000000124,2.290137317917536386
0.266000000000000125,1.947006700467456053
0.267000000000000126,1.613223845057569106
0.268000000000000127,1.288629994404707713
0.269000000000000128,0.973058014785388226
0.270000000000000129,0.666333259379685350
0.271000000000000130,0.368274440786540591
0.272000000000000131,0.078694505023290409
0.273000000000000131,-0.202598499990269409
0.274000000000000132,-0.475800567781220540
0.275000000000000133,-0.741110894155875832
0.276000000000000134,-0.998731060514220226
0.277000000000000135,-1.248864244016842040
0.278000000000000136,-1.491714458373197605
0.279000000000000137,-1.727485828446055693
0.280000000000000138,-1.956381901324240946
0.281000000000000139,-2.178604996005846228
0.282000000000000139,-2.394355593356888079
0.283000000000000140,-2.603831767567725386
0.284000000000000141,-2.807228659920611769
0.285000000000000142,-3.004737995307055431
0.286000000000000143,-3.196547641592158318
0.287000000000000144,-3.382841211614108889
0.288000000000000145,-3.563797707330385034
0.289000000000000146,-3.739591205374800609
0.290000000000000147,-3.910390583072961057
0.291000000000000147,-4.076359283773413722
0.292000000000000148,-4.237655120189157465
0.293000000000000149,-4.394430114305255763
0.294000000000000150,-4.546830372293501732
0.295000000000000151,-4.694995992781498373
0.296000000000000152,-4.839061006750116078
0.297000000000000153,-4.979153347278520769
0.298000000000000154,-5.115394847318146532
0.299000000000000155,-5.247901263654663140
0.300000000000000155,-5.376782325208828262
0.301000000000000156,-5.502141803831433364
0.302000000000000157,-5.624077605763626586
0.303000000000000158,-5.742681881959510903
0.304000000000000159,-5.858041155502945685
0.305000000000000160,-5.970236464392795206
0.306000000000000161,-6.079343518020261961
0.307000000000000162,-6.185432865716775197
0.308000000000000163,-6.288570075810521409
0.309000000000000163,-6.388815923693270449
0.310000000000000164,-6.486226587465989901
0.311000000000000165,-6.580853849800448074
0.312000000000000166,-6.672745304725124171
0.313000000000000167,-6.761944568115393572
0.314000000000000168,-6.848491490740379106
0.315000000000000169,-6.932422372791444687
0.316000000000000170,-7.013770178889470408
0.317000000000000171,-7.092564752639165526
0.318000000000000171,-7.168833029869103868
0.319000000000000172,-7.242599249765104830
0.320000000000000173,-7.313885163171365278
0.321000000000000174,-7.382710237399368047
0.322000000000000175,-7.449091856947613444
0.323000000000000176,-7.513045519596090571
0.324000000000000177,-7.574585027398174297
0.325000000000000178,-7.633722672148360644
0.326000000000000179,-7.690469414958355898
0.327000000000000179,-7.744835059624395335
0.328000000000000180,-7.796828419517413344
0.329000000000000181,-7.846457477773336464
0.330000000000000182,-7.893729540603534822
0.331000000000000183,-7.938651383586426746
0.332000000000000184,-7.981229390838562310
0.333000000000000185,-8.021469686999235904
0.334000000000000186,-8.059378261995272297
0.335000000000000187,-8.094961088583081832
0.336000000000000187,-8.128224232693314733
0.337000000000000188,-8.159173956628695379
0.338000000000000189,-8.187816815189725261
0.339000000000000190,-8.214159744824041098
0.340000000000000191,-8.238210145914417026
0.341000000000000192,-8.259975958338259261
0.342000000000000193,-8.279465730446474936
0.343000000000000194,-8.296688681623834327
0.344000000000000195,-8.311654758604415605
0.345000000000000195,-8.324374685726965595
0.346000000000000196,-8.334860009323195484
0.347000000000000197,-8.343123136440146581
0.348000000000000198,-8.349177368103712027
0.349000000000000199,-8.353036927335347528
0.350000000000000200,-8.354716982138057801
0.351000000000000201,-8.354233663670129317
0.352000000000000202,-8.351604079827025018
0.353000000000000203,-8.346846324452609878
0.354000000000000203,-8.339979482400808664
0.355000000000000204,-8.331023630667790059
0.356000000000000205,-8.319999835813471023
0.357000000000000206,-8.306930147888797578
0.358000000000000207,-8.291837591082236614
0.359000000000000208,-8.274746151295961027
0.360000000000000209,-8.255680760858087552
0.361000000000000210,-8.234667280573130910
0.362000000000000210,-8.211732479308356147
0.363000000000000211,-8.186904011308490325
0.364000000000000212,-8.160210391426383936
0.365000000000000213,-8.131680968451330926
0.366000000000000214,-8.101345896711425354
0.367000000000000215,-8.069236106120175833
0.368000000000000216,-8.035383270831953695
0.369000000000000217,-7.999819776664386595
0.370000000000000218,-7.962578687440033498
0.371000000000000218,-7.923693710393099998
0.372000000000000219,-7.883199160781053649
0.373000000000000220,-7.841129925834593450
0.374000000000000221,-7.797521428173276092
0.375000000000000222,-7.752409588807863017
0.376000000000000223,-7.705830789844581474
0.377000000000000224,-7.657821837000192033
0.378000000000000225,-7.608419922030964067
0.379000000000000226,-7.557662585172813863
0.380000000000000226,-7.505587677684182779
0.381000000000000227,-7.452233324577417939
0.382000000000000228,-7.397637887619268326
0.383000000000000229,-7.341839928675540250
0.384000000000000230,-7.284878173469732765
0.385000000000000231,-7.226791475820772526
0.386000000000000232,-7.167618782419573620
0.387000000000000233,-7.107399098199914889
0.388000000000000234,-7.046171452354128562
0.389000000000000234,-6.983974865040091018
0.390000000000000235,-6.920848314821382630
0.391000000000000236,-6.856830706878719539
0.392000000000000237,-6.791960842026564471
0.393000000000000238,-6.726277386565397975
0.394000000000000239,-6.659818842996119592
0.395000000000000240,-6.592623521620039284
0.396000000000000241,-6.524729513044429829
0.397000000000000242,-6.456174661610360133
0.398000000000000242,-6.386996539756994551
0.399000000000000243,-6.317232423333275726
0.400000000000000244,-6.246919267865481018
0.401000000000000245,-6.176093685786691267
0.402000000000000246,-6.104791924631650879
0.403000000000000247,-6.033049846198310640
0.404000000000000248,-5.960902906675435986
0.405000000000000249,-5.888386137733414571
0.406000000000000250,-5.815534128573718320
0.407000000000000250,-5.742381008930766306
0.408000000000000251,-5.668960433018218836
0.409000000000000252,-5.595305564410387511
0.410000000000000253,-5.521449061847960138
0.411000000000000254,-5.447423065956025212
0.412000000000000255,-5.373259186861213621
0.413000000000000256,-5.298988492693707641
0.414000000000000257,-5.224641498958821018
0.415000000000000258,-5.150248158762154915
0.416000000000000258,-5.075837853871291827
0.417000000000000259,-5.001439386596509884
0.418000000000000260,-4.927080972472210441
0.419000000000000261,-4.852790233720236657
0.420000000000000262,-4.778594193475831808
0.421000000000000263,-4.704519270756468252
0.422000000000000264,-4.630591276153528391
0.423000000000000265,-4.556835408226346473
0.424000000000000266,-4.483276250578231092
0.425000000000000266,-4.409937769593421208
0.426000000000000267,-4.336843312814281148
0.427000000000000268,-4.264015607937579055
0.428000000000000269,-4.191476762408908208
0.429000000000000270,-4.119248263594237791
0.430000000000000271,-4.047350979507479352
0.431000000000000272,-3.975805160073360156
0.432000000000000273,-3.904630438904656220
0.433000000000000274,-3.833845835573289840
0.434000000000000274,-3.763469758354700989
0.435000000000000275,-3.693520007425399321
0.436000000000000276,-3.624013778493599069
0.437000000000000277,-3.554967666843153573
0.438000000000000278,-3.486397671771410245
0.439000000000000279,-3.418319201401752938
0.440000000000000280,-3.350747077851931266
0.441000000000000281,-3.283695542739711648
0.442000000000000282,-3.217178263007641981
0.443000000000000282,-3.151208337049036690
0.444000000000000283,-3.085798301117828046
0.445000000000000284,-3.020960136005121033
0.446000000000000285,-2.956705273965702041
0.447000000000000286,-2.893044605878411168
0.448000000000000287,-2.829988488624174181
0.449000000000000288,-2.767546752666488530
0.450000000000000289,-2.705728709819045452
0.451000000000000290,-2.644543161185947788
0.452000000000000290,-2.583998405260222508
0.453000000000000291,-2.524102246166747499
0.454000000000000292,-2.464862002036226851
0.455000000000000293,-2.406284513497105593
0.456000000000000294,-2.348376152272916517
0.457000000000000295,-2.291142829872807152
0.458000000000000296,-2.234590006363446069
0.459000000000000297,-2.178722699211006031
0.460000000000000298,-2.123545492182139505
0.461000000000000298,-2.069062544293491790
0.462000000000000299,-2.015277598799463554
0.463000000000000300,-1.962193992208450144
0.464000000000000301,-1.909814663318187389
0.465000000000000302,-1.858142162261162467
0.466000000000000303,-1.807178659551333721
0.467000000000000304,-1.756925955123971317
0.468000000000000305,-1.707385487360648879
0.469000000000000306,-1.658558342091723814
0.470000000000000306,-1.610445261569213971
0.471000000000000307,-1.563046653402972774
0.472000000000000308,-1.516362599453770610
0.473000000000000309,-1.470392864676885347
0.474000000000000310,-1.425136905910390883
0.475000000000000311,-1.380593880602354329
0.476000000000000312,-1.336762655471877226
0.477000000000000313,-1.293641815098610426
0.478000000000000314,-1.251229670436267760
0.479000000000000314,-1.209524267245569717
0.480000000000000315,-1.168523394442362306
0.481000000000000316,-1.128224592357088163
0.482000000000000317,-1.088625160901821598
0.483000000000000318,-1.049722167641501169
0.484000000000000319,-1.011512455766107266
0.485000000000000320,-0.973992651960905675
0.486000000000000321,-0.937159174171910081
0.487000000000000322,-0.901008239264138311
0.488000000000000322,-0.865535870570246280
0.489000000000000323,-0.830737905327575299
0.490000000000000324,-0.796610002001549744
0.491000000000000325,-0.763147647493815029
0.492000000000000326,-0.730346164233475204
0.493000000000000327,-0.698200717150168404
0.494000000000000328,-0.666706320527704177
0.495000000000000329,-0.635857844737254818
0.496000000000000330,-0.605650022849222758
0.497000000000000330,-0.576077457123058578
0.498000000000000331,-0.547134625374401717
0.499000000000000332,-0.518815887219180705
0.500000000000000333,-0.491115490194272919
0.501000000000000334,-0.464027575754547061
0.502000000000000335,-0.437546185146259703
0.503000000000000336,-0.411665265156823668
0.504000000000000337,-0.386378673741068712
0.505000000000000338,-0.361680185524308528
0.506000000000000338,-0.337563497182550298
0.507000000000000339,-0.314022232700262527
0.508000000000000340,-0.291049948506279521
0.509000000000000341,-0.268640138488488001
0.510000000000000342,-0.246786238887933218
0.511000000000000343,-0.225481633073191551
0.512000000000000344,-0.204719656195808675
0.513000000000000345,-0.184493599727778734
0.514000000000000346,-0.164796715882013028
0.515000000000000346,-0.145622221916844846
0.516000000000000347,-0.126963304325662774
0.517000000000000348,-0.108813122912896049
0.518000000000000349,-0.091164814757413615
0.519000000000000350,-0.074011498064730424
0.520000000000000351,-0.057346275909216517
0.521000000000000352,-0.041162239867670924
0.522000000000000353,-0.025452473545630759
0.523000000000000353,-0.010210055997768554
0.524000000000000354,0.004571934956118458
0.525000000000000355,0.018900419518150191
0.526000000000000356,0.032782312800921351
0.527000000000000357,0.046224521816030574
0.528000000000000358,0.059233942561187213
0.529000000000000359,0.071817457204175400
0.530000000000000360,0.083981931362294843
0.531000000000000361,0.095734211475575703
0.532000000000000361,0.107081122272296561
0.533000000000000362,0.118029464325098268
0.534000000000000363,0.128586011696223274
0.535000000000000364,0.138757509670179385
0.536000000000000365,0.148550672572272141
0.537000000000000366,0.157972181671375084
0.538000000000000367,0.167028683165360348
0.539000000000000368,0.175726786247513755
0.540000000000000369,0.184073061252424064
0.541000000000000369,0.192074037879642778
0.542000000000000370,0.199736203493589198
0.543000000000000371,0.207066001498083796
0.544000000000000372,0.214069829783901044
0.545000000000000373,0.220754039247795741
0.546000000000000374,0.227124932381431055
0.547000000000000375,0.233188761928633775
0.548000000000000376,0.238951729609422209
0.549000000000000377,0.244419984909297894
0.550000000000000377,0.249599623932274722
0.551000000000000378,0.254496688316092901
0.552000000000000379,0.259117164208188533
0.553000000000000380,0.263466981300861991
0.554000000000000381,0.267552011924262811
0.555000000000000382,0.271378070195647303
0.556000000000000383,0.274950911223569294
0.557000000000000384,0.278276230365495869
0.558000000000000385,0.281359662537533584
0.559000000000000385,0.284206781574800282
0.560000000000000386,0.286823099641156598
0.561000000000000387,0.289214066686881266
0.562000000000000388,0.291385069953017828
0.563000000000000389,0.293341433521041528
0.564000000000000390,0.295088417906590239
0.565000000000000391,0.296631219695962678
0.566000000000000392,0.297974971224162666
0.567000000000000393,0.299124740293214397
0.568000000000000393,0.300085529929597306
0.569000000000000394,0.300862278179544196
0.570000000000000395,0.301459857941093701
0.571000000000000396,0.301883076831704344
0.572000000000000397,0.302136677090288464
0.573000000000000398,0.302225335512635751
0.574000000000000399,0.302153663419009288
0.575000000000000400,0.301926206652974816
0.576000000000000401,0.301547445610317932
0.577000000000000401,0.301021795297055084
0.578000000000000402,0.300353605415528691
0.579000000000000403,0.299547160477617758
0.580000000000000404,0.298606679944023956
0.581000000000000405,0.297536318388767373
0.582000000000000406,0.296340165687906665
0.583000000000000407,0.295022247231577162
0.584000000000000408,0.293586524158490847
0.585000000000000409,0.292036893611981596
0.586000000000000409,0.290377189016755632
0.587000000000000410,0.288611180375534626
0.588000000000000411,0.286742574584745391
0.589000000000000412,0.284775015768463813
0.590000000000000413,0.282712085629858556
0.591000000000000414,0.280557303819342352
0.592000000000000415,0.278314128318698450
0.593000000000000416,0.275985955840469477
0.594000000000000417,0.273576122241883324
0.595000000000000417,0.271087902952620807
0.596000000000000418,0.268524513415790755
0.597000000000000419,0.265889109541395552
0.598000000000000420,0.263184788171700823
0.599000000000000421,0.260414587557858179
0.600000000000000422,0.257581487847172663
0.601000000000000423,0.254688411580439089
0.602000000000000424,0.251738224198757687
0.603000000000000425,0.248733734559267644
0.604000000000000425,0.245677695459265572
0.605000000000000426,0.242572804168182277
0.606000000000000427,0.239421702966841898
0.607000000000000428,0.236226979693647310
0.608000000000000429,0.232991168296978579
0.609000000000000430,0.229716749393603370
0.610000000000000431,0.226406150832379721
0.611000000000000432,0.223061748262990467
0.612000000000000433,0.219685865709213612
0.613000000000000433,0.216280776146258402
0.614000000000000434,0.212848702081851388
0.615000000000000435,0.209391816140630876
