# CNT15-NH3+-2_AMAN-AC
# h[nm],U(h)[kJ/mol]
0.200000000000000011,132.883453614390930397
0.201000000000000012,131.449480901539175193
0.202000000000000013,129.498788779043763952
0.203000000000000014,127.379611577515305498
0.204000000000000015,125.273113013256619297
0.205000000000000016,123.258135348366678841
0.206000000000000016,121.354459738555391368
0.207000000000000017,119.550925262942854488
0.208000000000000018,117.823038544088149138
0.209000000000000019,116.143423425425268647
0.210000000000000020,114.487507084703977966
0.211000000000000021,112.836135332970428635
0.212000000000000022,111.176294345675984232
0.213000000000000023,109.500741748564308864
0.214000000000000024,107.807081017981957416
0.215000000000000024,106.096622325226391581
0.216000000000000025,104.373239643661918308
0.217000000000000026,102.642342610735227026
0.218000000000000027,100.910020648071423466
0.219000000000000028,99.182377511698717854
0.220000000000000029,97.465050346421051586
0.221000000000000030,95.762893735703300990
0.222000000000000031,94.079802739288510338
0.223000000000000032,92.418647026641082221
0.224000000000000032,90.781289193952119376
0.225000000000000033,89.168662974717989300
0.226000000000000034,87.580890486124275185
0.227000000000000035,86.017421344732071020
0.228000000000000036,84.477180086201798304
0.229000000000000037,82.958711628349277589
0.230000000000000038,81.460317416527502132
0.231000000000000039,79.980177343373696885
0.232000000000000040,78.516454542664661176
0.233000000000000040,77.067381747220267130
0.234000000000000041,75.631329116178804384
0.235000000000000042,74.206854327087171441
0.236000000000000043,72.792736344157816575
0.237000000000000044,71.387994664920100263
0.238000000000000045,69.991896058554999627
0.239000000000000046,68.603950880696430659
0.240000000000000047,67.223901016196407454
0.241000000000000048,65.851701392707767013
0.242000000000000048,64.487496848208721190
0.243000000000000049,63.131595944412410404
0.244000000000000050,61.784443110858831005
0.245000000000000051,60.446590293278156025
0.246000000000000052,59.118669073421926896
0.247000000000000053,57.801364032305151852
0.248000000000000054,56.495387948966296676
0.249000000000000055,55.201459265036611157
0.250000000000000056,53.920282102923138723
0.251000000000000056,52.652529002558139837
0.252000000000000057,51.398826438018019758
0.253000000000000058,50.159743089897389723
0.254000000000000059,48.935780780813004753
0.255000000000000060,47.727367928255446827
0.256000000000000061,46.534855329537883506
0.257000000000000062,45.358514066110089402
0.258000000000000063,44.198535297343035211
0.259000000000000064,43.055031705444811507
0.260000000000000064,41.928040351951324283
0.261000000000000065,40.817526710875412732
0.262000000000000066,39.723389652855857435
0.263000000000000067,38.645467167433899647
0.264000000000000068,37.583542625931627867
0.265000000000000069,36.537351404490479467
0.266000000000000070,35.506587704946063866
0.267000000000000071,34.490911429778243757
0.268000000000000071,33.489954985904212492
0.269000000000000072,32.503329910187304108
0.270000000000000073,31.530633226915522727
0.271000000000000074,30.571453463931117511
0.272000000000000075,29.625376269399872342
0.273000000000000076,28.691989585288638409
0.274000000000000077,27.770888346403559410
0.275000000000000078,26.861678685305680148
0.276000000000000079,25.963981633569328977
0.277000000000000079,25.077436318708752339
0.278000000000000080,24.201702663723946074
0.279000000000000081,23.336463602665098449
0.280000000000000082,22.481426830965734354
0.281000000000000083,21.636326113625088396
0.282000000000000084,20.800922177719087358
0.283000000000000085,19.975003218272156857
0.284000000000000086,19.158385048314436006
0.285000000000000087,18.350910925072323465
0.286000000000000087,17.552451084768854628
0.287000000000000088,16.762902018530404291
0.288000000000000089,15.982185521476761636
0.289000000000000090,15.210247546283932607
0.290000000000000091,14.447056891417691560
0.291000000000000092,13.692603752895825764
0.292000000000000093,12.946898166905395300
0.293000000000000094,12.209968368922925919
0.294000000000000095,11.481859093203421907
0.295000000000000095,10.762629834654703131
0.296000000000000096,10.052353093232586190
0.297000000000000097,9.351112619103195911
0.298000000000000098,8.659001674950113525
0.299000000000000099,7.976121329972182927
0.300000000000000100,7.302578798343397182
0.301000000000000101,6.638485833198146224
0.302000000000000102,5.983957185580444538
0.303000000000000103,5.339109136254336363
0.304000000000000103,4.704058106830123265
0.305000000000000104,4.078919355312511819
0.306000000000000105,3.463805759930480122
0.307000000000000106,2.858826693962762455
0.308000000000000107,2.264086993226912092
0.309000000000000108,1.679686016953879646
0.310000000000000109,1.105716801918329661
0.311000000000000110,0.542265308939697932
0.312000000000000111,-0.010590239801526203
0.313000000000000111,-0.552779934768449777
0.314000000000000112,-1.084242667033243235
0.315000000000000113,-1.604926533269588118
0.316000000000000114,-2.114789161194427614
0.317000000000000115,-2.613797959171492380
0.318000000000000116,-3.101930293919162640
0.319000000000000117,-3.579173600438902092
0.320000000000000118,-4.045525428403974999
0.321000000000000119,-4.500993429325850670
0.322000000000000119,-4.945595288851160731
0.323000000000000120,-5.379358608540880660
0.324000000000000121,-5.802320741450387231
0.325000000000000122,-6.214528585765383362
0.326000000000000123,-6.616038340661194006
0.327000000000000124,-7.006915228443614474
0.328000000000000125,-7.387233186901474014
0.329000000000000126,-7.757074535657925374
0.330000000000000127,-8.116529620152032720
0.331000000000000127,-8.465696436716086737
0.332000000000000128,-8.804680242041149185
0.333000000000000129,-9.133593150144282191
0.334000000000000130,-9.452553719768122420
0.335000000000000131,-9.761686534959858719
0.336000000000000132,-10.061121781390550467
0.337000000000000133,-10.350994820793001594
0.338000000000000134,-10.631445765714579110
0.339000000000000135,-10.902619056601690062
0.340000000000000135,-11.164663043060141234
0.341000000000000136,-11.417729570964194608
0.342000000000000137,-11.661973576924296481
0.343000000000000138,-11.897552691464365893
0.344000000000000139,-12.124626852108891129
0.345000000000000140,-12.343357927434151833
0.346000000000000141,-12.553909353000580751
0.347000000000000142,-12.756445779952162667
0.348000000000000143,-12.951132736945558221
0.349000000000000143,-13.138136305954978056
0.350000000000000144,-13.317622812390478515
0.351000000000000145,-13.489758529864904091
0.352000000000000146,-13.654709399850890605
0.353000000000000147,-13.812640766381088397
0.354000000000000148,-13.963717125864310020
0.355000000000000149,-14.108101892016065904
0.356000000000000150,-14.245957175834115915
0.357000000000000151,-14.377443580487996755
0.358000000000000151,-14.502720010935984618
0.359000000000000152,-14.621943498032674569
0.360000000000000153,-14.735269036846156965
0.361000000000000154,-14.842849438863572331
0.362000000000000155,-14.944835197730048648
0.363000000000000156,-15.041374368135333128
0.364000000000000157,-15.132612457436845688
0.365000000000000158,-15.218692329586691159
0.366000000000000159,-15.299754120911364552
0.367000000000000159,-15.375935167279475735
0.368000000000000160,-15.447369942181017777
0.369000000000000161,-15.514190005233999159
0.370000000000000162,-15.576523960629026888
0.371000000000000163,-15.634497425019389993
0.372000000000000164,-15.688233004364253276
0.373000000000000165,-15.737850279234049111
0.374000000000000166,-15.783465798091105725
0.375000000000000167,-15.825193078063644947
0.376000000000000167,-15.863142612738851511
0.377000000000000168,-15.897421886508590561
0.378000000000000169,-15.928135395011338460
0.379000000000000170,-15.955384671224454252
0.380000000000000171,-15.979268316772770930
0.381000000000000172,-15.999882038031568499
0.382000000000000173,-16.017318686615492851
0.383000000000000174,-16.031668303858683799
0.384000000000000175,-16.043018168905113896
0.385000000000000175,-16.051452850043030907
0.386000000000000176,-16.057054258932289770
0.387000000000000177,-16.059901707387460590
0.388000000000000178,-16.060071966395923937
0.389000000000000179,-16.057639327063913726
0.390000000000000180,-16.052675663199547529
0.391000000000000181,-16.045250495256084378
0.392000000000000182,-16.035431055373898346
0.393000000000000183,-16.023282353273973655
0.394000000000000183,-16.008867242770229211
0.395000000000000184,-15.992246488682033245
0.396000000000000185,-15.973478833942067467
0.397000000000000186,-15.952621066707980191
0.398000000000000187,-15.929728087299704242
0.399000000000000188,-15.904852974796773069
0.400000000000000189,-15.878047053142200440
0.401000000000000190,-15.849359956611806410
0.402000000000000191,-15.818839694519041927
0.403000000000000191,-15.786532715036395658
0.404000000000000192,-15.752483968025478234
0.405000000000000193,-15.716736966777625994
0.406000000000000194,-15.679333848577030608
0.407000000000000195,-15.640315434007476370
0.408000000000000196,-15.599721284932750009
0.409000000000000197,-15.557589761089289482
0.410000000000000198,-15.513958075237752610
0.411000000000000199,-15.468862346827418008
0.412000000000000199,-15.422337654135219509
0.413000000000000200,-15.374418084847302879
0.414000000000000201,-15.325136785057992483
0.415000000000000202,-15.274526006666643951
0.416000000000000203,-15.222617153158797265
0.417000000000000204,-15.169440823763171267
0.418000000000000205,-15.115026855981096077
0.419000000000000206,-15.059404366489442140
0.420000000000000207,-15.002601790422351868
0.421000000000000207,-14.944646919041378652
0.422000000000000208,-14.885566935806499700
0.423000000000000209,-14.825388450864826595
0.424000000000000210,-14.764137533975983274
0.425000000000000211,-14.701839745896373657
0.426000000000000212,-14.638520168247211473
0.427000000000000213,-14.574203431892907901
0.428000000000000214,-14.508913743859102041
0.429000000000000214,-14.442674912821061639
0.430000000000000215,-14.375510373194803293
0.431000000000000216,-14.307443207864963597
0.432000000000000217,-14.238496169584374584
0.433000000000000218,-14.168691701081394640
0.434000000000000219,-14.098051953912181133
0.435000000000000220,-14.026598806095503136
0.436000000000000221,-13.954353878568360514
0.437000000000000222,-13.881338550501144624
0.438000000000000222,-13.807573973511370724
0.439000000000000223,-13.733081084815136563
0.440000000000000224,-13.657880619355641016
0.441000000000000225,-13.581993120947700504
0.442000000000000226,-13.505438952477806680
0.443000000000000227,-13.428238305197998770
0.444000000000000228,-13.350411207152575344
0.445000000000000229,-13.271977530775515675
0.446000000000000230,-13.192956999696217935
0.447000000000000230,-13.113369194791067329
0.448000000000000231,-13.033233559517091393
0.449000000000000232,-12.952569404563684330
0.450000000000000233,-12.871395911857982597
0.451000000000000234,-12.789732137958056413
0.452000000000000235,-12.707597016868072970
0.453000000000000236,-12.625009362308174943
0.454000000000000237,-12.541987869471615369
0.455000000000000238,-12.458551116300188966
0.456000000000000238,-12.374717564308808093
0.457000000000000239,-12.290505558988650492
0.458000000000000240,-12.205933329817854727
0.459000000000000241,-12.121018989907421215
0.460000000000000242,-12.035780535309585915
0.461000000000000243,-11.950235844014477138
0.462000000000000244,-11.864402674660562198
0.463000000000000245,-11.778298664982653321
0.464000000000000246,-11.691941330021476730
0.465000000000000246,-11.605348060116810416
0.466000000000000247,-11.518536118705950955
0.467000000000000248,-11.431522639948180853
0.468000000000000249,-11.344324626195195549
0.469000000000000250,-11.256958945326251964
0.470000000000000251,-11.169442327966374151
0.471000000000000252,-11.081791364604676176
0.472000000000000253,-10.994022502629617222
0.473000000000000254,-10.906152043296470922
0.474000000000000254,-10.818196138642218074
0.475000000000000255,-10.730170788361721890
0.476000000000000256,-10.642091836658753579
0.477000000000000257,-10.553974969084373825
0.478000000000000258,-10.465835709374564644
0.479000000000000259,-10.377689416298432334
0.480000000000000260,-10.289551280527447830
0.481000000000000261,-10.201436321535535257
0.482000000000000262,-10.113359384539368335
0.483000000000000262,-10.025335137487520143
0.484000000000000263,-9.937378068106228923
0.485000000000000264,-9.849502481009590582
0.486000000000000265,-9.761722494880801904
0.487000000000000266,-9.674052039730819175
0.488000000000000267,-9.586504854240393669
0.489000000000000268,-9.499094483190727800
0.490000000000000269,-9.411834274987459281
0.491000000000000270,-9.324737379282693084
0.492000000000000270,-9.237816744698587712
0.493000000000000271,-9.151085116656370033
0.494000000000000272,-9.064555035313727416
0.495000000000000273,-8.978238833613175984
0.496000000000000274,-8.892148635444030447
0.497000000000000275,-8.806296353919689679
0.498000000000000276,-8.720693689772048174
0.499000000000000277,-8.635352129864337201
0.500000000000000222,-8.550282945823280301
0.501000000000000334,-8.465497192791545444
0.502000000000000224,-8.381005708300765633
0.503000000000000336,-8.296819111265268276
0.504000000000000226,-8.212947801096790457
0.505000000000000338,-8.129401956939387830
0.506000000000000227,-8.046191537024643736
0.507000000000000339,-7.963326278145873793
0.508000000000000229,-7.880815695250950270
0.509000000000000341,-7.798669081152182159
0.510000000000000231,-7.716895506352599909
0.511000000000000343,-7.635503818986537183
0.512000000000000233,-7.554502644873650752
0.513000000000000345,-7.473900387684087043
0.514000000000000234,-7.393705229213641594
0.515000000000000346,-7.313925129766201572
0.516000000000000236,-7.234567828642295417
0.517000000000000348,-7.155640844730882577
0.518000000000000238,-7.077151477202773933
0.519000000000000350,-6.999106806302906492
0.520000000000000240,-6.921513694239473935
0.521000000000000352,-6.844378786167318651
0.522000000000000242,-6.767708511263182736
0.523000000000000353,-6.691509083890186282
0.524000000000000243,-6.615786504849114458
0.525000000000000355,-6.540546562713783985
0.526000000000000245,-6.465794835248027894
0.527000000000000357,-6.391536690901330253
0.528000000000000247,-6.317777290380895749
0.529000000000000359,-6.244521588296977122
0.530000000000000249,-6.171774334879188473
0.531000000000000361,-6.099540077760790879
0.532000000000000250,-6.027823163828528230
0.533000000000000362,-5.956627741135037901
0.534000000000000252,-5.885957760871449729
0.535000000000000364,-5.815816979397207653
0.536000000000000254,-5.746208960324846515
0.537000000000000366,-5.677137076656535442
0.538000000000000256,-5.608604512970478240
0.539000000000000368,-5.540614267653867664
0.540000000000000258,-5.473169155180516832
0.541000000000000369,-5.406271808429974790
0.542000000000000259,-5.339924681046301025
0.543000000000000371,-5.274130049833452460
0.544000000000000261,-5.208890017185266785
0.545000000000000373,-5.144206513547446846
0.546000000000000263,-5.080081299909380732
0.547000000000000375,-5.016515970323117024
0.548000000000000265,-4.953511954447923138
0.549000000000000377,-4.891070520117347442
0.550000000000000266,-4.829192775927433345
0.551000000000000378,-4.767879673843323118
0.552000000000000268,-4.707132011822620754
0.553000000000000380,-4.646950436453158417
0.554000000000000270,-4.587335445603495820
0.555000000000000382,-4.528287391083838820
0.556000000000000272,-4.469806481315954372
0.557000000000000384,-4.411892784009729063
0.558000000000000274,-4.354546228845122435
0.559000000000000385,-4.297766610157243150
0.560000000000000275,-4.241553589623364928
0.561000000000000387,-4.185906698949812821
0.562000000000000277,-4.130825342557431057
0.563000000000000389,-4.076308800263936050
0.564000000000000279,-4.022356229961735252
0.565000000000000391,-3.968966670289694854
0.566000000000000281,-3.916139043297594213
0.567000000000000393,-3.863872157101712279
0.568000000000000282,-3.812164708530549007
0.569000000000000394,-3.761015285759033766
0.570000000000000284,-3.710422370930456903
0.571000000000000396,-3.660384342764560817
0.572000000000000286,-3.610899479151039593
0.573000000000000398,-3.561965959727004361
0.574000000000000288,-3.513581868437763323
0.575000000000000400,-3.465745196079657031
0.576000000000000290,-3.418453842824183742
0.577000000000000401,-3.371705620722374785
0.578000000000000291,-3.325498256188736512
0.579000000000000403,-3.279829392463766702
0.580000000000000293,-3.234696592054466358
0.581000000000000405,-3.190097339151858780
0.582000000000000295,-3.146029042025173972
0.583000000000000407,-3.102489035391632566
0.584000000000000297,-3.059474582761579242
0.585000000000000409,-3.016982878758110331
0.586000000000000298,-2.975011051410853646
0.587000000000000410,-2.933556164423188228
0.588000000000000300,-2.892615219412661087
0.589000000000000412,-2.852185158123845543
0.590000000000000302,-2.812262864613561675
0.591000000000000414,-2.772845167407840261
0.592000000000000304,-2.733928841630370865
0.593000000000000416,-2.695510611102041487
0.594000000000000306,-2.657587150411443666
0.595000000000000417,-2.620155086955821222
0.596000000000000307,-2.583211002952462199
0.597000000000000419,-2.546751437420163633
0.598000000000000309,-2.510772888130692326
0.599000000000000421,-2.475271813529945408
0.600000000000000311,-2.440244634628860876
0.601000000000000423,-2.405687736863735271
0.602000000000000313,-2.371597471926123468
0.603000000000000425,-2.337970159561907568
0.604000000000000314,-2.304802089339937687
0.605000000000000426,-2.272089522389693972
0.606000000000000316,-2.239828693108453006
0.607000000000000428,-2.208015810837577142
0.608000000000000318,-2.176647061508268699
0.609000000000000430,-2.145718609256534570
0.610000000000000320,-2.115226598007747150
0.611000000000000432,-2.085167153030552445
0.612000000000000322,-2.055536382460509071
0.613000000000000433,-2.026330378793358200
0.614000000000000323,-1.997545220348179384
0.615000000000000435,-1.969176972700495298
0.616000000000000325,-1.941221690085533025
0.617000000000000437,-1.913675416771725368
0.618000000000000327,-1.886534188404780377
0.619000000000000439,-1.859794033322277329
0.620000000000000329,-1.833450973839224174
0.621000000000000441,-1.807501027504650581
0.622000000000000330,-1.781940208329461317
0.623000000000000442,-1.756764527985830826
0.624000000000000332,-1.731969996978342863
0.625000000000000444,-1.707552625787123191
0.626000000000000334,-1.683508425983240020
0.627000000000000446,-1.659833411316590013
0.628000000000000336,-1.636523598776596033
0.629000000000000448,-1.613575009625936918
0.630000000000000338,-1.590983670407655648
0.631000000000000449,-1.568745613925846438
0.632000000000000339,-1.546856880200296214
0.633000000000000451,-1.525313517395325169
0.634000000000000341,-1.504111582723169249
0.635000000000000453,-1.483247143322171890
0.636000000000000343,-1.462716277110113428
0.637000000000000455,-1.442515073612993026
0.638000000000000345,-1.422639634769627293
0.639000000000000457,-1.403086075712230096
0.640000000000000346,-1.383850525523558028
0.641000000000000458,-1.364929127970638145
0.642000000000000348,-1.346318042215704169
0.643000000000000460,-1.328013443504417745
0.644000000000000350,-1.310011523831899671
0.645000000000000462,-1.292308492586762725
0.646000000000000352,-1.274900577173598615
0.647000000000000464,-1.257784023614095359
0.648000000000000353,-1.240955097127363960
0.649000000000000465,-1.224410082689492363
0.650000000000000355,-1.208145285572986172
0.651000000000000467,-1.192157031866151184
0.652000000000000357,-1.176441668972973753
0.653000000000000469,-1.160995566093659503
0.654000000000000359,-1.145815114686310476
0.655000000000000471,-1.130896728909919879
0.656000000000000361,-1.116236846049200704
0.657000000000000473,-1.101831926921359450
0.658000000000000362,-1.087678456265376292
0.659000000000000474,-1.073772943113897815
