# CNT15-NH3+-2_CS-270-AC
# h[nm],U(h)[kJ/mol]
0.149999999999999994,122.956377708035233809
0.150999999999999995,118.893224534370418155
0.151999999999999996,117.105682671212690593
0.152999999999999997,115.745666330541411071
0.153999999999999998,114.159674111490701875
0.154999999999999999,112.246049679433411939
0.156000000000000000,110.111676165126752380
0.157000000000000001,107.903586420980062144
0.158000000000000002,105.738302745895538237
0.159000000000000002,103.682294264810849427
0.160000000000000003,101.756366080247317996
0.161000000000000004,99.948884204017545585
0.162000000000000005,98.230066387143551765
0.163000000000000006,96.563851362328151140
0.164000000000000007,94.916235851704783499
0.165000000000000008,93.260183604886108810
0.166000000000000009,91.577742099564630962
0.167000000000000010,89.860152161429667217
0.168000000000000010,88.106689285795681599
0.169000000000000011,86.322843206484819234
0.170000000000000012,84.518286654597062579
0.171000000000000013,82.704937870910754327
0.172000000000000014,80.895298919490485900
0.173000000000000015,79.101157505538481018
0.174000000000000016,77.332672602428161213
0.175000000000000017,75.597819914257925689
0.176000000000000018,73.902147334408056167
0.177000000000000018,72.248778471738418716
0.178000000000000019,70.638599911211699123
0.179000000000000020,69.070571788807711755
0.180000000000000021,67.542108873059305552
0.181000000000000022,66.049488721058636997
0.182000000000000023,64.588253258178809801
0.183000000000000024,63.153579427027786153
0.184000000000000025,61.740602830177422788
0.185000000000000026,60.344685285586635359
0.186000000000000026,58.961622842410861267
0.187000000000000027,57.587795111252525260
0.188000000000000028,56.220259866366248502
0.189000000000000029,54.856798938351460038
0.190000000000000030,53.495922610717308032
0.191000000000000031,52.136840237430625677
0.192000000000000032,50.779404774165030290
0.193000000000000033,49.424038508218096410
0.194000000000000034,48.071646604646105061
0.195000000000000034,46.723524261105609412
0.196000000000000035,45.381262362517986730
0.197000000000000036,44.046655611458938040
0.198000000000000037,42.721616227071407934
0.199000000000000038,41.408095486241357719
0.200000000000000039,40.108014646160178529
0.201000000000000040,38.823206148385970948
0.202000000000000041,37.555365465128524249
0.203000000000000042,36.306013507397089768
0.204000000000000042,35.076469166725409821
0.205000000000000043,33.867831299745454032
0.206000000000000044,32.680969278690795932
0.207000000000000045,31.516521111010746381
0.208000000000000046,30.374898067557143833
0.209000000000000047,29.256294741455953101
0.210000000000000048,28.160703479591024490
0.211000000000000049,27.087932177207157736
0.212000000000000050,26.037624495991735785
0.213000000000000050,25.009281650605267089
0.214000000000000051,24.002285002429783134
0.215000000000000052,23.015918797659544737
0.216000000000000053,22.049392485993102753
0.217000000000000054,21.101862153109646414
0.218000000000000055,20.172450692536880723
0.219000000000000056,19.260266428769622138
0.220000000000000057,18.364419982419505573
0.221000000000000058,17.484039239073080552
0.222000000000000058,16.618282346049994658
0.223000000000000059,15.766348715355695376
0.224000000000000060,14.927488056988071463
0.225000000000000061,14.101007504754480948
0.226000000000000062,13.286276927376954760
0.227000000000000063,12.482732541488825717
0.228000000000000064,11.689878960795537566
0.229000000000000065,10.907289827845453090
0.230000000000000066,10.134607182206739395
0.231000000000000066,9.371539722023749519
0.232000000000000067,8.617860115564520029
0.233000000000000068,7.873401516059416849
0.234000000000000069,7.138053427421686692
0.235000000000000070,6.411757060834624156
0.236000000000000071,5.694500313142659031
0.237000000000000072,4.986312487893494350
0.238000000000000073,4.287258869104755732
0.239000000000000073,3.597435246674031362
0.240000000000000074,2.916962481075104030
0.241000000000000075,2.245981183810067172
0.242000000000000076,1.584646579191232529
0.243000000000000077,0.933123602555219755
0.244000000000000078,0.291582280078337253
0.245000000000000079,-0.339806573950533430
0.246000000000000080,-0.960875315172663336
0.247000000000000081,-1.571463063202699351
0.248000000000000081,-2.171418919526529212
0.249000000000000082,-2.760604803533965423
0.250000000000000111,-3.338897906656853820
0.251000000000000112,-3.906192769555397515
0.252000000000000113,-4.462402991581636336
0.253000000000000114,-5.007462585375390240
0.254000000000000115,-5.541326992463613266
0.255000000000000115,-6.063973778171910745
0.256000000000000116,-6.575403026068239676
0.257000000000000117,-7.075637453586113956
0.258000000000000118,-7.564722271463321768
0.259000000000000119,-8.042724810230309274
0.260000000000000120,-8.509733937231818146
0.261000000000000121,-8.965859287608420658
0.262000000000000122,-9.411230332344498350
0.263000000000000123,-9.845995305940270725
0.264000000000000123,-10.270320015527705237
0.265000000000000124,-10.684386552352806987
0.266000000000000125,-11.088391925523563231
0.267000000000000126,-11.482546636799387585
0.268000000000000127,-11.867073214001345960
0.269000000000000128,-12.242204719373352972
0.270000000000000129,-12.608183247944902305
0.271000000000000130,-12.965258429653207628
0.272000000000000131,-13.313685947690860445
0.273000000000000131,-13.653726084270340735
0.274000000000000132,-13.985642303747578552
0.275000000000000133,-14.309699881835694413
0.276000000000000134,-14.626164588472770234
0.277000000000000135,-14.935301430790866917
0.278000000000000136,-15.237373461574639677
0.279000000000000137,-15.532640657597344358
0.280000000000000138,-15.821358871284425973
0.281000000000000139,-16.103778858282744579
0.282000000000000139,-16.380145382704473178
0.283000000000000140,-16.650696401072796249
0.284000000000000141,-16.915662325317995851
0.285000000000000142,-17.175265364557823489
0.286000000000000143,-17.429718944843330064
0.287000000000000144,-17.679227205557889846
0.288000000000000145,-17.923984570722272025
0.289000000000000146,-18.164175393076792631
0.290000000000000147,-18.399973668484342681
0.291000000000000147,-18.631542817917509325
0.292000000000000148,-18.859035534061035833
0.293000000000000149,-19.082593689370021650
0.294000000000000150,-19.302348302275142089
0.295000000000000151,-19.518419558112988454
0.296000000000000152,-19.730916881281515884
0.297000000000000153,-19.939939055072276375
0.298000000000000154,-20.145574385612796675
0.299000000000000155,-20.347900906357882178
0.300000000000000155,-20.546986619598349932
0.301000000000000156,-20.742889771504557928
0.302000000000000157,-20.935659157290153587
0.303000000000000158,-21.125334453163723936
0.304000000000000159,-21.311946571833143338
0.305000000000000160,-21.495518038435033503
0.306000000000000161,-21.676063383879615287
0.307000000000000162,-21.853589552726955247
0.308000000000000163,-22.028096322842078081
0.309000000000000163,-22.199576734213415818
0.310000000000000164,-22.368017524459482104
0.311000000000000165,-22.533399568690608561
0.312000000000000166,-22.695698321536788455
0.313000000000000167,-22.854884259296078142
0.314000000000000168,-23.010923320301294837
0.315000000000000169,-23.163777341744172134
0.316000000000000170,-23.313404491335557367
0.317000000000000171,-23.459759692316630719
0.318000000000000171,-23.602795040469040089
0.319000000000000172,-23.742460211901736500
0.320000000000000173,-23.878702860516511919
0.321000000000000174,-24.011469004175332032
0.322000000000000175,-24.140703398708250660
0.323000000000000176,-24.266349899011345315
0.324000000000000177,-24.388351806589732007
0.325000000000000178,-24.506652203001188184
0.326000000000000179,-24.621194268751157352
0.327000000000000179,-24.731921587279224184
0.328000000000000180,-24.838778433762307429
0.329000000000000181,-24.941710048538165978
0.330000000000000182,-25.040662895027441692
0.331000000000000183,-25.135584902101129501
0.332000000000000184,-25.226425690903749199
0.333000000000000185,-25.313136786202026229
0.334000000000000186,-25.395671812382552446
0.335000000000000187,-25.473986674271603903
0.336000000000000187,-25.548039722995618206
0.337000000000000188,-25.617791907140809116
0.338000000000000189,-25.683206909508292881
0.339000000000000190,-25.744251269792876258
0.340000000000000191,-25.800894493542934072
0.341000000000000192,-25.853109147784635979
0.342000000000000193,-25.900870943715396777
0.343000000000000194,-25.944158806890566638
0.344000000000000195,-25.982954935343009595
0.345000000000000195,-26.017244846088903643
0.346000000000000196,-26.047017410482460775
0.347000000000000197,-26.072264878891338924
0.348000000000000198,-26.092982895169200219
0.349000000000000199,-26.109170501405905895
0.350000000000000200,-26.120830133437245024
0.351000000000000201,-26.127967607595433464
0.352000000000000202,-26.130592099180130816
0.353000000000000203,-26.128716113125552312
0.354000000000000203,-26.122355447335127820
0.355000000000000204,-26.111529149147873596
0.356000000000000205,-26.096259465394190613
0.357000000000000206,-26.076571786490156057
0.358000000000000207,-26.052494585009537076
0.359000000000000208,-26.024059349163515265
0.360000000000000209,-25.991300511606613810
0.361000000000000210,-25.954255373976145904
0.362000000000000210,-25.912964027560537517
0.363000000000000211,-25.867469270479382715
0.364000000000000212,-25.817816521745527325
0.365000000000000213,-25.764053732566186028
0.366000000000000214,-25.706231295226949385
0.367000000000000215,-25.644401949889122250
0.368000000000000216,-25.578620689617387995
0.369000000000000217,-25.508944663940855690
0.370000000000000218,-25.435433081237626141
0.371000000000000218,-25.358147110218730802
0.372000000000000219,-25.277149780774472276
0.373000000000000220,-25.192505884432641494
0.374000000000000221,-25.104281874664888363
0.375000000000000222,-25.012545767264686702
0.376000000000000223,-24.917367041007530304
0.377000000000000224,-24.818816538791722337
0.378000000000000225,-24.716966369445344753
0.379000000000000226,-24.611889810373714482
0.380000000000000226,-24.503661211209681881
0.381000000000000227,-24.392355898617488208
0.382000000000000228,-24.278050082390624453
0.383000000000000229,-24.160820762972779363
0.384000000000000230,-24.040745640520746917
0.385000000000000231,-23.917903025618819868
0.386000000000000232,-23.792371751743477404
0.387000000000000233,-23.664231089568922073
0.388000000000000234,-23.533560663194354134
0.389000000000000234,-23.400440368365853061
0.390000000000000235,-23.264950292757056616
0.391000000000000236,-23.127170638365438293
0.392000000000000237,-22.987181646072958330
0.393000000000000238,-22.845063522413276758
0.394000000000000239,-22.700896368580302465
0.395000000000000240,-22.554760111706926295
0.396000000000000241,-22.406734438436295420
0.397000000000000242,-22.256898730802042508
0.398000000000000242,-22.105332004429023129
0.399000000000000243,-21.952112849060018362
0.400000000000000244,-21.797319371409592748
0.401000000000000245,-21.641029140341636605
0.402000000000000246,-21.483319134362474756
0.403000000000000247,-21.324265691417657820
0.404000000000000248,-21.163944460976786388
0.405000000000000249,-21.002430358387048415
0.406000000000000250,-20.839797521473009567
0.407000000000000250,-20.676119269357126740
0.408000000000000251,-20.511468063472698020
0.409000000000000252,-20.345915470738376030
0.410000000000000253,-20.179532128861094264
0.411000000000000254,-20.012387713731971672
0.412000000000000255,-19.844550908877998552
0.413000000000000256,-19.676089376930505637
0.414000000000000257,-19.507069733069609896
0.415000000000000258,-19.337557520403002798
0.416000000000000258,-19.167617187235460818
0.417000000000000259,-18.997312066185155999
0.418000000000000260,-18.826704355101263388
0.419000000000000261,-18.655855099737035374
0.420000000000000262,-18.484824178131582073
0.421000000000000263,-18.313670286653373154
0.422000000000000264,-18.142450927657655768
0.423000000000000265,-17.971222398710004597
0.424000000000000266,-17.800039783328223564
0.425000000000000266,-17.628956943193976770
0.426000000000000267,-17.458026511786549406
0.427000000000000268,-17.287299889390368435
0.428000000000000269,-17.116827239428570095
0.429000000000000270,-16.946657486075235255
0.430000000000000271,-16.776838313098600963
0.431000000000000272,-16.607416163888935046
0.432000000000000273,-16.438436242624170802
0.433000000000000274,-16.269942516527947873
0.434000000000000274,-16.101977719174179526
0.435000000000000275,-15.934583354793938170
0.436000000000000276,-15.767799703540337219
0.437000000000000277,-15.601665827668048436
0.438000000000000278,-15.436219578584958967
0.439000000000000279,-15.271497604734083353
0.440000000000000280,-15.107535360264463975
0.441000000000000281,-14.944367114451058143
0.442000000000000282,-14.782025961824029281
0.443000000000000282,-14.620543832968873943
0.444000000000000283,-14.459951505959770302
0.445000000000000284,-14.300278618389279828
0.446000000000000285,-14.141553679958386525
0.447000000000000286,-13.983804085592169031
0.448000000000000287,-13.827056129046562560
0.449000000000000288,-13.671335016973506171
0.450000000000000289,-13.516664883411843689
0.451000000000000290,-13.363068804672792567
0.452000000000000290,-13.210568814589644049
0.453000000000000291,-13.059185920102013512
0.454000000000000292,-12.908940117146224580
0.455000000000000293,-12.759850406823989744
0.456000000000000294,-12.611934811822816727
0.457000000000000295,-12.465210393062090333
0.458000000000000296,-12.319693266539882615
0.459000000000000297,-12.175398620356498114
0.460000000000000298,-12.032340731891267183
0.461000000000000298,-11.890532985110505493
0.462000000000000299,-11.749987887984833179
0.463000000000000300,-11.610717089995230111
0.464000000000000301,-11.472731399707939204
0.465000000000000302,-11.336040802399223182
0.466000000000000303,-11.200654477711365686
0.467000000000000304,-11.066580817322696717
0.468000000000000305,-10.933827442614731495
0.469000000000000306,-10.802401222320298757
0.470000000000000306,-10.672308290137637599
0.471000000000000307,-10.543554062295399376
0.472000000000000308,-10.416143255055192895
0.473000000000000309,-10.290079902137961199
0.474000000000000310,-10.165367372062009466
0.475000000000000311,-10.042008385380327695
0.476000000000000312,-9.920005031806590878
0.477000000000000313,-9.799358787218272582
0.478000000000000314,-9.680070530527526529
0.479000000000000314,-9.562140560409998713
0.480000000000000315,-9.445568611882551480
0.481000000000000316,-9.330353872721733666
0.482000000000000317,-9.216494999714878844
0.483000000000000318,-9.103990134736609008
0.484000000000000319,-8.992836920643810572
0.485000000000000320,-8.883032516982741100
0.486000000000000321,-8.774573615502271551
0.487000000000000322,-8.667456455467849707
0.488000000000000322,-8.561676838771006715
0.489000000000000323,-8.457230144830052865
0.490000000000000324,-8.354111345277404510
0.491000000000000325,-8.252315018429978721
0.492000000000000326,-8.151835363538969759
0.493000000000000327,-8.052666214816138535
0.494000000000000328,-7.954801055233649443
0.495000000000000329,-7.858233030095190585
0.496000000000000330,-7.762954960376177382
0.497000000000000330,-7.668959355831323599
0.498000000000000331,-7.576238427867936664
0.499000000000000332,-7.484784102184020682
0.500000000000000333,-7.394588031169876174
0.501000000000000334,-7.305641606072735605
0.502000000000000335,-7.217935968923953283
0.503000000000000336,-7.131462024228558683
0.504000000000000337,-7.046210450417082605
0.505000000000000338,-6.962171711060055834
0.506000000000000338,-6.879336065845511605
0.507000000000000339,-6.797693581320118028
0.508000000000000340,-6.717234141394797575
0.509000000000000341,-6.637947457615861246
0.510000000000000342,-6.559823079202703688
0.511000000000000343,-6.482850402853460814
0.512000000000000344,-6.407018682320037684
0.513000000000000345,-6.332317037754143563
0.514000000000000346,-6.258734464826058108
0.515000000000000346,-6.186259843617958332
0.516000000000000347,-6.114881947293749676
0.517000000000000348,-6.044589450547649179
0.518000000000000349,-5.975370937833377027
0.519000000000000350,-5.907214911376599709
0.520000000000000351,-5.840109798972699551
0.521000000000000352,-5.774043961572468575
0.522000000000000353,-5.709005700658229543
0.523000000000000353,-5.644983265412827578
0.524000000000000354,-5.581964859684426905
0.525000000000000355,-5.519938648749510790
0.526000000000000356,-5.458892765877069841
0.527000000000000357,-5.398815318696725818
0.528000000000000358,-5.339694395373541624
0.529000000000000359,-5.281518070592640335
0.530000000000000360,-5.224274411356287118
0.531000000000000361,-5.167951482596643942
0.532000000000000361,-5.112537352606945085
0.533000000000000362,-5.058020098294340627
0.534000000000000363,-5.004387810257200364
0.535000000000000364,-4.951628597690072908
0.536000000000000365,-4.899730593119274502
0.537000000000000366,-4.848681956972209051
0.538000000000000367,-4.798470881983389447
0.539000000000000368,-4.749085597440375395
0.540000000000000369,-4.700514373272502766
0.541000000000000369,-4.652745523985624132
0.542000000000000370,-4.605767412445822551
0.543000000000000371,-4.559568453515121078
0.544000000000000372,-4.514137117542318833
0.545000000000000373,-4.469461933711877499
0.546000000000000374,-4.425531493253862081
0.547000000000000375,-4.382334452517976153
0.548000000000000376,-4.339859535914653677
0.549000000000000377,-4.298095538726089515
0.550000000000000377,-4.257031329790160079
0.551000000000000378,-4.216655854060171293
0.552000000000000379,-4.176958135043268960
0.553000000000000380,-4.137927277120353686
0.554000000000000381,-4.099552467750325668
0.555000000000000382,-4.061822979561495295
0.556000000000000383,-4.024728172332806331
0.557000000000000384,-3.988257494867748498
0.558000000000000385,-3.952400486763521403
0.559000000000000385,-3.917146780078208934
0.560000000000000386,-3.882486100898530967
0.561000000000000387,-3.848408270810819154
0.562000000000000388,-3.814903208277749425
0.563000000000000389,-3.781960929923344317
0.564000000000000390,-3.749571551728782648
0.565000000000000391,-3.717725290141429717
0.566000000000000392,-3.686412463099505654
0.567000000000000393,-3.655623490974826417
0.568000000000000393,-3.625348897435872964
0.569000000000000394,-3.595579310233560477
0.570000000000000395,-3.566305461911977837
0.571000000000000396,-3.537518190446250710
0.572000000000000397,-3.509208439809856195
0.573000000000000398,-3.481367260473363423
0.574000000000000399,-3.453985809836921383
0.575000000000000400,-3.427055352598372906
0.576000000000000401,-3.400567261059164625
0.577000000000000401,-3.374513015370039337
0.578000000000000402,-3.348884203718424768
0.579000000000000403,-3.323672522459438117
0.580000000000000404,-3.298869776192508319
0.581000000000000405,-3.274467877785320891
0.582000000000000406,-3.250458848346979401
0.583000000000000407,-3.226834817152169244
0.584000000000000408,-3.203588021517997930
0.585000000000000409,-3.180710806635291377
0.586000000000000409,-3.158195625355952885
0.587000000000000410,-3.136035037938060821
0.588000000000000411,-3.114221711750264188
0.589000000000000412,-3.092748420937060594
0.590000000000000413,-3.071608046046460760
0.591000000000000414,-3.050793573621564114
0.592000000000000415,-3.030298095757458121
0.593000000000000416,-3.010114809624895749
0.594000000000000417,-2.990237016962110417
0.595000000000000417,-2.970658123536210393
0.596000000000000418,-2.951371638575290390
0.597000000000000419,-2.932371174172800465
0.598000000000000420,-2.913650444665206507
0.599000000000000421,-2.895203265984311436
0.600000000000000422,-2.877023554985369103
0.601000000000000423,-2.859105328752192143
0.602000000000000424,-2.841442703880366238
0.603000000000000425,-2.824029895739678331
0.604000000000000425,-2.806861217716867252
0.605000000000000426,-2.789931080439687072
0.606000000000000427,-2.773233990983419606
0.607000000000000428,-2.756764552060608331
0.608000000000000429,-2.740517461195317583
