# CNT15-NH3+-2_CS-693-AC
# h[nm],U(h)[kJ/mol]
0.149999999999999994,98.528629428979314753
0.150999999999999995,95.536124636550212585
0.151999999999999996,94.298118809052368761
0.152999999999999997,93.412545207593979057
0.153999999999999998,92.377256137705629158
0.154999999999999999,91.106738140598210407
0.156000000000000000,89.674101636836510920
0.157000000000000001,88.184505611433834815
0.158000000000000002,86.721927368311412465
0.159000000000000002,85.334249720134408790
0.160000000000000003,84.036269778669364428
0.161000000000000004,82.819325201053075602
0.162000000000000005,81.661733077771231137
0.163000000000000006,80.537444393022525446
0.164000000000000007,79.422092651800511476
0.165000000000000008,78.296519553329375185
0.166000000000000009,77.148253575292471851
0.167000000000000010,75.971525733443712625
0.168000000000000010,74.766369725066581964
0.169000000000000011,73.537253599934430781
0.170000000000000012,72.291573470195586992
0.171000000000000013,71.038230682015793604
0.172000000000000014,69.786423031763305858
0.173000000000000015,68.544711041549476249
0.174000000000000016,67.320370948016631019
0.175000000000000017,66.119013940446606625
0.176000000000000018,64.944432726878147832
0.177000000000000018,63.798628210891521917
0.178000000000000019,62.681967855980289528
0.179000000000000020,61.593430686559045739
0.180000000000000021,60.530899880496420451
0.181000000000000022,59.491471118549199559
0.182000000000000023,58.471752277028485878
0.183000000000000024,57.468137035571245974
0.184000000000000025,56.477041142863029677
0.185000000000000026,55.495095255989596694
0.186000000000000026,54.519292396982123705
0.187000000000000027,53.547091196394340784
0.188000000000000028,52.576478316309433580
0.189000000000000029,51.605994890296720712
0.190000000000000030,50.634732621715841105
0.191000000000000031,49.662305478089791677
0.192000000000000032,48.688802831469608634
0.193000000000000033,47.714729531619511249
0.194000000000000034,46.740937852812393771
0.195000000000000034,45.768555601696327528
0.196000000000000035,44.798913972924509608
0.197000000000000036,43.833478036598187089
0.198000000000000037,42.873782070185690429
0.199000000000000038,41.921371330100619446
0.200000000000000039,40.977751308622757165
0.201000000000000040,40.044345047591505704
0.202000000000000041,39.122458683327849371
0.203000000000000042,38.213255075714464226
0.204000000000000042,37.317735123722769686
0.205000000000000043,36.436726183586173988
0.206000000000000044,35.570876876898907426
0.207000000000000045,34.720657496350234794
0.208000000000000046,33.886365178741691295
0.209000000000000047,33.068133010847063247
0.210000000000000048,32.265942256544384747
0.211000000000000049,31.479636937120641704
0.212000000000000050,30.708940055091961341
0.213000000000000050,29.953470820427831711
0.214000000000000051,29.212762312588306912
0.215000000000000052,28.486279088865209985
0.216000000000000053,27.773434326407436146
0.217000000000000054,27.073606159843176755
0.218000000000000055,26.386152946959704479
0.219000000000000056,25.710427260290533269
0.220000000000000057,25.045788461906191458
0.221000000000000058,24.391613771762585827
0.222000000000000058,23.747307786435332133
0.223000000000000059,23.112310444999110359
0.224000000000000060,22.486103472389270763
0.225000000000000061,21.868215358135099535
0.226000000000000062,21.258224950293538313
0.227000000000000063,20.655763761212359242
0.228000000000000064,20.060517093922264564
0.229000000000000065,19.472224106019702106
0.230000000000000066,18.890676932381555986
0.231000000000000066,18.315718989452101084
0.232000000000000067,17.747242582649839449
0.233000000000000068,17.185185935106055410
0.234000000000000069,16.629529750888359274
0.235000000000000070,16.080293419459209758
0.236000000000000071,15.537530960712880201
0.237000000000000072,15.001326801823827495
0.238000000000000073,14.471791468589779939
0.239000000000000073,13.949057265189448884
0.240000000000000074,13.433274007486252444
0.241000000000000075,12.924604866360359878
0.242000000000000076,12.423222369166230905
0.243000000000000077,11.929304599397481113
0.244000000000000078,11.443031627074665479
0.245000000000000079,10.964582195310706325
0.246000000000000080,10.494130681996120202
0.247000000000000081,10.031844349601394484
0.248000000000000081,9.577880890732048513
0.249000000000000082,9.132386272288153251
0.250000000000000111,8.695492876865886345
0.251000000000000112,8.267317936376070264
0.252000000000000113,7.847962249717939542
0.253000000000000114,7.437509173710779464
0.254000000000000115,7.036023874314585314
0.255000000000000115,6.643552823434765386
0.256000000000000116,6.260123525265858468
0.257000000000000117,5.885744455151314725
0.258000000000000118,5.520405193285160550
0.259000000000000119,5.164076735219964576
0.260000000000000120,4.816711961041683310
0.261000000000000121,4.478246245192615937
0.262000000000000122,4.148598189237267420
0.263000000000000123,3.827670460344596570
0.264000000000000123,3.515350718875581038
0.265000000000000124,3.211512619193394702
0.266000000000000125,2.916016868631126524
0.267000000000000126,2.628712330438570444
0.268000000000000127,2.349437157465677828
0.269000000000000128,2.078019944310349754
0.270000000000000129,1.814280886646069790
0.271000000000000130,1.558032937437861198
0.272000000000000131,1.309082950742816109
0.273000000000000131,1.067232804762406229
0.274000000000000132,0.832280496761605093
0.275000000000000133,0.604021203386137073
0.276000000000000134,0.382248300789106210
0.277000000000000135,0.166754339817720032
0.278000000000000136,-0.042668027695273295
0.279000000000000137,-0.246225174742921604
0.280000000000000138,-0.444121679566726268
0.281000000000000139,-0.636559562550379709
0.282000000000000139,-0.823737580844868922
0.283000000000000140,-1.005850581436184665
0.284000000000000141,-1.183088912866594677
0.285000000000000142,-1.355637895368534851
0.286000000000000143,-1.523677348764846062
0.287000000000000144,-1.687381177128552512
0.288000000000000145,-1.846917008878710131
0.289000000000000146,-2.002445890712028831
0.290000000000000147,-2.154122033533432568
0.291000000000000147,-2.302092608347497737
0.292000000000000148,-2.446497589906854842
0.293000000000000149,-2.587469645778684768
0.294000000000000150,-2.725134068385879349
0.295000000000000151,-2.859608747501654058
0.296000000000000152,-2.991004180623634046
0.297000000000000153,-3.119423518623477332
0.298000000000000154,-3.244962644058658974
0.299000000000000155,-3.367710279542063034
0.300000000000000155,-3.487748123590574956
0.301000000000000156,-3.605151011413973983
0.302000000000000157,-3.719987098158588967
0.303000000000000158,-3.832318062183992957
0.304000000000000159,-3.942199326025050077
0.305000000000000160,-4.049680292773035539
0.306000000000000161,-4.154804595698240455
0.307000000000000162,-4.257610359030402414
0.308000000000000163,-4.358130467911214723
0.309000000000000163,-4.456392845634861821
0.310000000000000164,-4.552420736395971446
0.311000000000000165,-4.646232991869264417
0.312000000000000166,-4.737844360050848636
0.313000000000000167,-4.827265774896255301
0.314000000000000168,-4.914504645394876192
0.315000000000000169,-4.999565142823569452
0.316000000000000170,-5.082448485023553175
0.317000000000000171,-5.163153216643495469
0.318000000000000171,-5.241675484388087725
0.319000000000000172,-5.318009306404829495
0.320000000000000173,-5.392146835031552676
0.321000000000000174,-5.464078612214049002
0.322000000000000175,-5.533793816986086966
0.323000000000000176,-5.601280504483334255
0.324000000000000177,-5.666525836038176500
0.325000000000000178,-5.729516299973679949
0.326000000000000179,-5.790237922782983659
0.327000000000000179,-5.848676470443420428
0.328000000000000180,-5.904817639674846852
0.329000000000000181,-5.958647239007335727
0.330000000000000182,-6.010151359575212737
0.331000000000000183,-6.059316535603028520
0.332000000000000184,-6.106129894593334662
0.333000000000000185,-6.150579297267391610
0.334000000000000186,-6.192653467347445151
0.335000000000000187,-6.232342111303491805
0.336000000000000187,-6.269636028218708468
0.337000000000000188,-6.304527209955300471
0.338000000000000189,-6.337008931828118641
0.339000000000000190,-6.367075834015368585
0.340000000000000191,-6.394723993955195418
0.341000000000000192,-6.419950989994445578
0.342000000000000193,-6.442755956570129783
0.343000000000000194,-6.463139631216944458
0.344000000000000195,-6.481104393704077538
0.345000000000000195,-6.496654297613458695
0.346000000000000196,-6.509795094677459204
0.347000000000000197,-6.520534252199293057
0.348000000000000198,-6.528880963882326860
0.349000000000000199,-6.534846154396110940
0.350000000000000200,-6.538442478007505443
0.351000000000000201,-6.539684311604050393
0.352000000000000202,-6.538587742434812000
0.353000000000000203,-6.535170550890771146
0.354000000000000203,-6.529452188642778765
0.355000000000000204,-6.521453752449948738
0.356000000000000205,-6.511197953946011197
0.357000000000000206,-6.498709085704573951
0.358000000000000207,-6.484012983877134317
0.359000000000000208,-6.467136987690501826
0.360000000000000209,-6.448109896082087289
0.361000000000000210,-6.426961921743268746
0.362000000000000210,-6.403724642832342440
0.363000000000000211,-6.378430952609637217
0.364000000000000212,-6.351115007238311350
0.365000000000000213,-6.321812171984857898
0.366000000000000214,-6.290558966044093481
0.367000000000000215,-6.257393006203787245
0.368000000000000216,-6.222352949554674773
0.369000000000000217,-6.185478435441892131
0.370000000000000218,-6.146810026844621966
0.371000000000000218,-6.106389151360995804
0.372000000000000219,-6.064258041966300361
0.373000000000000220,-6.020459677703083656
0.374000000000000221,-5.975037724452811894
0.375000000000000222,-5.928036475929659765
0.376000000000000223,-5.879500795028536508
0.377000000000000224,-5.829476055650689936
0.378000000000000225,-5.778008085121944859
0.379000000000000226,-5.725143107310563195
0.380000000000000226,-5.670927686543921098
0.381000000000000227,-5.615408672415187041
0.382000000000000228,-5.558633145564322753
0.383000000000000229,-5.500648364510067445
0.384000000000000230,-5.441501713602933776
0.385000000000000231,-5.381240652162623483
0.386000000000000232,-5.319912664856635942
0.387000000000000233,-5.257565213371039547
0.388000000000000234,-5.194245689418124812
0.389000000000000234,-5.130001369120493315
0.390000000000000235,-5.064879368805265791
0.391000000000000236,-4.998926602237446559
0.392000000000000237,-4.932189739316248378
0.393000000000000238,-4.864715166253881229
0.394000000000000239,-4.796548947251591422
0.395000000000000240,-4.727736787683967989
0.396000000000000241,-4.658323998798326038
0.397000000000000242,-4.588355463932402678
0.398000000000000242,-4.517875606250230547
0.399000000000000243,-4.446928357992644187
0.400000000000000244,-4.375557131235894737
0.401000000000000245,-4.303804790149131421
0.402000000000000246,-4.231713624738667079
0.403000000000000247,-4.159325326064576167
0.404000000000000248,-4.086680962913026960
0.405000000000000249,-4.013820959905447516
0.406000000000000250,-3.940785077023810423
0.407000000000000250,-3.867612390529625799
0.408000000000000251,-3.794341275252434365
0.409000000000000252,-3.721009388222382253
0.410000000000000253,-3.647653653619909786
0.411000000000000254,-3.574310249014617025
0.412000000000000255,-3.501014592864164054
0.413000000000000256,-3.427801333243284176
0.414000000000000257,-3.354704337772020928
0.415000000000000258,-3.281756684711830907
0.416000000000000258,-3.208990655197394126
0.417000000000000259,-3.136437726571641882
0.418000000000000260,-3.064128566791081365
0.419000000000000261,-2.992093029868166720
0.420000000000000262,-2.920360152317324154
0.421000000000000263,-2.848958150571070824
0.422000000000000264,-2.777914419332621954
0.423000000000000265,-2.707255530831317980
0.424000000000000266,-2.637007234947557954
0.425000000000000266,-2.567194460173607862
0.426000000000000267,-2.497841315377363536
0.427000000000000268,-2.428971092335973303
0.428000000000000269,-2.360606269006800595
0.429000000000000270,-2.292768513503501637
0.430000000000000271,-2.225478688745189615
0.431000000000000272,-2.158756857747422320
0.432000000000000273,-2.092622289523887513
0.433000000000000274,-2.027093465568406305
0.434000000000000274,-1.962188086887155736
0.435000000000000275,-1.897923081551824653
0.436000000000000276,-1.834314612744786022
0.437000000000000277,-1.771378087267984069
0.438000000000000278,-1.709128164487980994
0.439000000000000279,-1.647578765690091318
0.440000000000000280,-1.586743083815187250
0.441000000000000281,-1.526633593553478052
0.442000000000000282,-1.467262061770214787
0.443000000000000282,-1.408639558238794054
0.444000000000000283,-1.350776466657659824
0.445000000000000284,-1.293682495927873877
0.446000000000000285,-1.237366691668868146
0.447000000000000286,-1.181837447950930597
0.448000000000000287,-1.127102519223079025
0.449000000000000288,-1.073169032416258162
0.450000000000000289,-1.020043499201962245
0.451000000000000290,-0.967731828387419113
0.452000000000000290,-0.916239338428944672
0.453000000000000291,-0.865570770045765103
0.454000000000000292,-0.815730298917356267
0.455000000000000293,-0.766721548447812706
0.456000000000000294,-0.718547602581611211
0.457000000000000295,-0.671211018655597513
0.458000000000000296,-0.624713840272700827
0.459000000000000297,-0.579057610183535632
0.460000000000000298,-0.534243383162540497
0.461000000000000298,-0.490271738866047913
0.462000000000000299,-0.447142794660084331
0.463000000000000300,-0.404856218406379587
0.464000000000000301,-0.363411241195597756
0.465000000000000302,-0.322806670017364183
0.466000000000000303,-0.283040900357047265
0.467000000000000304,-0.244111928710008141
0.468000000000000305,-0.206017365004373121
0.469000000000000306,-0.168754444923858438
0.470000000000000306,-0.132320042122826997
0.471000000000000307,-0.096710680325962334
0.472000000000000308,-0.061922545305691280
0.473000000000000309,-0.027951496730642251
0.474000000000000310,0.005206920120886799
0.475000000000000311,0.037557462788327528
0.476000000000000312,0.069105180202239019
0.477000000000000313,0.099855401408904504
0.478000000000000314,0.129813724450482754
0.479000000000000314,0.158986005405007041
0.480000000000000315,0.187378347590112598
0.481000000000000316,0.214997090933928575
0.482000000000000317,0.241848801516401146
0.483000000000000318,0.267940261283853842
0.484000000000000319,0.293278457939413151
0.485000000000000320,0.317870575011498013
0.486000000000000321,0.341723982102449864
0.487000000000000322,0.364846225318953055
0.488000000000000322,0.387245017885793408
0.489000000000000323,0.408928230944050342
0.490000000000000324,0.429903884534829583
0.491000000000000325,0.450180138769179006
0.492000000000000326,0.469765285184807702
0.493000000000000327,0.488667738289854270
0.494000000000000328,0.506896027293860518
0.495000000000000329,0.524458788025908840
0.496000000000000330,0.541364755039623002
0.497000000000000330,0.557622753904659652
0.498000000000000331,0.573241693684095610
0.499000000000000332,0.588230559596949920
0.500000000000000333,0.602598405864986808
0.501000000000000334,0.616354348742786939
0.502000000000000335,0.629507559729884036
0.503000000000000336,0.642067258963735954
0.504000000000000337,0.654042708792126781
0.505000000000000338,0.665443207523475855
0.506000000000000338,0.676278083353460291
0.507000000000000339,0.686556688466267162
0.508000000000000340,0.696288393308651443
0.509000000000000341,0.705482581034928224
0.510000000000000342,0.714148642120962185
0.511000000000000343,0.722295969145109629
0.512000000000000344,0.729933951734034303
0.513000000000000345,0.737071971671216963
0.514000000000000346,0.743719398165962775
0.515000000000000346,0.749885583280644363
0.516000000000000347,0.755579857513872577
0.517000000000000348,0.760811525537195110
0.518000000000000349,0.765589862083015049
0.519000000000000350,0.769924107981229011
0.520000000000000351,0.773823466342156596
0.521000000000000352,0.777297098883289128
0.522000000000000353,0.780354122397329264
0.523000000000000353,0.783003605359033683
0.524000000000000354,0.785254564668273147
0.525000000000000355,0.787115962526797497
0.526000000000000356,0.788596703446139413
0.527000000000000357,0.789705631384051254
0.528000000000000358,0.790451527006982291
0.529000000000000359,0.790843105075927033
0.530000000000000360,0.790889011953171073
0.531000000000000361,0.790597823227288665
0.532000000000000361,0.789978041453901936
0.533000000000000362,0.789038094009572477
0.534000000000000363,0.787786331056373856
0.535000000000000364,0.786231023614542113
0.536000000000000365,0.784380361740728227
0.537000000000000366,0.782242452809345012
0.538000000000000367,0.779825319894535740
0.539000000000000368,0.777136900250272822
0.540000000000000369,0.774185043886199020
0.541000000000000369,0.770977512236729390
0.542000000000000370,0.767521976921063720
0.543000000000000371,0.763826018591728939
0.544000000000000372,0.759897125869271939
0.545000000000000373,0.755742694360824752
0.546000000000000374,0.751370025760228821
0.547000000000000375,0.746786327027446628
0.548000000000000376,0.741998709645025900
0.549000000000000377,0.737014188949421500
0.550000000000000377,0.731839683534990959
0.551000000000000378,0.726482014728493164
0.552000000000000379,0.720947906132028082
0.553000000000000380,0.715243983232264569
0.554000000000000381,0.709376773073970401
0.555000000000000382,0.703352703995775874
0.556000000000000383,0.697178105426216166
0.557000000000000384,0.690859207738073744
0.558000000000000385,0.684402142159127314
0.559000000000000385,0.677812940737388847
0.560000000000000386,0.671097536359014035
0.561000000000000387,0.664261762817027313
0.562000000000000388,0.657311354929106306
0.563000000000000389,0.650251948702650573
0.564000000000000390,0.643089081545440422
0.565000000000000391,0.635828192520176860
0.566000000000000392,0.628474622641274849
0.567000000000000393,0.621033615212271961
0.568000000000000393,0.613510316202290795
0.569000000000000394,0.605909774659974643
0.570000000000000395,0.598236943163425794
0.571000000000000396,0.590496678304615719
0.572000000000000397,0.582693741206827154
0.573000000000000398,0.574832798073752982
0.574000000000000399,0.566918420768784737
0.575000000000000400,0.558955087423219532
0.576000000000000401,0.550947183072010516
0.577000000000000401,0.542899000315781199
0.578000000000000402,0.534814740007842682
0.579000000000000403,0.526698511965018934
0.580000000000000404,0.518554335701006286
0.581000000000000405,0.510386141181182418
0.582000000000000406,0.502197769597667376
0.583000000000000407,0.493992974163539156
0.584000000000000408,0.485775420925156909
0.585000000000000409,0.477548689591495101
0.586000000000000409,0.469316274379477871
0.587000000000000410,0.461081584874339367
0.588000000000000411,0.452847946904016752
0.589000000000000412,0.444618603426634063
0.590000000000000413,0.436396715430188209
0.591000000000000414,0.428185362843513939
0.592000000000000415,0.419987545457688238
0.593000000000000416,0.411806183857029828
0.594000000000000417,0.403644120358873093
0.595000000000000417,0.395504119961338163
0.596000000000000418,0.387388871298328996
0.597000000000000419,0.379300987601017603
0.598000000000000420,0.371243007665094216
0.599000000000000421,0.363217396823095506
0.600000000000000422,0.355226547921126068
0.601000000000000423,0.347272782299341443
0.602000000000000424,0.339358350775539330
0.603000000000000425,0.331485434631264175
0.604000000000000425,0.323656146599839212
0.605000000000000426,0.315872531855763250
0.606000000000000427,0.308136569004876182
0.607000000000000428,0.300450171074877925
0.608000000000000429,0.292815186505510749
0.609000000000000430,0.285233400138138915
0.610000000000000431,0.277706534204031352
0.611000000000000432,0.270236249311046173
0.612000000000000433,0.262824145428233291
0.613000000000000433,0.255471762867882091
0.614000000000000434,0.248180583264696664
0.615000000000000435,0.240952030551653179
0.616000000000000436,0.233787471932179580
0.617000000000000437,0.226688218848297041
