# CNT15-NH3+-2_CS-61707-AC
# h[nm],U(h)[kJ/mol]
0.200000000000000011,124.817848958982239083
0.201000000000000012,123.965315201761953290
0.202000000000000013,122.375676563996464097
0.203000000000000014,120.492895592925577830
0.204000000000000015,118.555610945199461526
0.205000000000000016,116.675803876450160601
0.206000000000000016,114.891377055831441112
0.207000000000000017,113.200382679111015705
0.208000000000000018,111.582532871583453016
0.209000000000000019,110.012056293743995639
0.210000000000000020,108.464801598907072844
0.211000000000000021,106.921631784389276731
0.212000000000000022,105.369527567322705863
0.213000000000000023,103.801364690747590203
0.214000000000000024,102.215005368926398432
0.215000000000000024,100.612114428321561377
0.216000000000000025,98.996950806887028307
0.217000000000000026,97.375275935216308199
0.218000000000000027,95.753447931982151431
0.219000000000000028,94.137723947498400889
0.220000000000000029,92.533764595655938479
0.221000000000000030,90.946318527738384319
0.222000000000000031,89.379057692695411674
0.223000000000000032,87.834531740174639936
0.224000000000000032,86.314211267270280814
0.225000000000000033,84.818592739994798535
0.226000000000000034,83.347341955554639981
0.227000000000000035,81.899457208539416797
0.228000000000000036,80.473437480375224595
0.229000000000000037,79.067444752632923155
0.230000000000000038,77.679452832472449586
0.231000000000000039,76.307377831320820860
0.232000000000000040,74.949187664038248613
0.233000000000000040,73.602989673417553718
0.234000000000000041,72.267096788193455836
0.235000000000000042,70.940073553003372808
0.236000000000000043,69.620763987896367553
0.237000000000000044,68.308303601910566272
0.238000000000000045,67.002118053486995564
0.239000000000000046,65.701910967211944126
0.240000000000000047,64.407643321934514802
0.241000000000000048,63.119506653437589705
0.242000000000000048,61.837892093076540334
0.243000000000000049,60.563357014095174691
0.244000000000000050,59.296590796743920748
0.245000000000000051,58.038380964698376374
0.246000000000000052,56.789580697951315358
0.247000000000000053,55.551078497732078176
0.248000000000000054,54.323770571182855349
0.249000000000000055,53.108536319707113194
0.250000000000000056,51.906217155900741034
0.251000000000000056,50.717598739490853177
0.252000000000000057,49.543396611691143505
0.253000000000000058,48.384245118235853056
0.254000000000000059,47.240689442144251586
0.255000000000000060,46.113180515873125387
0.256000000000000061,45.002072546744521730
0.257000000000000062,43.907622867219131990
0.258000000000000063,42.829993810636800333
0.259000000000000064,41.769256311506374857
0.260000000000000064,40.725394935498862026
0.261000000000000065,39.698314056359507163
0.262000000000000066,38.687844913556460824
0.263000000000000067,37.693753304373345259
0.264000000000000068,36.715747686237953928
0.265000000000000069,35.753487488440448772
0.266000000000000070,34.806591456268066054
0.267000000000000071,33.874645874338831675
0.268000000000000071,32.957212539056918388
0.269000000000000072,32.053836372246856001
0.270000000000000073,31.164052588861984816
0.271000000000000074,30.287393350997639629
0.272000000000000075,29.423393858135604262
0.273000000000000076,28.571597839530220142
0.274000000000000077,27.731562428890459415
0.275000000000000078,26.902862414033400285
0.276000000000000079,26.085093865029968185
0.277000000000000079,25.277877153602226201
0.278000000000000080,24.480859384259339606
0.279000000000000081,23.693716263972085301
0.280000000000000082,22.916153442202663371
0.281000000000000083,22.147907356937270862
0.282000000000000084,21.388745625136749595
0.283000000000000085,20.638467017839115414
0.284000000000000086,19.896901061129579347
0.285000000000000087,19.163907304453413616
0.286000000000000087,18.439374297380563661
0.287000000000000088,17.723218315040988102
0.288000000000000089,17.015381871122961854
0.289000000000000090,16.315832055645749676
0.290000000000000091,15.624558732759112445
0.291000000000000092,14.941572631649529868
0.292000000000000093,14.266903361310212972
0.293000000000000094,13.600597377508913510
0.294000000000000095,12.942715927812898258
0.295000000000000095,12.293332998040988002
0.296000000000000096,11.652533281046888902
0.297000000000000097,11.020410186320152235
0.298000000000000098,10.397063906548227763
0.299000000000000099,9.782599555032231109
0.300000000000000100,9.177125385707283201
0.301000000000000101,8.580751105494496045
0.302000000000000102,7.993586286818396225
0.303000000000000103,7.415738886360403903
0.304000000000000103,6.847313874495941199
0.305000000000000104,6.288411978374311317
0.306000000000000105,5.739128540250278299
0.307000000000000106,5.199552491459911607
0.308000000000000107,4.669765441347211166
0.309000000000000108,4.149840879488868595
0.310000000000000109,3.639843488724213927
0.311000000000000110,3.139828565774503755
0.312000000000000111,2.649841545616683725
0.313000000000000111,2.169917625263122041
0.314000000000000112,1.700081482176165837
0.315000000000000113,1.240347082212134300
0.316000000000000114,0.790717571734774971
0.317000000000000115,0.351185248356655488
0.318000000000000116,-0.078268395348808778
0.319000000000000117,-0.497672560877752634
0.320000000000000118,-0.907066971284597123
0.321000000000000119,-1.306501642801249252
0.322000000000000119,-1.696036606172874217
0.323000000000000120,-2.075741583174817606
0.324000000000000121,-2.445695623623800330
0.325000000000000122,-2.805986708017377040
0.326000000000000123,-3.156711320736046211
0.327000000000000124,-3.497973998524922301
0.328000000000000125,-3.829886858740378042
0.329000000000000126,-4.152569111604911711
0.330000000000000127,-4.466146560464620663
0.331000000000000127,-4.770751093789042940
0.332000000000000128,-5.066520172397352972
0.333000000000000129,-5.353596315138615225
0.334000000000000130,-5.632126585999265522
0.335000000000000131,-5.902262085361142496
0.336000000000000132,-6.164157447886809749
0.337000000000000133,-6.417970349270829544
0.338000000000000134,-6.663861023863816513
0.339000000000000135,-6.901991794951877424
0.340000000000000135,-7.132526619261260414
0.341000000000000136,-7.355630647051985882
0.342000000000000137,-7.571469798970419163
0.343000000000000138,-7.780210360645769541
0.344000000000000139,-7.982018595842471420
0.345000000000000140,-8.177060378816415565
0.346000000000000141,-8.365500846371006105
0.347000000000000142,-8.547504069966720408
0.348000000000000143,-8.723232748106491741
0.349000000000000143,-8.892847919097777165
0.350000000000000144,-9.056508694180942953
0.351000000000000145,-9.214372010911750621
0.352000000000000146,-9.366592406593891695
0.353000000000000147,-9.513321811473820944
0.354000000000000148,-9.654709361336017537
0.355000000000000149,-9.790901229070330558
0.356000000000000150,-9.922040474724729719
0.357000000000000151,-10.048266913505859321
0.358000000000000151,-10.169717001146015178
0.359000000000000152,-10.286523736017759489
0.360000000000000153,-10.398816577346822854
0.361000000000000154,-10.506721378848126847
0.362000000000000155,-10.610360337090700256
0.363000000000000156,-10.709851953882138176
0.364000000000000157,-10.805311011953051548
0.365000000000000158,-10.896848563216934735
0.366000000000000159,-10.984571928877707947
0.367000000000000159,-11.068584710660235970
0.368000000000000160,-11.148986812443011374
0.369000000000000161,-11.225874471580546299
0.370000000000000162,-11.299340299213366023
0.371000000000000163,-11.369473328876214424
0.372000000000000164,-11.436359072729995745
0.373000000000000165,-11.500079584759575368
0.374000000000000166,-11.560713530298064811
0.375000000000000167,-11.618336261257146802
0.376000000000000167,-11.673019896464492007
0.377000000000000168,-11.724833406530436264
0.378000000000000169,-11.773842702688488870
0.379000000000000170,-11.820110729077553557
0.380000000000000171,-11.863697557956800921
0.381000000000000172,-11.904660487368003530
0.382000000000000173,-11.943054140783861072
0.383000000000000174,-11.978930568305022675
0.384000000000000175,-12.012339348991854848
0.385000000000000175,-12.043327693941028755
0.386000000000000176,-12.071940549740364901
0.387000000000000177,-12.098220701958014800
0.388000000000000178,-12.122208878345388072
0.389000000000000179,-12.143943851454647387
0.390000000000000180,-12.163462540393874534
0.391000000000000181,-12.180800111463769397
0.392000000000000182,-12.195990077440185928
0.393000000000000183,-12.209064395286924665
0.394000000000000183,-12.220053562102044964
0.395000000000000184,-12.228986709119670451
0.396000000000000185,-12.235891693606950170
0.397000000000000186,-12.240795188512802127
0.398000000000000187,-12.243722769741570033
0.399000000000000188,-12.244699000940203248
0.400000000000000189,-12.243747515702342099
0.401000000000000190,-12.240891097107041929
0.402000000000000191,-12.236151754523078239
0.403000000000000191,-12.229550797622474434
0.404000000000000192,-12.221108907559024459
0.405000000000000193,-12.210846205278564014
0.406000000000000194,-12.198782316938670434
0.407000000000000195,-12.184936436425171991
0.408000000000000196,-12.169327384962114635
0.409000000000000197,-12.151973667820577418
0.410000000000000198,-12.132893528139851114
0.411000000000000199,-12.112104997881390389
0.412000000000000199,-12.089625945943655694
0.413000000000000200,-12.065474123471364720
0.414000000000000201,-12.039667206399162325
0.415000000000000202,-12.012222835274405597
0.416000000000000203,-11.983158652408933520
0.417000000000000204,-11.952492336413687468
0.418000000000000205,-11.920241634174029599
0.419000000000000206,-11.886424390327047007
0.420000000000000207,-11.851058574304841997
0.421000000000000207,-11.814162305010970755
0.422000000000000208,-11.775753873198683053
0.423000000000000209,-11.735851761622324574
0.424000000000000210,-11.694474663034203132
0.425000000000000211,-11.651641496100713979
0.426000000000000212,-11.607371419312737970
0.427000000000000213,-11.561683842965425839
0.428000000000000214,-11.514598439283656006
0.429000000000000214,-11.466135150769058981
0.430000000000000215,-11.416314196844833617
0.431000000000000216,-11.365156078874372625
0.432000000000000217,-11.312681583629014881
0.433000000000000218,-11.258911785280053763
0.434000000000000219,-11.203868045989130664
0.435000000000000220,-11.147572015170382542
0.436000000000000221,-11.090045627496674996
0.437000000000000222,-11.031311099720985780
0.438000000000000222,-10.971390926383097764
0.439000000000000223,-10.910307874469935996
0.440000000000000224,-10.848084977096954518
0.441000000000000225,-10.784745526275933969
0.442000000000000226,-10.720313064833632666
0.443000000000000227,-10.654811377543271789
0.444000000000000228,-10.588264481530032413
0.445000000000000229,-10.520696616009264091
0.446000000000000230,-10.452132231414717367
0.447000000000000230,-10.382595977972369994
0.448000000000000231,-10.312112693773347161
0.449000000000000232,-10.240707392397654374
0.450000000000000233,-10.168405250138970786
0.451000000000000234,-10.095231592878226579
0.452000000000000235,-10.021211882652576008
0.453000000000000236,-9.946371703963858835
0.454000000000000237,-9.870736749869470472
0.455000000000000238,-9.794332807896084958
0.456000000000000238,-9.717185745815452691
0.457000000000000239,-9.639321497319320642
0.458000000000000240,-9.560766047629019937
0.459000000000000241,-9.481545419073185599
0.460000000000000242,-9.401685656666012747
0.461000000000000243,-9.321212813715904488
0.462000000000000244,-9.240152937493698815
0.463000000000000245,-9.158532054986984861
0.464000000000000246,-9.076376158766652935
0.465000000000000246,-8.993711192989142234
0.466000000000000247,-8.910563039557205300
0.467000000000000248,-8.826957504460024140
0.468000000000000249,-8.742920304312502111
0.469000000000000250,-8.658477053111800714
0.470000000000000251,-8.573653249228181394
0.471000000000000252,-8.488474262645619106
0.472000000000000253,-8.402965322466874554
0.473000000000000254,-8.317151504695813102
0.474000000000000254,-8.231057720309323145
0.475000000000000255,-8.144708703629513380
0.476000000000000256,-8.058129001006079761
0.477000000000000257,-7.971342959817677709
0.478000000000000258,-7.884374717799889076
0.479000000000000259,-7.797248192706805803
0.480000000000000260,-7.709987072312022960
0.481000000000000261,-7.622614804753993667
0.482000000000000262,-7.535154589230063316
0.483000000000000262,-7.447629367042527981
0.484000000000000263,-7.360061812999171948
0.485000000000000264,-7.272474327170419528
0.486000000000000265,-7.184889027004112805
0.487000000000000266,-7.097327739798463320
0.488000000000000267,-7.009811995533199891
0.489000000000000268,-6.922363020058137195
0.490000000000000269,-6.835001728637946528
0.491000000000000270,-6.747748719851474064
0.492000000000000270,-6.660624269843149037
0.493000000000000271,-6.573648326924038443
0.494000000000000272,-6.486840506519219396
0.495000000000000273,-6.400220086457887980
0.496000000000000274,-6.313806002602505352
0.497000000000000275,-6.227616844812423835
0.498000000000000276,-6.141670853237574335
0.499000000000000277,-6.055985914937268788
0.500000000000000222,-5.970579560818807252
0.501000000000000334,-5.885468962890653799
0.502000000000000224,-5.800670931824384091
0.503000000000000336,-5.716201914819422747
0.504000000000000226,-5.632077993764817769
0.505000000000000338,-5.548314883691290333
0.506000000000000227,-5.464927931507796544
0.507000000000000339,-5.381932115015376716
0.508000000000000229,-5.299342042192280111
0.509000000000000341,-5.217171950742957698
0.510000000000000231,-5.135435707904830949
0.511000000000000343,-5.054146810505085519
0.512000000000000233,-4.973318385261259245
0.513000000000000345,-4.892963189317985240
0.514000000000000234,-4.813093611013487205
0.515000000000000346,-4.733721670867959475
0.516000000000000236,-4.654859022787608325
0.517000000000000348,-4.576516955476515491
0.518000000000000238,-4.498706394049917456
0.519000000000000350,-4.421437901841251517
0.520000000000000240,-4.344721682396486706
0.521000000000000352,-4.268567581648420983
0.522000000000000242,-4.192985090264253145
0.523000000000000353,-4.117983346159318714
0.524000000000000243,-4.043571137170499874
0.525000000000000355,-3.969756903882264432
0.526000000000000245,-3.896548742599017512
0.527000000000000357,-3.823954408456766707
0.528000000000000247,-3.751981318668115684
0.529000000000000359,-3.680636555893697981
0.530000000000000249,-3.609926871734175258
0.531000000000000361,-3.539858690336234126
0.532000000000000250,-3.470438112106852380
0.533000000000000362,-3.401670917529436622
0.534000000000000252,-3.333562571076357894
0.535000000000000364,-3.266118225211743997
0.536000000000000254,-3.199342724479261157
0.537000000000000366,-3.133240609668848986
0.538000000000000256,-3.067816122057609896
0.539000000000000368,-3.003073207718874205
0.540000000000000258,-2.939015521894948524
0.541000000000000369,-2.875646433427779591
0.542000000000000259,-2.812969029243320485
0.543000000000000371,-2.750986118884134246
0.544000000000000261,-2.689700239086027622
0.545000000000000373,-2.629113658393854358
0.546000000000000263,-2.569228381812293627
0.547000000000000375,-2.510046155486884256
0.548000000000000265,-2.451568471411770922
0.549000000000000377,-2.393796572159306191
0.550000000000000266,-2.336731455628289211
0.551000000000000378,-2.280373879806457893
0.552000000000000268,-2.224724367543899017
0.553000000000000380,-2.169783211333538908
0.554000000000000270,-2.115550478095494569
0.555000000000000382,-2.062026013961599791
0.556000000000000272,-2.009209449057300478
0.557000000000000384,-1.957100202277327838
0.558000000000000274,-1.905697486052617462
0.559000000000000385,-1.855000311105114763
0.560000000000000275,-1.805007491188128865
0.561000000000000387,-1.755717647809172277
0.562000000000000277,-1.707129214932996630
0.563000000000000389,-1.659240443662183706
0.564000000000000279,-1.612049406893072190
0.565000000000000391,-1.565554003944608086
0.566000000000000281,-1.519751965158119500
0.567000000000000393,-1.474640856465787575
0.568000000000000282,-1.430218083926064088
0.569000000000000394,-1.386480898223859670
0.570000000000000284,-1.343426399134090898
0.571000000000000396,-1.301051539946514568
0.572000000000000286,-1.259353131850630358
0.573000000000000398,-1.218327848278733416
0.574000000000000288,-1.177972229206055488
0.575000000000000400,-1.138282685406387218
0.576000000000000290,-1.099255502662047412
0.577000000000000401,-1.060886845926911848
0.578000000000000291,-1.023172763441489552
0.579000000000000403,-0.986109190798877711
0.580000000000000293,-0.949691954960777074
0.581000000000000405,-0.913916778222452875
0.582000000000000295,-0.878779282126097128
0.583000000000000407,-0.844274991321494861
0.584000000000000297,-0.810399337373578832
0.585000000000000409,-0.777147662516023074
0.586000000000000298,-0.744515223350455502
0.587000000000000410,-0.712497194490607111
0.588000000000000300,-0.681088672151109686
0.589000000000000412,-0.650284677680313172
0.590000000000000302,-0.620080161036988375
0.591000000000000414,-0.590470004210471244
0.592000000000000304,-0.561449024584011025
0.593000000000000416,-0.533011978241103024
0.594000000000000306,-0.505153563214750467
0.595000000000000417,-0.477868422679339933
0.596000000000000307,-0.451151148085236819
0.597000000000000419,-0.424996282235956424
0.598000000000000309,-0.399398322307988829
0.599000000000000421,-0.374351722813206278
0.600000000000000311,-0.349850898504105778
0.601000000000000423,-0.325890227221797280
0.602000000000000313,-0.302464052687112794
0.603000000000000425,-0.279566687234725553
0.604000000000000314,-0.257192414490874321
0.605000000000000426,-0.235335491994505153
0.606000000000000316,-0.213990153762473850
0.607000000000000428,-0.193150612798840049
0.608000000000000318,-0.172811063548761579
0.609000000000000430,-0.152965684297168808
0.610000000000000320,-0.133608639512767247
0.611000000000000432,-0.114734082137574564
0.612000000000000322,-0.096336155822565384
0.613000000000000433,-0.078408997109753423
0.614000000000000323,-0.060946737561206207
0.615000000000000435,-0.043943505835456920
0.616000000000000325,-0.027393429711795925
0.617000000000000437,-0.011290638062921476
0.618000000000000327,0.004370737223456244
0.619000000000000439,0.019596559373660272
0.620000000000000329,0.034392684907056048
0.621000000000000441,0.048764961864545889
0.622000000000000330,0.062719228085993312
0.623000000000000442,0.076261309535947314
0.624000000000000332,0.089397018677121035
0.625000000000000444,0.102132152891006037
0.626000000000000334,0.114472492945030840
0.627000000000000446,0.126423801505650191
0.628000000000000336,0.137991821696745870
0.629000000000000448,0.149182275702713529
0.630000000000000338,0.160000863415594524
0.631000000000000449,0.170453261125648819
0.632000000000000339,0.180545120254714808
0.633000000000000451,0.190282066131695571
0.634000000000000341,0.199669696809558761
0.635000000000000453,0.208713581923171576
0.636000000000000343,0.217419261587376372
0.637000000000000455,0.225792245334579811
0.638000000000000345,0.233838011091247244
0.639000000000000457,0.241562004192693636
0.640000000000000346,0.248969636435402375
0.641000000000000458,0.256066285166362539
0.642000000000000348,0.262857292408647303
0.643000000000000460,0.269347964022685848
0.644000000000000350,0.275543568902504421
0.645000000000000462,0.281449338206345601
0.646000000000000352,0.287070464620981458
0.647000000000000464,0.292412101659141999
0.648000000000000353,0.297479362989308771
0.649000000000000465,0.302277321797391252
0.650000000000000355,0.306811010179508070
0.651000000000000467,0.311085418565366478
0.652000000000000357,0.315105495171522976
0.653000000000000469,0.318876145483975915
0.654000000000000359,0.322402231769428116
0.655000000000000471,0.325688572614668270
0.656000000000000361,0.328739942493374460
0.657000000000000473,0.331561071359859294
0.658000000000000362,0.334156644269043956
0.659000000000000474,0.336531301022183704
0.660000000000000364,0.338689635837660152
0.661000000000000476,0.340636197046350564
