# CNT15-NH3+-2_CS-61591-AC
# h[nm],U(h)[kJ/mol]
0.200000000000000011,113.327153959995172272
0.201000000000000012,111.096237161247088920
0.202000000000000013,109.131091857982823967
0.203000000000000014,107.354037864455150952
0.204000000000000015,105.700141204862887889
0.205000000000000016,104.119009763218940634
0.206000000000000016,102.574247951810235691
0.207000000000000017,101.041685885448032423
0.208000000000000018,99.507099833368798159
0.209000000000000019,97.963863909086782655
0.210000000000000020,96.410784377836620251
0.211000000000000021,94.850242601550604604
0.212000000000000022,93.286692038849167830
0.213000000000000023,91.725505335953158692
0.214000000000000024,90.172139540131240665
0.215000000000000024,88.631573750347186547
0.216000000000000025,87.107969042017344918
0.217000000000000026,85.604501720212397231
0.218000000000000027,84.123325423761272646
0.219000000000000028,82.665623673788246606
0.220000000000000029,81.231721057512046968
0.221000000000000030,79.821227688961855051
0.222000000000000031,78.433197501096216797
0.223000000000000032,77.066286098765829138
0.224000000000000032,75.718898266123034091
0.225000000000000033,74.389318783362597287
0.226000000000000034,73.075823022389300831
0.227000000000000035,71.776765941464745424
0.228000000000000036,70.490649678348432872
0.229000000000000037,69.216171044322706507
0.230000000000000038,67.952250937261865715
0.231000000000000039,66.698048101704102919
0.232000000000000040,65.452959838825165662
0.233000000000000040,64.216612269932369372
0.234000000000000041,62.988842634061654735
0.235000000000000042,61.769675894492444002
0.236000000000000043,60.559297673100196846
0.237000000000000044,59.358025250695312991
0.238000000000000045,58.166278084865403741
0.239000000000000046,56.984549018160670641
0.240000000000000047,55.813377088299020556
0.241000000000000048,54.653322614594458173
0.242000000000000048,53.504945024523919983
0.243000000000000049,52.368783702707219163
0.244000000000000050,51.245341991537785020
0.245000000000000051,50.135074347114098714
0.246000000000000052,49.038376554120269191
0.247000000000000053,47.955578826530782521
0.248000000000000054,46.886941564883002798
0.249000000000000055,45.832653502683875502
0.250000000000000056,44.792831951644060950
0.251000000000000056,43.767524845326846616
0.252000000000000057,42.756714281102148334
0.253000000000000058,41.760321268856991139
0.254000000000000059,40.778211409812556099
0.255000000000000060,39.810201248348860759
0.256000000000000061,38.856065062489697937
0.257000000000000062,37.915541883419180635
0.258000000000000063,36.988342560063180997
0.259000000000000064,36.074156710540449922
0.260000000000000064,35.172659427501017149
0.261000000000000065,34.283517628514196929
0.262000000000000066,33.406395965356196598
0.263000000000000067,32.540962227015519659
0.264000000000000068,31.686892190302113903
0.265000000000000069,30.843873889022745516
0.266000000000000070,30.011611287741470022
0.267000000000000071,29.189827359199352230
0.268000000000000071,28.378266575590213705
0.269000000000000072,27.576696833170348810
0.270000000000000073,26.784910837238431469
0.271000000000000074,26.002726980490631803
0.272000000000000075,25.229989752274356363
0.273000000000000076,24.466569719481974232
0.274000000000000077,23.712363121886170347
0.275000000000000078,22.967291125767314242
0.276000000000000079,22.231298779858370551
0.277000000000000079,21.504353717063320772
0.278000000000000080,20.786444644218807554
0.279000000000000081,20.077579660472174794
0.280000000000000082,19.377784442753018368
0.281000000000000083,18.687100334407411140
0.282000000000000084,18.005582370432883010
0.283000000000000085,17.333297269968710452
0.284000000000000086,16.670321423825026130
0.285000000000000087,16.016738901934612471
0.286000000000000087,15.372639502726062943
0.287000000000000088,14.738116863589500127
0.288000000000000089,14.113266648867867303
0.289000000000000090,13.498184829183589528
0.290000000000000091,12.892966063425182810
0.291000000000000092,12.297702192382905295
0.292000000000000093,11.712480850851870073
0.293000000000000094,11.137384203019344397
0.294000000000000095,10.572487804125193733
0.295000000000000095,10.017859589729926739
0.296000000000000096,9.473558992444250038
0.297000000000000097,8.939636184660420426
0.298000000000000098,8.416131444676095086
0.299000000000000099,7.903074642607106348
0.300000000000000100,7.400484841640436962
0.301000000000000101,6.908370009471582307
0.302000000000000102,6.426726834195854110
0.303000000000000103,5.955540638466404246
0.304000000000000103,5.494785385389249655
0.305000000000000104,5.044423769381815248
0.306000000000000105,4.604407385071058734
0.307000000000000106,4.174676967238827530
0.308000000000000107,3.755162694826692071
0.309000000000000108,3.345784552082809338
0.310000000000000109,2.946452740058423725
0.311000000000000110,2.557068131837943348
0.312000000000000111,2.177522765100760260
0.313000000000000111,1.807700365865307024
0.314000000000000112,1.447476897543592100
0.315000000000000113,1.096721129736254019
0.316000000000000114,0.755295221516239623
0.317000000000000115,0.423055314280242623
0.318000000000000116,0.099852129585384183
0.319000000000000117,-0.214468432268340115
0.320000000000000118,-0.520064696805888182
0.321000000000000119,-0.817098626650501592
0.322000000000000119,-1.105735242721374467
0.323000000000000120,-1.386142058245547481
0.324000000000000121,-1.658488528154900887
0.325000000000000122,-1.922945516129810573
0.326000000000000123,-2.179684781254580095
0.327000000000000124,-2.428878485966534662
0.328000000000000125,-2.670698726711474347
0.329000000000000126,-2.905317088463279074
0.330000000000000127,-3.132904224026585638
0.331000000000000127,-3.353629458816882014
0.332000000000000128,-3.567660421604173848
0.333000000000000129,-3.775162701513117725
0.334000000000000130,-3.976299531394478670
0.335000000000000131,-4.171231497520429876
0.336000000000000132,-4.360116275407218467
0.337000000000000133,-4.543108391435445981
0.338000000000000134,-4.720359009817927110
0.339000000000000135,-4.892015744357380846
0.340000000000000135,-5.058222494343010744
0.341000000000000136,-5.219119303851650571
0.342000000000000137,-5.374842243648944695
0.343000000000000138,-5.525523314825373511
0.344000000000000139,-5.671290373252448447
0.345000000000000140,-5.812267073903353065
0.346000000000000141,-5.948572834050925628
0.347000000000000142,-6.080322814332075332
0.348000000000000143,-6.207627916652005418
0.349000000000000143,-6.330594797892316272
0.350000000000000144,-6.449325898384657307
0.351000000000000145,-6.563919484114286718
0.352000000000000146,-6.674469701626719598
0.353000000000000147,-6.781066644623187756
0.354000000000000148,-6.883796431248159209
0.355000000000000149,-6.982741291092921188
0.356000000000000150,-7.077979660963469755
0.357000000000000151,-7.169586288487876047
0.358000000000000151,-7.257632342667866610
0.359000000000000152,-7.342185530510564995
0.360000000000000153,-7.423310218910022407
0.361000000000000154,-7.501067560981956817
0.362000000000000155,-7.575515626091537058
0.363000000000000156,-7.646709532849888191
0.364000000000000157,-7.714701584392047451
0.365000000000000158,-7.779541405286690470
0.366000000000000159,-7.841276079464610582
0.367000000000000159,-7.899950288590844139
0.368000000000000160,-7.955606450341686120
0.369000000000000161,-8.008284856084744163
0.370000000000000162,-8.058023807495811042
0.371000000000000163,-8.104859751681734892
0.372000000000000164,-8.148827414412721737
0.373000000000000165,-8.189959931101096657
0.374000000000000166,-8.228288975196184296
0.375000000000000167,-8.263844883695997012
0.376000000000000167,-8.296656779507422641
0.377000000000000168,-8.326752690415364810
0.378000000000000169,-8.354159664449360534
0.379000000000000170,-8.378903881463317660
0.380000000000000171,-8.401010760769263896
0.381000000000000172,-8.420505064690592789
0.382000000000000173,-8.437410997923173284
0.383000000000000174,-8.451752302614938372
0.384000000000000175,-8.463552349094735305
0.385000000000000175,-8.472834222200953391
0.386000000000000176,-8.479620803178736566
0.387000000000000177,-8.483934847131104462
0.388000000000000178,-8.485799056026021248
0.389000000000000179,-8.485236147275292851
0.390000000000000180,-8.482268917915556372
0.391000000000000181,-8.476920304433829045
0.392000000000000182,-8.469213438291731677
0.393000000000000183,-8.459171697213065499
0.394000000000000183,-8.446818752309082967
0.395000000000000184,-8.432178611124376388
0.396000000000000185,-8.415275656694186424
0.397000000000000186,-8.396134682710821195
0.398000000000000187,-8.374780924903143742
0.399000000000000188,-8.351240088738347112
0.400000000000000189,-8.325538373559920657
0.401000000000000190,-8.297702493279791369
0.402000000000000191,-8.267759693745819760
0.403000000000000191,-8.235737766908533430
0.404000000000000192,-8.201665061913297805
0.405000000000000193,-8.165570493245351003
0.406000000000000194,-8.127483546056648578
0.407000000000000195,-8.087434278803760535
0.408000000000000196,-8.045453323326281492
0.409000000000000197,-8.001571882495062127
0.410000000000000198,-7.955821725559036217
0.411000000000000199,-7.908235181318046259
0.412000000000000199,-7.858845129248384964
0.413000000000000200,-7.807684988705642759
0.414000000000000201,-7.754788706328052506
0.415000000000000202,-7.700190741761053559
0.416000000000000203,-7.643926051821890333
0.417000000000000204,-7.586030073220195291
0.418000000000000205,-7.526538703948148168
0.419000000000000206,-7.465488283450902429
0.420000000000000207,-7.402915571684753893
0.421000000000000207,-7.338857727168130118
0.422000000000000208,-7.273352284126403333
0.423000000000000209,-7.206437128829236372
0.424000000000000210,-7.138150475215195634
0.425000000000000211,-7.068530839895254658
0.426000000000000212,-6.997617016623590480
0.427000000000000213,-6.925448050320268223
0.428000000000000214,-6.852063210727439291
0.429000000000000214,-6.777501965776866477
0.430000000000000215,-6.701803954743364322
0.431000000000000216,-6.625008961255443474
0.432000000000000217,-6.547156886230721895
0.433000000000000218,-6.468287720800678819
0.434000000000000219,-6.388441519285819048
0.435000000000000220,-6.307658372279190573
0.436000000000000221,-6.225978379892813663
0.437000000000000222,-6.143441625218564184
0.438000000000000222,-6.060088148052011903
0.439000000000000223,-5.975957918924490464
0.440000000000000224,-5.891090813485980959
0.441000000000000225,-5.805526587278169615
0.442000000000000226,-5.719304850934745943
0.443000000000000227,-5.632465045842637075
0.444000000000000228,-5.545046420295822287
0.445000000000000229,-5.457088006170418559
0.446000000000000230,-5.368628596147320131
0.447000000000000230,-5.279706721506483902
0.448000000000000231,-5.190360630514335938
0.449000000000000232,-5.100628267423585882
0.450000000000000233,-5.010547252102984572
0.451000000000000234,-4.920154860311736655
0.452000000000000235,-4.829488004632173315
0.453000000000000236,-4.738583216071527993
0.454000000000000237,-4.647476626342653461
0.455000000000000238,-4.556203950831029914
0.456000000000000238,-4.464800472254388808
0.457000000000000239,-4.373301025019188160
0.458000000000000240,-4.281739980277150082
0.459000000000000241,-4.190151231683055144
0.460000000000000242,-4.098568181854398418
0.461000000000000243,-4.007023729531370648
0.462000000000000244,-3.915550257435329140
0.463000000000000245,-3.824179620821799297
0.464000000000000246,-3.732943136723991362
0.465000000000000246,-3.641871573881013457
0.466000000000000247,-3.550995143344438443
0.467000000000000248,-3.460343489755830948
0.468000000000000249,-3.369945683287252969
0.469000000000000250,-3.279830212235621989
0.470000000000000251,-3.190024976261536249
0.471000000000000252,-3.100557280262108417
0.472000000000000253,-3.011453828867209026
0.473000000000000254,-2.922740721547488985
0.474000000000000254,-2.834443448322511383
0.475000000000000255,-2.746586886056515020
0.476000000000000256,-2.659195295329156217
0.477000000000000257,-2.572292317868196676
0.478000000000000258,-2.485900974530566465
0.479000000000000259,-2.400043663818332895
0.480000000000000260,-2.314742160915512326
0.481000000000000261,-2.230017617231609073
0.482000000000000262,-2.145890560437686112
0.483000000000000262,-2.062380894980467172
0.484000000000000263,-1.979507903059912532
0.485000000000000264,-1.897290246055757690
0.486000000000000265,-1.815745966388266242
0.487000000000000266,-1.734892489798561810
0.488000000000000267,-1.654746628033851197
0.489000000000000268,-1.575324581922946887
0.490000000000000269,-1.496641944827370674
0.491000000000000270,-1.418713706453696322
0.492000000000000270,-1.341554257012479434
0.493000000000000271,-1.265177391709638943
0.494000000000000272,-1.189596315556021189
0.495000000000000273,-1.114823648480956386
0.496000000000000274,-1.040871430736197478
0.497000000000000275,-0.967751128576180619
0.498000000000000276,-0.895473640201286281
0.499000000000000277,-0.824049301950671165
0.500000000000000222,-0.753487894731431629
0.501000000000000334,-0.683798650671312735
0.502000000000000224,-0.614990259982180598
0.503000000000000336,-0.547070878021654883
0.504000000000000226,-0.480048132540945638
0.505000000000000338,-0.413929131106473058
0.506000000000000227,-0.348720468684037166
0.507000000000000339,-0.284428235373483107
0.508000000000000229,-0.221058024283146359
0.509000000000000341,-0.158614939532611715
0.510000000000000231,-0.097103604373619617
0.511000000000000343,-0.036528169418092352
0.512000000000000233,0.023107679036354765
0.513000000000000345,0.081800710593768450
0.514000000000000234,0.139548142269225212
0.515000000000000346,0.196347629930137074
0.516000000000000236,0.252197259677987784
0.517000000000000348,0.307095539179780552
0.518000000000000238,0.361041388957380804
0.519000000000000350,0.414034133643324587
0.520000000000000240,0.466073493210808987
0.521000000000000352,0.517159574185798165
0.522000000000000242,0.567292860848572777
0.523000000000000353,0.616474206432063743
0.524000000000000243,0.664704824323744559
0.525000000000000355,0.711986279277947220
0.526000000000000245,0.758320478644823104
0.527000000000000357,0.803709663622408144
0.528000000000000247,0.848156400537391497
0.529000000000000359,0.891663572160624640
0.530000000000000249,0.934234369062521663
0.531000000000000361,0.975872281013803522
0.532000000000000250,1.016581088436371072
0.533000000000000362,1.056364853909280255
0.534000000000000252,1.095227913734136305
0.535000000000000364,1.133174869564425036
0.536000000000000254,1.170210580102678311
0.537000000000000366,1.206340152869640692
0.538000000000000256,1.241568936048789373
0.539000000000000368,1.275902510410063639
0.540000000000000258,1.309346681315728400
0.541000000000000369,1.341907470811859238
0.542000000000000259,1.373591109807988042
0.543000000000000371,1.404404030347972121
0.544000000000000261,1.434352857974430240
0.545000000000000373,1.463444404189242931
0.546000000000000263,1.491685659012268683
0.547000000000000375,1.519083783640471363
0.548000000000000265,1.545646103209107780
0.549000000000000377,1.571380099657042617
0.550000000000000266,1.596293404697504581
0.551000000000000378,1.620393792895925333
0.552000000000000268,1.643689174856091118
0.553000000000000380,1.666187590515824102
0.554000000000000270,1.687897202553186649
0.555000000000000382,1.708826289904248341
0.556000000000000272,1.728983241393042380
0.557000000000000384,1.748376549474599972
0.558000000000000274,1.767014804091422864
0.559000000000000385,1.784906686644048834
0.560000000000000275,1.802060964075890670
0.561000000000000387,1.818486483072728976
0.562000000000000277,1.834192164376959422
0.563000000000000389,1.849186997216649475
0.564000000000000279,1.863480033849375328
0.565000000000000391,1.877080384220759068
0.566000000000000281,1.889997210737465849
0.567000000000000393,1.902239723154400153
0.568000000000000282,1.913817173575720121
0.569000000000000394,1.924738851569309572
0.570000000000000284,1.935014079394126396
0.571000000000000396,1.944652207339936156
0.572000000000000286,1.953662609178719034
0.573000000000000398,1.962054677727196772
0.574000000000000288,1.969837820519616312
0.575000000000000400,1.977021455590005417
0.576000000000000290,1.983615007363157989
0.577000000000000401,1.989627902653321900
0.578000000000000291,1.995069566769718694
0.579000000000000403,1.999949419727916622
0.580000000000000293,2.004276872565993628
0.581000000000000405,2.008061323764443351
0.582000000000000295,2.011312155768746557
0.583000000000000407,2.014038731613432276
0.584000000000000297,2.016250391646532414
0.585000000000000409,2.017956450353133313
0.586000000000000298,2.019166193276948018
0.587000000000000410,2.019888874038501481
0.588000000000000300,2.020133711448814484
0.589000000000000412,2.019909886717199399
0.590000000000000302,2.019226540751925647
0.591000000000000414,2.018092771552326248
0.592000000000000304,2.016517631691186807
0.593000000000000416,2.014510125885888403
0.594000000000000306,2.012079208657012064
0.595000000000000417,2.009233782073054808
0.596000000000000307,2.005982693579858811
0.597000000000000419,2.002334733913296638
0.598000000000000309,1.998298635093895825
0.599000000000000421,1.993883068502003253
0.600000000000000311,1.989096643031987854
0.601000000000000423,1.983947903324179141
0.602000000000000313,1.978445328073050735
0.603000000000000425,1.972597328410321982
0.604000000000000314,1.966412246361452176
0.605000000000000426,1.959898353374231572
0.606000000000000316,1.953063848918004553
0.607000000000000428,1.945916859152115208
0.608000000000000318,1.938465435662231062
0.609000000000000430,1.930717554263073010
0.610000000000000320,1.922681113866267166
0.611000000000000432,1.914363935411814266
0.612000000000000322,1.905773760861963151
0.613000000000000433,1.896918252255954895
0.614000000000000323,1.887804990824434315
0.615000000000000435,1.878441476162063140
0.616000000000000325,1.868835125457121382
0.617000000000000437,1.858993272776655825
0.618000000000000327,1.848923168405959050
0.619000000000000439,1.838631978241025866
0.620000000000000329,1.828126783232737251
0.621000000000000441,1.817414578881443532
0.622000000000000330,1.806502274780775297
0.623000000000000442,1.795396694209321353
0.624000000000000332,1.784104573769079494
0.625000000000000444,1.772632563069290512
0.626000000000000334,1.760987224454649391
0.627000000000000446,1.749175032776508543
0.628000000000000336,1.737202375206061244
0.629000000000000448,1.725075551088231407
0.630000000000000338,1.712800771835216507
0.631000000000000449,1.700384160858447569
0.632000000000000339,1.687831753538009183
0.633000000000000451,1.675149497228236140
0.634000000000000341,1.662343251298605384
0.635000000000000453,1.649418787208643877
0.636000000000000343,1.636381788616064537
0.637000000000000455,1.623237851516807995
0.638000000000000345,1.609992484416247649
0.639000000000000457,1.596651108530351859
0.640000000000000346,1.583219058015973291
0.641000000000000458,1.569701580229173610
0.642000000000000348,1.556103836010771735
0.643000000000000460,1.542430899998024518
0.644000000000000350,1.528687760961706665
0.645000000000000462,1.514879322167496101
0.646000000000000352,1.501010401760988433
0.647000000000000464,1.487085733175269819
0.648000000000000353,1.473109965560392975
0.649000000000000465,1.459087664233737591
0.650000000000000355,1.445023311150627876
0.651000000000000467,1.430921305394228904
0.652000000000000357,1.416785963684078942
0.653000000000000469,1.402621520902381125
0.654000000000000359,1.388432130637396567
0.655000000000000471,1.374221865743122661
0.656000000000000361,1.359994718914597112
0.657000000000000473,1.345754603278057848
0.658000000000000362,1.331505352995341562
0.659000000000000474,1.317250723881787433
0.660000000000000364,1.302994394037024106
0.661000000000000476,1.288739964487934042
0.662000000000000366,1.274490959843284088
0.663000000000000478,1.260250828959238900
0.664000000000000368,1.246022945615336663
0.665000000000000480,1.231810609200162165
0.666000000000000369,1.217617045406313325
