# CNT15-NH3+-2_CS-311940-AC
# h[nm],U(h)[kJ/mol]
0.149999999999999994,111.700180162317195709
0.150999999999999995,109.730721207221904479
0.151999999999999996,107.963267849604903859
0.152999999999999997,106.271159553853934199
0.153999999999999998,104.596675824162730351
0.154999999999999999,102.919556472342790698
0.156000000000000000,101.237980171604505131
0.157000000000000001,99.557614679145984837
0.158000000000000002,97.885754980406289860
0.159000000000000002,96.228554551923863869
0.160000000000000003,94.590043888966306440
0.161000000000000004,92.972103886297517761
0.162000000000000005,91.374881793048686518
0.163000000000000006,89.797349722329045107
0.164000000000000007,88.237843002436520123
0.165000000000000008,86.694501645616810492
0.166000000000000009,85.165589683627089812
0.167000000000000010,83.649695884339180907
0.168000000000000010,82.145833609131528874
0.169000000000000011,80.653462887532242576
0.170000000000000012,79.172457917566845254
0.171000000000000013,77.703040594542841291
0.172000000000000014,76.245696875875296428
0.173000000000000015,74.801088740838096669
0.174000000000000016,73.369970728654806180
0.175000000000000017,71.953116796973375813
0.176000000000000018,70.551260629442552386
0.177000000000000018,69.165050530345340007
0.178000000000000019,67.795018616167268988
0.179000000000000020,66.441563063461018146
0.180000000000000021,65.104941607319545938
0.181000000000000022,63.785274216807920311
0.182000000000000023,62.482552823969413680
0.183000000000000024,61.196656084657547581
0.184000000000000025,59.927367348120114343
0.185000000000000026,58.674394265478348132
0.186000000000000026,57.437388743047620210
0.187000000000000027,56.215966221830285576
0.188000000000000028,55.009723523836768777
0.189000000000000029,53.818254739345334769
0.190000000000000030,52.641164831474767993
0.191000000000000031,51.478080803526140130
0.192000000000000032,50.328660410830593719
0.193000000000000033,49.192598504296540796
0.194000000000000034,48.069631170459970804
0.195000000000000034,46.959537886104961046
0.196000000000000035,45.862141938143459186
0.197000000000000036,44.777309375071666864
0.198000000000000037,43.704946758395813333
0.199000000000000038,42.644997974073000080
0.200000000000000039,41.597440348003772215
0.201000000000000040,40.562280288317097643
0.202000000000000041,39.539548652594660894
0.203000000000000042,38.529296011918816589
0.204000000000000042,37.531587956984857612
0.205000000000000043,36.546500565493950319
0.206000000000000044,35.574116125367751806
0.207000000000000045,34.614519185519107225
0.208000000000000046,33.667792985303954367
0.209000000000000047,32.734016295548819642
0.210000000000000048,31.813260688258857556
0.211000000000000049,30.905588238733436413
0.212000000000000050,30.011049652748141625
0.213000000000000050,29.129682802560722621
0.214000000000000051,28.261511648577105404
0.215000000000000052,27.406545518376713488
0.216000000000000053,26.564778711233678621
0.217000000000000054,25.736190394072458787
0.218000000000000055,24.920744753760562418
0.219000000000000056,24.118391370577036525
0.220000000000000057,23.329065778418886623
0.221000000000000058,22.552690178664693832
0.222000000000000058,21.789174276448196821
0.223000000000000059,21.038416210286225549
0.224000000000000060,20.300303548434289524
0.225000000000000061,19.574714327918364631
0.226000000000000062,18.861518114829799231
0.227000000000000063,18.160577067105073468
0.228000000000000064,17.471746983590929148
0.229000000000000065,16.794878325672186747
0.230000000000000066,16.129817200086218776
0.231000000000000066,15.476406293736982178
0.232000000000000067,14.834485753339416547
0.233000000000000068,14.203894004561025355
0.234000000000000069,13.584468506977753322
0.235000000000000070,12.976046442626511634
0.236000000000000071,12.378465337220733389
0.237000000000000072,11.791563614203827370
0.238000000000000073,11.215181082758750364
0.239000000000000073,10.649159361680542446
0.240000000000000074,10.093342241660812064
0.241000000000000075,9.547575989046455547
0.242000000000000076,9.011709594526520206
0.243000000000000077,8.485594970486143751
0.244000000000000078,7.969087100956826930
0.245000000000000079,7.462044148198321736
0.246000000000000080,6.964327519982833614
0.247000000000000081,6.475801901623552403
0.248000000000000081,5.996335256711223138
0.249000000000000082,5.525798800399865485
0.250000000000000111,5.064066948925656675
0.251000000000000112,4.611017248859250905
0.252000000000000113,4.166530289385740993
0.253000000000000114,3.730489600688635221
0.254000000000000115,3.302781541283483335
0.255000000000000115,2.883295176913853730
0.256000000000000116,2.471922153386597820
0.257000000000000117,2.068556565490327959
0.258000000000000118,1.673094823913466644
0.259000000000000119,1.285435521856983732
0.260000000000000120,0.905479302824961585
0.261000000000000121,0.533128730875270906
0.262000000000000122,0.168288164422056352
0.263000000000000123,-0.189136365495316483
0.264000000000000123,-0.539237271727745826
0.265000000000000124,-0.882105521718794305
0.266000000000000125,-1.217830741935846284
0.267000000000000126,-1.546501315697667689
0.268000000000000127,-1.868204474180271246
0.269000000000000128,-2.183026380483669815
0.270000000000000129,-2.491052206732236929
0.271000000000000130,-2.792366204260063434
0.272000000000000131,-3.087051767000385638
0.273000000000000131,-3.375191488256669370
0.274000000000000132,-3.656867211081499480
0.275000000000000133,-3.932160072530142436
0.276000000000000134,-4.201150542088212703
0.277000000000000135,-4.463918454597684438
0.278000000000000136,-4.720543038025148519
0.279000000000000137,-4.971102936428797747
0.280000000000000138,-5.215676228488198340
0.281000000000000139,-5.454340441964566466
0.282000000000000139,-5.687172564457762647
0.283000000000000140,-5.914249050822086851
0.284000000000000141,-6.135645827595078927
0.285000000000000142,-6.351438294783581462
0.286000000000000143,-6.561701325338812119
0.287000000000000144,-6.766509262637986133
0.288000000000000145,-6.965935916274913708
0.289000000000000146,-7.160054556444514162
0.290000000000000147,-7.348937907189670327
0.291000000000000147,-7.532658138760012889
0.292000000000000148,-7.711286859314651743
0.293000000000000149,-7.884895106181740054
0.294000000000000150,-8.053553336870090007
0.295000000000000151,-8.217331420009520215
0.296000000000000152,-8.376298626379190537
0.297000000000000153,-8.530523620165778809
0.298000000000000154,-8.680074450576952927
0.299000000000000155,-8.825018543919401992
0.300000000000000155,-8.965422696235748390
0.301000000000000156,-9.101353066579868312
0.302000000000000157,-9.232875170997006720
0.303000000000000158,-9.360053877261776734
0.304000000000000159,-9.482953400415707890
0.305000000000000160,-9.601637299134463177
0.306000000000000161,-9.716168472945060586
0.307000000000000162,-9.826609160303828361
0.308000000000000163,-9.933020937537360595
0.309000000000000163,-10.035464718640957571
0.310000000000000164,-10.134000755922345505
0.311000000000000165,-10.228688641471865850
0.312000000000000166,-10.319587309435318545
0.313000000000000167,-10.406755039060650248
0.314000000000000168,-10.490249458485495282
0.315000000000000169,-10.570127549229317410
0.316000000000000170,-10.646445651350941120
0.317000000000000171,-10.719259469229728055
0.318000000000000171,-10.788624077926950662
0.319000000000000172,-10.854593930082746311
0.320000000000000173,-10.917222863302590952
0.321000000000000174,-10.976564107987162089
0.322000000000000175,-11.032670295559046991
0.323000000000000176,-11.085593467039993598
0.324000000000000177,-11.135385081932813733
0.325000000000000178,-11.182096027362685930
0.326000000000000179,-11.225776627433859289
0.327000000000000179,-11.266476652758518284
0.328000000000000180,-11.304245330116144075
0.329000000000000181,-11.339131352203363434
0.330000000000000182,-11.371182887435400843
0.331000000000000183,-11.400447589762675804
0.332000000000000184,-11.426972608467320214
0.333000000000000185,-11.450804597906644844
0.334000000000000186,-11.471989727172466900
0.335000000000000187,-11.490573689637116672
0.336000000000000187,-11.506601712359206147
0.337000000000000188,-11.520118565323819837
0.338000000000000189,-11.531168570494340742
0.339000000000000190,-11.539795610654863367
0.340000000000000191,-11.546043138023911467
0.341000000000000192,-11.549954182622700571
0.342000000000000193,-11.551571360382464349
0.343000000000000194,-11.550936880977797472
0.344000000000000195,-11.548092555374108059
0.345000000000000195,-11.543079803079853818
0.346000000000000196,-11.535939659095060250
0.347000000000000197,-11.526712780549836168
0.348000000000000198,-11.515439453027919825
0.349000000000000199,-11.502159596571619460
0.350000000000000200,-11.486912771366302621
0.351000000000000201,-11.469738183103409312
0.352000000000000202,-11.450674688022566272
0.353000000000000203,-11.429760797634441971
0.354000000000000203,-11.407034683127074359
0.355000000000000204,-11.382534179459218748
0.356000000000000205,-11.356296789145616799
0.357000000000000206,-11.328359685739631146
0.358000000000000207,-11.298759717019416726
0.359000000000000208,-11.267533407884894103
0.360000000000000209,-11.234716962973113397
0.361000000000000210,-11.200346269000233335
0.362000000000000210,-11.164456896839062949
0.363000000000000211,-11.127084103341244870
0.364000000000000212,-11.088262832913956757
0.365000000000000213,-11.048027718860957691
0.366000000000000214,-11.006413084498413824
0.367000000000000215,-10.963452944055905647
0.368000000000000216,-10.919181003373527261
0.369000000000000217,-10.873630660405748216
0.370000000000000218,-10.826835005543207657
0.371000000000000218,-10.778826821763264121
0.372000000000000219,-10.729638584620488473
0.373000000000000220,-10.679302462088084980
0.374000000000000221,-10.627850314261221953
0.375000000000000222,-10.575313692933050902
0.376000000000000223,-10.521723841054381410
0.377000000000000224,-10.467111692087494035
0.378000000000000225,-10.411507869264593040
0.379000000000000226,-10.354942684761162752
0.380000000000000226,-10.297446138794409620
0.381000000000000227,-10.239047918656387637
0.382000000000000228,-10.179777397691676555
0.383000000000000229,-10.119663634228791338
0.384000000000000230,-10.058735370474348514
0.385000000000000231,-9.997021031378947598
0.386000000000000232,-9.934548723483072052
0.387000000000000233,-9.871346233751316035
0.388000000000000234,-9.807441028402692496
0.389000000000000234,-9.742860251744783540
0.390000000000000235,-9.677630725018712354
0.391000000000000236,-9.611778945262098972
0.392000000000000237,-9.545331084196437388
0.393000000000000238,-9.478312987145290691
0.394000000000000239,-9.410750171989105795
0.395000000000000240,-9.342667828162408483
0.396000000000000241,-9.274090815698670554
0.397000000000000242,-9.205043664327687836
0.398000000000000242,-9.135550572630375399
0.399000000000000243,-9.065635407255143718
0.400000000000000244,-8.995321702199950309
0.401000000000000245,-8.924632658163913490
0.402000000000000246,-8.853591141971740797
0.403000000000000247,-8.782219686074256515
0.404000000000000248,-8.710540488127918479
0.405000000000000249,-8.638575410655887410
0.406000000000000250,-8.566345980792972270
0.407000000000000250,-8.493873390116608135
0.408000000000000251,-8.421178494565571881
0.409000000000000252,-8.348281814448142768
0.410000000000000253,-8.275203534540905181
0.411000000000000254,-8.201963504279440542
0.412000000000000255,-8.128581238041665102
0.413000000000000256,-8.055075915524628982
0.414000000000000257,-7.981466382215043787
0.415000000000000258,-7.907771149954055723
0.416000000000000258,-7.834008397596143425
0.417000000000000259,-7.760195971762118283
0.418000000000000260,-7.686351387686021219
0.419000000000000261,-7.612491830155342143
0.420000000000000262,-7.538634154544108235
0.421000000000000263,-7.464794887938059453
0.422000000000000264,-7.390990230350993784
0.423000000000000265,-7.317236056031300784
0.424000000000000266,-7.243547914857652259
0.425000000000000266,-7.169941033822408549
0.426000000000000267,-7.096430318601581355
0.427000000000000268,-7.023030355209755271
0.428000000000000269,-6.949755411738477662
0.429000000000000270,-6.876619440176521714
0.430000000000000271,-6.803636078310167257
0.431000000000000272,-6.730818651701852673
0.432000000000000273,-6.658180175745222584
0.433000000000000274,-6.585733357794749665
0.434000000000000274,-6.513490599367797174
0.435000000000000275,-6.441463998417252590
0.436000000000000276,-6.369665351672571418
0.437000000000000277,-6.298106157047065778
0.438000000000000278,-6.226797616109379874
0.439000000000000279,-6.155750636616944327
0.440000000000000280,-6.084975835109116993
0.441000000000000281,-6.014483539557888392
0.442000000000000282,-5.944283792073872696
0.443000000000000282,-5.874386351665256356
0.444000000000000283,-5.804800697047558522
0.445000000000000284,-5.735536029501853150
0.446000000000000285,-5.666601275779117763
0.447000000000000286,-5.598005091048670501
0.448000000000000287,-5.529755861888117074
0.449000000000000288,-5.461861709312843871
0.450000000000000289,-5.394330491842601383
0.451000000000000290,-5.327169808603064105
0.452000000000000290,-5.260387002460142902
0.453000000000000291,-5.193989163184798308
0.454000000000000292,-5.127983130646282639
0.455000000000000293,-5.062375498031550514
0.456000000000000294,-4.997172615088828707
0.457000000000000295,-4.932380591393179081
0.458000000000000296,-4.868005299632010008
0.459000000000000297,-4.804052378908552967
0.460000000000000298,-4.740527238061193138
0.461000000000000298,-4.677435058996849193
0.462000000000000299,-4.614780800036340835
0.463000000000000300,-4.552569199269873579
0.464000000000000301,-4.490804777920855528
0.465000000000000302,-4.429491843716197863
0.466000000000000303,-4.368634494261244505
0.467000000000000304,-4.308236620417701168
0.468000000000000305,-4.248301909682830946
0.469000000000000306,-4.188833849568203149
0.470000000000000306,-4.129835730976514796
0.471000000000000307,-4.071310651574718165
0.472000000000000308,-4.013261519162137247
0.473000000000000309,-3.955691055031898884
0.474000000000000310,-3.898601797324380502
0.475000000000000311,-3.841996104371101062
0.476000000000000312,-3.785876158027973837
0.477000000000000313,-3.730243966996235283
0.478000000000000314,-3.675101370130067657
0.479000000000000314,-3.620450039729603553
0.480000000000000315,-3.566291484817999624
0.481000000000000316,-3.512627054401637139
0.482000000000000317,-3.459457940712150847
0.483000000000000318,-3.406785182429354908
0.484000000000000319,-3.354609667883936108
0.485000000000000320,-3.302932138239044857
0.486000000000000321,-3.251753190649723901
0.487000000000000322,-3.201073281399357207
0.488000000000000322,-3.150892729012167770
0.489000000000000323,-3.101211717341114227
0.490000000000000324,-3.052030298630193705
0.491000000000000325,-3.003348396550558519
0.492000000000000326,-2.955165809209602479
0.493000000000000327,-2.907482212132466604
0.494000000000000328,-2.860297161215219042
0.495000000000000329,-2.813610095649160314
0.496000000000000330,-2.767420340815637481
0.497000000000000330,-2.721727111150886724
0.498000000000000331,-2.676529512980297287
0.499000000000000332,-2.631826547321770349
0.500000000000000333,-2.587617112657593310
0.501000000000000334,-2.543900007674465336
0.502000000000000335,-2.500673933971321095
0.503000000000000336,-2.457937498734586779
0.504000000000000337,-2.415689217380504239
0.505000000000000338,-2.373927516164289209
0.506000000000000338,-2.332650734755830513
0.507000000000000339,-2.291857128781665587
0.508000000000000340,-2.251544872333043124
0.509000000000000341,-2.211712060439924521
0.510000000000000342,-2.172356711510661675
0.511000000000000343,-2.133476769737304046
0.512000000000000344,-2.095070107466349363
0.513000000000000345,-2.057134527534898893
0.514000000000000346,-2.019667765572116913
0.515000000000000346,-1.982667492265931530
0.516000000000000347,-1.946131315594949784
0.517000000000000348,-1.910056783025650073
0.518000000000000349,-1.874441383674694261
0.519000000000000350,-1.839282550436575736
0.520000000000000351,-1.804577662076504607
0.521000000000000352,-1.770324045288679926
0.522000000000000353,-1.736518976719985563
0.523000000000000353,-1.703159684959167919
0.524000000000000354,-1.670243352491744604
0.525000000000000355,-1.637767117620573032
0.526000000000000356,-1.605728076352370026
0.527000000000000357,-1.574123284250313004
0.528000000000000358,-1.542949758252754489
0.529000000000000359,-1.512204478458468504
0.530000000000000360,-1.481884389878362018
0.531000000000000361,-1.451986404154061772
0.532000000000000361,-1.422507401243437997
0.533000000000000362,-1.393444231073402095
0.534000000000000363,-1.364793715160124155
0.535000000000000364,-1.336552648196971393
0.536000000000000365,-1.308717799610383370
0.537000000000000366,-1.281285915083977711
0.538000000000000367,-1.254253718051093092
0.539000000000000368,-1.227617911156159369
0.540000000000000369,-1.201375177685009454
0.541000000000000369,-1.175522182964615414
0.542000000000000370,-1.150055575732382929
0.543000000000000371,-1.124971989475384015
0.544000000000000372,-1.100268043739845103
0.545000000000000373,-1.075940345411173560
0.546000000000000374,-1.051985489964817777
0.547000000000000375,-1.028400062688345162
0.548000000000000376,-1.005180639875036253
0.549000000000000377,-0.982323789989306917
0.550000000000000377,-0.959826074804291052
0.551000000000000378,-0.937684050511971456
0.552000000000000379,-0.915894268806136447
0.553000000000000380,-0.894453277938547786
0.554000000000000381,-0.873357623748619694
0.555000000000000382,-0.852603850667030594
0.556000000000000383,-0.832188502693503418
0.557000000000000384,-0.812108124349238070
0.558000000000000385,-0.792359261604210219
0.559000000000000385,-0.772938462779810598
0.560000000000000386,-0.753842279427077488
0.561000000000000387,-0.735067267180950834
0.562000000000000388,-0.716609986590844961
0.563000000000000389,-0.698467003927930374
0.564000000000000390,-0.680634891969462807
0.565000000000000391,-0.663110230760507235
0.566000000000000392,-0.645889608353411138
0.567000000000000393,-0.628969621525406919
0.568000000000000393,-0.612346876474635260
0.569000000000000394,-0.596017989494991629
0.570000000000000395,-0.579979587630129800
0.571000000000000396,-0.564228309306939457
0.572000000000000397,-0.548760804948913550
0.573000000000000398,-0.533573737569641438
0.574000000000000399,-0.518663783346907659
0.575000000000000400,-0.504027632177584950
0.576000000000000401,-0.489661988213785204
0.577000000000000401,-0.475563570380551692
0.578000000000000402,-0.461729112875412295
0.579000000000000403,-0.448155365650132864
0.580000000000000404,-0.434839094875054566
0.581000000000000405,-0.421777083386245699
0.582000000000000406,-0.408966131115872655
0.583000000000000407,-0.396403055506072799
0.584000000000000408,-0.384084691906650288
0.585000000000000409,-0.372007893956919911
0.586000000000000409,-0.360169533952010790
0.587000000000000410,-0.348566503193930899
0.588000000000000411,-0.337195712327701236
0.589000000000000412,-0.326054091662881906
0.590000000000000413,-0.315138591480749075
0.591000000000000414,-0.304446182327463732
0.592000000000000415,-0.293973855293510333
0.593000000000000416,-0.283718622279678423
0.594000000000000417,-0.273677516249885566
0.595000000000000417,-0.263847591471176646
0.596000000000000418,-0.254225923741053961
0.597000000000000419,-0.244809610602571753
0.598000000000000420,-0.235595771547339627
0.599000000000000421,-0.226581548206780919
0.600000000000000422,-0.217764104531881830
0.601000000000000423,-0.209140626961705600
0.602000000000000424,-0.200708324580922776
0.603000000000000425,-0.192464429266625853
0.604000000000000425,-0.184406195824671132
0.605000000000000426,-0.176530902115786203
0.606000000000000427,-0.168835849171757507
0.607000000000000428,-0.161318361301780538
0.608000000000000429,-0.153975786189462310
0.609000000000000430,-0.146805494980407236
0.610000000000000431,-0.139804882360916233
0.611000000000000432,-0.132971366627806231
