# CNT15-NH3+-2_CYTOSINE
# h[nm],U(h)[kJ/mol]
0.149999999999999994,116.048385364839120371
0.150999999999999995,114.788247129118261114
0.151999999999999996,112.521226047927711988
0.152999999999999997,110.109055884048800067
0.153999999999999998,107.845759943593790808
0.154999999999999999,105.768635893032836748
0.156000000000000000,103.821911796889978064
0.157000000000000001,101.935285424153121880
0.158000000000000002,100.055582545280074669
0.159000000000000002,98.154387047258765620
0.160000000000000003,96.224798581896436644
0.161000000000000004,94.274494517471339350
0.162000000000000005,92.318691383540624429
0.163000000000000006,90.374538516337707961
0.164000000000000007,88.457355759408471840
0.165000000000000008,86.578573288984969736
0.166000000000000009,84.745006008048932244
0.167000000000000010,82.959048311332097114
0.168000000000000010,81.219416787777589661
0.169000000000000011,79.522145683905975488
0.170000000000000012,77.861623516344053542
0.171000000000000013,76.231534471044781753
0.172000000000000014,74.625629155840869089
0.173000000000000015,73.038294714665894958
0.174000000000000016,71.464925587014448638
0.175000000000000017,69.902115701862157948
0.176000000000000018,68.347703294178657529
0.177000000000000018,66.800703322506507220
0.178000000000000019,65.261161782479504723
0.179000000000000020,63.729962761945941452
0.180000000000000021,62.208614162859120711
0.181000000000000022,60.699032552783990013
0.182000000000000023,59.203342232896446262
0.183000000000000024,57.723698711059434174
0.184000000000000025,56.262142561441990551
0.185000000000000026,54.820486222045680336
0.186000000000000026,53.400233627397142300
0.187000000000000027,52.002530639401527424
0.188000000000000028,50.628142937486842357
0.189000000000000029,49.277457258120911376
0.190000000000000030,47.950501529675463530
0.191000000000000031,46.646979432954964295
0.192000000000000032,45.366315141957230139
0.193000000000000033,44.107704387285011194
0.194000000000000034,42.870168472739621279
0.195000000000000034,41.652608413261006604
0.196000000000000035,40.453856910413875880
0.197000000000000036,39.272726411196494212
0.198000000000000037,38.108051986956937185
0.199000000000000038,36.958728208766814305
0.200000000000000039,35.823739576652982919
0.201000000000000040,34.702184380050169921
0.202000000000000041,33.593292126507137141
0.203000000000000042,32.496434878256081902
0.204000000000000042,31.411132986539193723
0.205000000000000043,30.337055817351647136
0.206000000000000044,29.274018125732670370
0.207000000000000045,28.221972765235971536
0.208000000000000046,27.181000420852257093
0.209000000000000047,26.151297033171669426
0.210000000000000048,25.133159544179296319
0.211000000000000049,24.126970545406702939
0.212000000000000050,23.133182351236889929
0.213000000000000050,22.152300957397205394
0.214000000000000051,21.184870279899278955
0.215000000000000052,20.231457005188506315
0.216000000000000053,19.292636319839754577
0.217000000000000054,18.368978729136181016
0.218000000000000055,17.461038119267367819
0.219000000000000056,16.569341168330392833
0.220000000000000057,15.694378167179412031
0.221000000000000058,14.836595272605109130
0.222000000000000058,13.996388182289754454
0.223000000000000059,13.174097193318520027
0.224000000000000060,12.370003583445319251
0.225000000000000061,11.584327236465153277
0.226000000000000062,10.817225419529517438
0.227000000000000063,10.068792610624964112
0.228000000000000064,9.339061268274429395
0.229000000000000065,8.628003432371134096
0.230000000000000066,7.935533044490442833
0.231000000000000066,7.261508877630371117
0.232000000000000067,6.605737968728538689
0.233000000000000068,5.967979452134095197
0.234000000000000069,5.347948698158949909
0.235000000000000070,4.745321667603963789
0.236000000000000071,4.159739400499312012
0.237000000000000072,3.590812564989125377
0.238000000000000073,3.038126000140903393
0.239000000000000073,2.501243194307348539
0.240000000000000074,1.979710648374791715
0.241000000000000075,1.473062080694657716
0.242000000000000076,0.980822437620473386
0.243000000000000077,0.502511680298350250
0.244000000000000078,0.037648324635406884
0.245000000000000079,-0.414247282836325226
0.246000000000000080,-0.853649965190861004
0.247000000000000081,-1.281026998644447801
0.248000000000000081,-1.696835682334419504
0.249000000000000082,-2.101521193505288210
0.250000000000000111,-2.495514723977486415
0.251000000000000112,-2.879231890946526651
0.252000000000000113,-3.253071412772187809
0.253000000000000114,-3.617414038436259638
0.254000000000000115,-3.972621717750378423
0.255000000000000115,-4.319036998145418416
0.256000000000000116,-4.656982632944746570
0.257000000000000117,-4.986761385381804246
0.258000000000000118,-5.308656012237713995
0.259000000000000119,-5.622929410819111240
0.260000000000000120,-5.929824913040455669
0.261000000000000121,-6.229566710591806888
0.262000000000000122,-6.522360395538943756
0.263000000000000123,-6.808393601191850664
0.264000000000000123,-7.087836728670923847
0.265000000000000124,-7.360843745275092331
0.266000000000000125,-7.627553041496928365
0.267000000000000126,-7.888088334317748362
0.268000000000000127,-8.142559605238675502
0.269000000000000128,-8.391064062345748198
0.270000000000000129,-8.633687116559190855
0.271000000000000130,-8.870503363068133140
0.272000000000000131,-9.101577559792723093
0.273000000000000131,-9.326965595540192666
0.274000000000000132,-9.546715441321975248
0.275000000000000133,-9.760868079071832071
0.276000000000000134,-9.969458402745024372
0.277000000000000135,-10.172516087482378566
0.278000000000000136,-10.370066423189978622
0.279000000000000137,-10.562131109510978888
0.280000000000000138,-10.748729009751201602
0.281000000000000139,-10.929876861864253001
0.282000000000000139,-11.105589945103474747
0.283000000000000140,-11.275882701409278397
0.284000000000000141,-11.440769311020320131
0.285000000000000142,-11.600264222177978368
0.286000000000000143,-11.754382635135979029
0.287000000000000144,-11.903140940992372521
0.288000000000000145,-12.046557116132227350
0.289000000000000146,-12.184651073305326818
0.290000000000000147,-12.317444970569484397
0.291000000000000147,-12.444963479504789206
0.292000000000000148,-12.567234014252496976
0.293000000000000149,-12.684286923053294416
0.294000000000000150,-12.796155644057929379
0.295000000000000151,-12.902876827258406678
0.296000000000000152,-13.004490424443289953
0.297000000000000153,-13.101039749117319388
0.298000000000000154,-13.192571508345526610
0.299000000000000155,-13.279135808486751458
0.300000000000000155,-13.360786136772812682
0.301000000000000156,-13.437579320668561422
0.302000000000000157,-13.509575466917038256
0.303000000000000158,-13.576837882132934965
0.304000000000000159,-13.639432976759096050
0.305000000000000160,-13.697430154145175507
0.306000000000000161,-13.750901686446457717
0.307000000000000162,-13.799922578974776144
0.308000000000000163,-13.844570424563627853
0.309000000000000163,-13.884925249437008787
0.310000000000000164,-13.921069351996493424
0.311000000000000165,-13.953087135864544521
0.312000000000000166,-13.981064938445223689
0.313000000000000167,-14.005090856185566039
0.314000000000000168,-14.025254567643845149
0.315000000000000169,-14.041647155394461066
0.316000000000000170,-14.054360927723774211
0.317000000000000171,-14.063489240997029128
0.318000000000000171,-14.069126323504431042
0.319000000000000172,-14.071367101524426602
0.320000000000000173,-14.070307028273699501
0.321000000000000174,-14.066041916348339669
0.322000000000000175,-14.058667774197218137
0.323000000000000176,-14.048280647108452257
0.324000000000000177,-14.034976463132020186
0.325000000000000178,-14.018850884306635507
0.326000000000000179,-13.999999163507478528
0.327000000000000179,-13.978516007181493563
0.328000000000000180,-13.954495444191119091
0.329000000000000181,-13.928030700943930142
0.330000000000000182,-13.899214082944348903
0.331000000000000183,-13.868136862866498049
0.332000000000000184,-13.834889175211211310
0.333000000000000185,-13.799559917578083201
0.334000000000000186,-13.762236658553243629
0.335000000000000187,-13.723005552185705724
0.336000000000000187,-13.681951259000276977
0.337000000000000188,-13.639156873471586451
0.338000000000000189,-13.594703857863459362
0.339000000000000190,-13.548671982318960971
0.340000000000000191,-13.501139271069670045
0.341000000000000192,-13.452181954618273707
0.342000000000000193,-13.401874427735203099
0.343000000000000194,-13.350289213099197028
0.344000000000000195,-13.297496930401385029
0.345000000000000195,-13.243566270725096956
0.346000000000000196,-13.188563976005985623
0.347000000000000197,-13.132554823372331043
0.348000000000000198,-13.075601614160692776
0.349000000000000199,-13.017765167399151238
0.350000000000000200,-12.959104317548456820
0.351000000000000201,-12.899675916290131994
0.352000000000000202,-12.839534838150546747
0.353000000000000203,-12.778733989750634237
0.354000000000000203,-12.717324322472347120
0.355000000000000204,-12.655354848334775753
0.356000000000000205,-12.592872658875998937
0.357000000000000206,-12.529922946839608500
0.358000000000000207,-12.466549030468600634
0.359000000000000208,-12.402792380213780277
0.360000000000000209,-12.338692647668068503
0.361000000000000210,-12.274287696543094484
0.362000000000000210,-12.209613635509644070
0.363000000000000211,-12.144704852728924749
0.364000000000000212,-12.079594051907267982
0.365000000000000213,-12.014312289712494319
0.366000000000000214,-11.948889014396359087
0.367000000000000215,-11.883352105473145244
0.368000000000000216,-11.817727914310953707
0.369000000000000217,-11.752041305497922252
0.370000000000000218,-11.686315698852117961
0.371000000000000218,-11.620573111949569878
0.372000000000000219,-11.554834203051386865
0.373000000000000220,-11.489118314316666414
0.374000000000000221,-11.423443515193962838
0.375000000000000222,-11.357826645889904427
0.376000000000000223,-11.292283360819494575
0.377000000000000224,-11.226828171948133317
0.378000000000000225,-11.161474491941035581
0.379000000000000226,-11.096234677041110217
0.380000000000000226,-11.031120069601858091
0.381000000000000227,-10.966141040206542456
0.382000000000000228,-10.901307029310494556
0.383000000000000229,-10.836626588347719746
0.384000000000000230,-10.772107420247914789
0.385000000000000231,-10.707756419314645058
0.386000000000000232,-10.643579710419453832
0.387000000000000233,-10.579582687471152269
0.388000000000000234,-10.515770051123480400
0.389000000000000234,-10.452145845688210812
0.390000000000000235,-10.388713495224333627
0.391000000000000236,-10.325475838777812498
0.392000000000000237,-10.262435164749327043
0.393000000000000238,-10.199593244371106593
0.394000000000000239,-10.136951364276566068
0.395000000000000240,-10.074510358149705525
0.396000000000000241,-10.012270637443796417
0.397000000000000242,-9.950232221161419588
0.398000000000000242,-9.888394764690618288
0.399000000000000243,-9.826757587693887075
0.400000000000000244,-9.765319701049136825
0.401000000000000245,-9.704079832843826026
0.402000000000000246,-9.643036453425041898
0.403000000000000247,-9.582187799510426984
0.404000000000000248,-9.521531897366356745
0.405000000000000249,-9.461066585061232104
0.406000000000000250,-9.400789533803301623
0.407000000000000250,-9.340698268373611057
0.408000000000000251,-9.280790186665944574
0.409000000000000252,-9.221062578346764127
0.410000000000000253,-9.161512642648942162
0.411000000000000254,-9.102137505314335186
0.412000000000000255,-9.042934234700656049
0.413000000000000256,-8.983899857069239658
0.414000000000000257,-8.925031371070552666
0.415000000000000258,-8.866325761445263964
0.416000000000000258,-8.807780011958822541
0.417000000000000259,-8.749391117588197986
0.418000000000000260,-8.691156095979684082
0.419000000000000261,-8.633071998196921726
0.420000000000000262,-8.575135918778675759
0.421000000000000263,-8.517345005126005120
0.422000000000000264,-8.459696466238554535
0.423000000000000265,-8.402187580819841628
0.424000000000000266,-8.344815704771599840
0.425000000000000266,-8.287578278096855655
0.426000000000000267,-8.230472831231789854
0.427000000000000268,-8.173496990826093267
0.428000000000000269,-8.116648484991504375
0.429000000000000270,-8.059925148038100673
0.430000000000000271,-8.003324924717611921
0.431000000000000272,-7.946845873993003018
0.432000000000000273,-7.890486172353180727
0.433000000000000274,-7.834244116691552406
0.434000000000000274,-7.778118126766777607
0.435000000000000275,-7.722106747263884685
0.436000000000000276,-7.666208649473526648
0.437000000000000277,-7.610422632606825388
0.438000000000000278,-7.554747624763017200
0.439000000000000279,-7.499182683566641749
0.440000000000000280,-7.443726996490715564
0.441000000000000281,-7.388379880881936757
0.442000000000000282,-7.333140783703728793
0.443000000000000282,-7.278009281012190357
0.444000000000000283,-7.222985077180148039
0.445000000000000284,-7.168068003883641737
0.446000000000000285,-7.113258018864963894
0.447000000000000286,-7.058555204486222756
0.448000000000000287,-7.003959766086383709
0.449000000000000288,-6.949472030155097180
0.450000000000000289,-6.895092442335557514
0.451000000000000290,-6.840821565268678128
0.452000000000000290,-6.786660076290315757
0.453000000000000291,-6.732608764992797035
0.454000000000000292,-6.678668530661818536
0.455000000000000293,-6.624840379599167939
0.456000000000000294,-6.571125422341569156
0.457000000000000295,-6.517524870785362801
0.458000000000000296,-6.464040035226481962
0.459000000000000297,-6.410672321324843992
0.460000000000000298,-6.357423227001747001
0.461000000000000298,-6.304294339278736281
0.462000000000000299,-6.251287331065877417
0.463000000000000300,-6.198403957907064665
0.464000000000000301,-6.145646054689750670
0.465000000000000302,-6.093015532326064410
0.466000000000000303,-6.040514374411943166
0.467000000000000304,-5.988144633870669864
0.468000000000000305,-5.935908429586881141
0.469000000000000306,-5.883807943036718946
0.470000000000000306,-5.831845414919702542
0.471000000000000307,-5.780023141797316022
0.472000000000000308,-5.728343472743397058
0.473000000000000309,-5.676808806010802400
0.474000000000000310,-5.625421585718787476
0.475000000000000311,-5.574184298565145745
0.476000000000000312,-5.523099470567123248
0.477000000000000313,-5.472169663834494102
0.478000000000000314,-5.421397473378371856
0.479000000000000314,-5.370785523958916841
0.480000000000000315,-5.320336466974749712
0.481000000000000316,-5.270052977397023497
0.482000000000000317,-5.219937750750484717
0.483000000000000318,-5.169993500144068221
0.484000000000000319,-5.120222953353001927
0.485000000000000320,-5.070628849954585071
0.486000000000000321,-5.021213938519290210
0.487000000000000322,-4.971980973858940445
0.488000000000000322,-4.922932714333327908
0.489000000000000323,-4.874071919216765636
0.490000000000000324,-4.825401346125572033
0.491000000000000325,-4.776923748507668321
0.492000000000000326,-4.728641873195054579
0.493000000000000327,-4.680558458020095181
0.494000000000000328,-4.632676229496109244
0.495000000000000329,-4.584997900562919781
0.496000000000000330,-4.537526168397663540
0.497000000000000330,-4.490263712291312714
0.498000000000000331,-4.443213191590931643
0.499000000000000332,-4.396377243707997984
0.500000000000000333,-4.349758482192628506
0.501000000000000334,-4.303359494873698843
0.502000000000000335,-4.257182842064750616
0.503000000000000336,-4.211231054835423038
0.504000000000000337,-4.165506633348066146
0.505000000000000338,-4.120012045259244360
0.506000000000000338,-4.074749724185627642
0.507000000000000339,-4.029722068233803078
0.508000000000000340,-3.984931438593400710
0.509000000000000341,-3.940380158193048210
0.510000000000000342,-3.896070510418314647
0.511000000000000343,-3.852004737891089547
0.512000000000000344,-3.808185041309522401
0.513000000000000345,-3.764613578347839162
0.514000000000000346,-3.721292462615134689
0.515000000000000346,-3.678223762672286234
0.516000000000000347,-3.635409501106082963
0.517000000000000348,-3.592851653659734357
0.518000000000000349,-3.550552148418621101
0.519000000000000350,-3.508512865050519736
0.520000000000000351,-3.466735634099149088
0.521000000000000352,-3.425222236330105918
0.522000000000000353,-3.383974402128134606
0.523000000000000353,-3.342993810944617561
0.524000000000000354,-3.302282090794397273
0.525000000000000355,-3.261840817800622627
0.526000000000000356,-3.221671515786726392
0.527000000000000357,-3.181775655914409917
0.528000000000000358,-3.142154656366401344
0.529000000000000359,-3.102809882073124470
0.530000000000000360,-3.063742644481957544
0.531000000000000361,-3.024954201368129425
0.532000000000000361,-2.986445756686057607
0.533000000000000362,-2.948218460460100054
0.534000000000000363,-2.910273408713570209
0.535000000000000364,-2.872611643434939577
0.536000000000000365,-2.835234152580153211
0.537000000000000366,-2.798141870109978058
0.538000000000000367,-2.761335676061226874
0.539000000000000368,-2.724816396650980632
0.540000000000000369,-2.688584804412481599
0.541000000000000369,-2.652641618361930131
0.542000000000000370,-2.616987504194919545
0.543000000000000371,-2.581623074511608884
0.544000000000000372,-2.546548889069572219
0.545000000000000373,-2.511765455063351027
0.546000000000000374,-2.477273227429648728
0.547000000000000375,-2.443072609177262766
0.548000000000000376,-2.409163951740777243
0.549000000000000377,-2.375547555357030660
0.550000000000000377,-2.342223669463430191
0.551000000000000378,-2.309192493117220302
0.552000000000000379,-2.276454175434786453
0.553000000000000380,-2.244008816050080846
0.554000000000000381,-2.211856465591304222
0.555000000000000382,-2.179997126175044819
0.556000000000000383,-2.148430751916887260
0.557000000000000384,-2.117157249457853219
0.558000000000000385,-2.086176478505679110
0.559000000000000385,-2.055488252390286430
0.560000000000000386,-2.025092338632551670
0.561000000000000387,-1.994988459525700808
0.562000000000000388,-1.965176292728525453
0.563000000000000389,-1.935655471869724309
0.564000000000000390,-1.906425587162639657
0.565000000000000391,-1.877486186029711401
0.566000000000000392,-1.848836773735948125
0.567000000000000393,-1.820476814030794532
0.568000000000000393,-1.792405729797686309
0.569000000000000394,-1.764622903710714841
0.570000000000000395,-1.737127678897796956
0.571000000000000396,-1.709919359609674006
0.572000000000000397,-1.682997211894287304
0.573000000000000398,-1.656360464275820288
0.574000000000000399,-1.630008308438013476
0.575000000000000400,-1.603939899911052125
0.576000000000000401,-1.578154358761653331
0.577000000000000401,-1.552650770285796344
0.578000000000000402,-1.527428185703563424
0.579000000000000403,-1.502485622855681102
0.580000000000000404,-1.477822066901312237
0.581000000000000405,-1.453436471016581688
0.582000000000000406,-1.429327757093489026
0.583000000000000407,-1.405494816438736638
0.584000000000000408,-1.381936510472114632
0.585000000000000409,-1.358651671424019991
0.586000000000000409,-1.335639103031759145
0.587000000000000410,-1.312897581234279798
0.588000000000000411,-1.290425854864950095
0.589000000000000412,-1.268222646342109794
0.590000000000000413,-1.246286652357001090
0.591000000000000414,-1.224616544558821074
0.592000000000000415,-1.203210970236610722
0.593000000000000416,-1.182068552997624256
0.594000000000000417,-1.161187893441966157
0.595000000000000417,-1.140567569833270900
0.596000000000000418,-1.120206138765012849
0.597000000000000419,-1.100102135822445870
0.598000000000000420,-1.080254076239706595
0.599000000000000421,-1.060660455552039805
0.600000000000000422,-1.041319750242832631
0.601000000000000423,-1.022230418385322803
0.602000000000000424,-1.003390900278737563
0.603000000000000425,-0.984799619078738808
0.604000000000000425,-0.966454981421966286
0.605000000000000426,-0.948355378044519748
0.606000000000000427,-0.930499184394298240
0.607000000000000428,-0.912884761236880338
0.608000000000000429,-0.895510455255087101
0.609000000000000430,-0.878374599641768228
0.610000000000000431,-0.861475514686017241
