# CNT15-NH3+-2_SERINEZWITTER
# h[nm],U(h)[kJ/mol]
0.200000000000000011,104.143225653778429773
0.201000000000000012,103.146392086153312562
0.202000000000000013,101.674636767953614935
0.203000000000000014,100.007314477731171110
0.204000000000000015,98.296147794228176053
0.205000000000000016,96.613947916682121786
0.206000000000000016,94.987189791314804665
0.207000000000000017,93.417230926754726283
0.208000000000000018,91.893660404697939725
0.209000000000000019,90.402293036602685561
0.210000000000000020,88.929603415679736145
0.211000000000000021,87.464864339723476405
0.212000000000000022,86.000866679604868636
0.213000000000000023,84.533817303992066172
0.214000000000000024,83.062810790211571543
0.215000000000000024,81.589128612790446482
0.216000000000000025,80.115520643378474119
0.217000000000000026,78.645556348295073690
0.218000000000000027,77.183088234824211327
0.219000000000000028,75.731841338524006346
0.220000000000000029,74.295125039911795284
0.221000000000000030,72.875653722851737371
0.222000000000000031,71.475458183690534497
0.223000000000000032,70.095868440311463132
0.224000000000000032,68.737549382880388293
0.225000000000000033,67.400572658569018358
0.226000000000000034,66.084510685575523325
0.227000000000000035,64.788541350655009410
0.228000000000000036,63.511554511122810140
0.229000000000000037,62.252253753085291521
0.230000000000000038,61.009248880136873083
0.231000000000000039,59.781136296242188166
0.232000000000000040,58.566565808834106122
0.233000000000000040,57.364293437503292239
0.234000000000000041,56.173220604148795587
0.235000000000000042,54.992420640382249530
0.236000000000000043,53.821153915979110138
0.237000000000000044,52.658873104923159758
0.238000000000000045,51.505220196396990673
0.239000000000000046,50.360016856216923031
0.240000000000000047,49.223249674724392833
0.241000000000000048,48.095051720928047700
0.242000000000000048,46.975681676761979588
0.243000000000000049,45.865501663234688579
0.244000000000000050,44.764954702493405136
0.245000000000000051,43.674542594293079389
0.246000000000000052,42.594804827746671094
0.247000000000000053,41.526299003423737588
0.248000000000000054,40.469583109304650748
0.249000000000000055,39.425199878076519155
0.250000000000000056,38.393663353186909148
0.251000000000000056,37.375447706697478623
0.252000000000000057,36.370978282576501783
0.253000000000000058,35.380624783581694714
0.254000000000000059,34.404696477051423642
0.255000000000000060,33.443439263377278792
0.256000000000000061,32.497034429263166544
0.257000000000000062,31.565598894700297450
0.258000000000000063,30.649186756569925194
0.259000000000000064,29.747791931681469180
0.260000000000000064,28.861351706718757271
0.261000000000000065,27.989751010972423018
0.262000000000000066,27.132827238962988758
0.263000000000000067,26.290375463314482829
0.264000000000000068,25.462153892830468038
0.265000000000000069,24.647889446073563136
0.266000000000000070,23.847283326373567292
0.267000000000000071,23.060016499691442959
0.268000000000000071,22.285754991833297112
0.269000000000000072,21.524154935896564922
0.270000000000000073,20.774867314356626480
0.271000000000000074,20.037542352739521334
0.272000000000000075,19.311833533289465947
0.273000000000000076,18.597401207386521804
0.274000000000000077,17.893915794683557863
0.275000000000000078,17.201060565025837690
0.276000000000000079,16.518534006224008692
0.277000000000000079,15.846051786716184751
0.278000000000000080,15.183348327141668932
0.279000000000000081,14.530177998918921034
0.280000000000000082,13.886315971151788062
0.281000000000000083,13.251558729651431889
0.282000000000000084,12.625724293637075490
0.283000000000000085,12.008652156839431768
0.284000000000000086,11.400202980350082171
0.285000000000000087,10.800258064711574235
0.286000000000000087,10.208718628488664848
0.287000000000000088,9.625504919967607265
0.288000000000000089,9.050555187753326791
0.289000000000000090,8.483824534927070005
0.290000000000000091,7.925283680139645348
0.291000000000000092,7.374917647587817093
0.292000000000000093,6.832724406296607711
0.293000000000000094,6.298713477539214622
0.294000000000000095,5.772904527601108171
0.295000000000000095,5.255325961459316630
0.296000000000000096,4.746013531327335500
0.297000000000000097,4.245008972425435623
0.298000000000000098,3.752358676794071979
0.299000000000000099,3.268112414484776629
0.300000000000000100,2.792322110050417638
0.301000000000000101,2.325040680920003044
0.302000000000000102,1.866320942991699372
0.303000000000000103,1.416214587609638809
0.304000000000000103,0.974771233014061877
0.305000000000000104,0.542037552365040143
0.306000000000000105,0.118056479541108844
0.307000000000000106,-0.297133506897598099
0.308000000000000107,-0.703499021918781664
0.309000000000000108,-1.101012335380723961
0.310000000000000109,-1.489651858095108139
0.311000000000000110,-1.869402554625320123
0.312000000000000111,-2.240256285276658765
0.313000000000000111,-2.602212080085954060
0.314000000000000112,-2.955276347909681078
0.315000000000000113,-3.299463023942558415
0.316000000000000114,-3.634793659179062608
0.317000000000000115,-3.961297455462035710
0.318000000000000116,-4.279011249850829479
0.319000000000000117,-4.587979452089483878
0.320000000000000118,-4.888253938968203371
0.321000000000000119,-5.179893909352853321
0.322000000000000119,-5.462965703610183965
0.323000000000000120,-5.737542591085292187
0.324000000000000121,-6.003704529196587814
0.325000000000000122,-6.261537897602890368
0.326000000000000123,-6.511135210772809323
0.327000000000000124,-6.752594812149373737
0.328000000000000125,-6.986020552955897855
0.329000000000000126,-7.211521458534207341
0.330000000000000127,-7.429211384946467156
0.331000000000000127,-7.639208668407543534
0.332000000000000128,-7.841635769948926971
0.333000000000000129,-8.036618917548643992
0.334000000000000130,-8.224287747795216319
0.335000000000000131,-8.404774948990189287
0.336000000000000132,-8.578215907431566478
0.337000000000000133,-8.744748358463471760
0.338000000000000134,-8.904512043724116310
0.339000000000000135,-9.057648375875201552
0.340000000000000135,-9.204300111954319519
0.341000000000000136,-9.344611036354223188
0.342000000000000137,-9.478725654303044479
0.343000000000000138,-9.606788896594922633
0.344000000000000139,-9.728945836204028197
0.345000000000000140,-9.845341417303524523
0.346000000000000141,-9.956120197107917846
0.347000000000000142,-10.061426100859719668
0.348000000000000143,-10.161402190191529016
0.349000000000000143,-10.256190445010506807
0.350000000000000144,-10.345931558975399511
0.351000000000000145,-10.430764748564971711
0.352000000000000146,-10.510827575672351486
0.353000000000000147,-10.586255783600574176
0.354000000000000148,-10.657183146281679953
0.355000000000000149,-10.723741330493899326
0.356000000000000150,-10.786059770809025338
0.357000000000000151,-10.844265556964435504
0.358000000000000151,-10.898483333321506095
0.359000000000000152,-10.948835210043558419
0.360000000000000153,-10.995440685602597242
0.361000000000000154,-11.038416580203264772
0.362000000000000155,-11.077876979696338111
0.363000000000000156,-11.113933189540464497
0.364000000000000157,-11.146693698360838454
0.365000000000000158,-11.176264150646716189
0.366000000000000159,-11.202747328124601722
0.367000000000000159,-11.226243139342610533
0.368000000000000160,-11.246848617001395709
0.369000000000000161,-11.264657922569526249
0.370000000000000162,-11.279762357725445554
0.371000000000000163,-11.292250382173925516
0.372000000000000164,-11.302207637392402972
0.373000000000000165,-11.309716975871156208
0.374000000000000166,-11.314858495421379558
0.375000000000000167,-11.317709578135742632
0.376000000000000167,-11.318344933598130098
0.377000000000000168,-11.316836645951587670
0.378000000000000169,-11.313254224446527729
0.379000000000000170,-11.307664657105160444
0.380000000000000171,-11.300132467151923876
0.381000000000000172,-11.290719771874055510
0.382000000000000173,-11.279486343591091924
0.383000000000000174,-11.266489672426796886
0.384000000000000175,-11.251785030591630488
0.385000000000000175,-11.235425537898677817
0.386000000000000176,-11.217462228250825618
0.387000000000000177,-11.197944116851051177
0.388000000000000178,-11.176918267902731685
0.389000000000000179,-11.154429862580265365
0.390000000000000180,-11.130522267064865360
0.391000000000000181,-11.105237100453539512
0.392000000000000182,-11.078614302362709054
0.393000000000000183,-11.050692200060819204
0.394000000000000183,-11.021507574976778798
0.395000000000000184,-10.991095728443331936
0.396000000000000185,-10.959490546546014400
0.397000000000000186,-10.926724563959846037
0.398000000000000187,-10.892829026666746017
0.399000000000000188,-10.857833953457067366
0.400000000000000189,-10.821768196128671136
0.401000000000000190,-10.784659498306623959
0.402000000000000191,-10.746534552815665720
0.403000000000000191,-10.707419057546223584
0.404000000000000192,-10.667337769763216571
0.405000000000000193,-10.626314558814424771
0.406000000000000194,-10.584372457202906759
0.407000000000000195,-10.541533709994750367
0.408000000000000196,-10.497819822539987911
0.409000000000000197,-10.453251606490852055
0.410000000000000198,-10.407849224107263097
0.411000000000000199,-10.361632230844652014
0.412000000000000199,-10.314619616224637966
0.413000000000000200,-10.266829842993436372
0.414000000000000201,-10.218280884577394474
0.415000000000000202,-10.168990260848916662
0.416000000000000203,-10.118975072219916100
0.417000000000000204,-10.068252032083101710
0.418000000000000205,-10.016837497624603515
0.419000000000000206,-9.964747499034320555
0.420000000000000207,-9.911997767142583626
0.421000000000000207,-9.858603759514517506
0.422000000000000208,-9.804580685034892440
0.423000000000000209,-9.749943527018652745
0.424000000000000210,-9.694707064883425929
0.425000000000000211,-9.638885894421838074
0.426000000000000212,-9.582494446712830793
0.427000000000000213,-9.525547005711683113
0.428000000000000214,-9.468057724559759691
0.429000000000000214,-9.410040640655241262
0.430000000000000215,-9.351509689526796620
0.431000000000000216,-9.292478717552500100
0.432000000000000217,-9.232961493566257616
0.433000000000000218,-9.172971719394416468
0.434000000000000219,-9.112523039364912592
0.435000000000000220,-9.051629048831381752
0.436000000000000221,-8.990303301754199339
0.437000000000000222,-8.928559317380212690
0.438000000000000222,-8.866410586062485777
0.439000000000000223,-8.803870574260830750
0.440000000000000224,-8.740952728763383917
0.441000000000000225,-8.677670480168668377
0.442000000000000226,-8.614037245667308440
0.443000000000000227,-8.550066431161193137
0.444000000000000228,-8.485771432757761801
0.445000000000000229,-8.421165637675732896
0.446000000000000230,-8.356262424597922234
0.447000000000000230,-8.291075163506073764
0.448000000000000231,-8.225617215031377327
0.449000000000000232,-8.159901929353550187
0.450000000000000233,-8.093942644680589993
0.451000000000000234,-8.027752685339871519
0.452000000000000235,-7.961345359510841213
0.453000000000000236,-7.894733956627989713
0.454000000000000237,-7.827931744482310883
0.455000000000000238,-7.760951966048044603
0.456000000000000238,-7.693807836060758909
0.457000000000000239,-7.626512537371699985
0.458000000000000240,-7.559079217102467219
0.459000000000000241,-7.491520982622847491
0.460000000000000242,-7.423850897374069113
0.461000000000000243,-7.356081976558304980
0.462000000000000244,-7.288227182714817509
0.463000000000000245,-7.220299421201564982
0.464000000000000246,-7.152311535600953896
0.465000000000000246,-7.084276303066803671
0.466000000000000247,-7.016206429629116670
0.467000000000000248,-6.948114545472274806
0.468000000000000249,-6.880013200201483770
0.469000000000000250,-6.811914858111281390
0.470000000000000251,-6.743831893469453220
0.471000000000000252,-6.675776585828463894
0.472000000000000253,-6.607761115376322714
0.473000000000000254,-6.539797558337433259
0.474000000000000254,-6.471897882433810700
0.475000000000000255,-6.404073942415955401
0.476000000000000256,-6.336337475672246811
0.477000000000000257,-6.268700097924980064
0.478000000000000258,-6.201173299020444674
0.479000000000000259,-6.133768438820078828
0.480000000000000260,-6.066496743198901420
0.481000000000000261,-5.999369300156941698
0.482000000000000262,-5.932397056048968942
0.483000000000000262,-5.865590811937137161
0.484000000000000263,-5.798961220070685485
0.485000000000000264,-5.732518780496501876
0.486000000000000265,-5.666273837803721847
0.487000000000000266,-5.600236578005166166
0.488000000000000267,-5.534417025558062697
0.489000000000000268,-5.468825040526029468
0.490000000000000269,-5.403470315883883046
0.491000000000000270,-5.338362374966658663
0.492000000000000270,-5.273510569063576625
0.493000000000000271,-5.208924075157725930
0.494000000000000272,-5.144611893811671166
0.495000000000000273,-5.080582847198902741
0.496000000000000274,-5.016845577281059398
0.497000000000000275,-4.953408544130145863
0.498000000000000276,-4.890280024395165626
0.499000000000000277,-4.827468109912088856
0.500000000000000222,-4.764980706455857806
0.501000000000000334,-4.702825532633208461
0.502000000000000224,-4.641010118914546290
0.503000000000000336,-4.579541806803115733
0.504000000000000226,-4.518427748139701272
0.505000000000000338,-4.457674904540472660
0.506000000000000227,-4.397290046966160659
0.507000000000000339,-4.337279755419808147
0.508000000000000229,-4.277650418771005825
0.509000000000000341,-4.218408234703723281
0.510000000000000231,-4.159559209785511413
0.511000000000000343,-4.101109159654806824
0.512000000000000233,-4.043063709324072441
0.513000000000000345,-3.985428293595406846
0.514000000000000234,-3.928208157586220217
0.515000000000000346,-3.871408357361374009
0.516000000000000236,-3.815033760669396479
0.517000000000000348,-3.759089047779177406
0.518000000000000238,-3.703578712414500096
0.519000000000000350,-3.648507062782878840
0.520000000000000240,-3.593878222695968017
0.521000000000000352,-3.539696132778128224
0.522000000000000242,-3.485964551760185604
0.523000000000000353,-3.432687057855081658
0.524000000000000243,-3.379867050212479906
0.525000000000000355,-3.327507750449000046
0.526000000000000245,-3.275612204251196147
0.527000000000000357,-3.224183283047903359
0.528000000000000247,-3.173223685749231748
0.529000000000000359,-3.122735940548826861
0.530000000000000249,-3.072722406786666305
0.531000000000000361,-3.023185276869186477
0.532000000000000250,-2.974126578244024710
0.533000000000000362,-2.925548175426211817
0.534000000000000252,-2.877451772073200686
0.535000000000000364,-2.829838913105694242
0.536000000000000254,-2.782710986871735237
0.537000000000000366,-2.736069227350963917
0.538000000000000256,-2.689914716396846206
0.539000000000000368,-2.644248386013714480
0.540000000000000258,-2.599071020666535947
0.541000000000000369,-2.554383259620403912
0.542000000000000259,-2.510185599307732218
0.543000000000000371,-2.466478395720324901
0.544000000000000261,-2.423261866824243604
0.545000000000000373,-2.380536094994998741
0.546000000000000263,-2.338301029470927883
0.547000000000000375,-2.296556488822332209
0.548000000000000265,-2.255302163434650176
0.549000000000000377,-2.214537618003041608
0.550000000000000266,-2.174262294036867882
0.551000000000000378,-2.134475512371712291
0.552000000000000268,-2.095176475687266393
0.553000000000000380,-2.056364271029083035
0.554000000000000270,-2.018037872332547611
0.555000000000000382,-1.980196142947084681
0.556000000000000272,-1.942837838159255925
0.557000000000000384,-1.905961607712724604
0.558000000000000274,-1.869565998323920342
0.559000000000000385,-1.833649456191486893
0.560000000000000275,-1.798210329498424187
0.561000000000000387,-1.763246870905206709
0.562000000000000277,-1.728757240032717801
0.563000000000000389,-1.694739505933600343
0.564000000000000279,-1.661191649550843419
0.565000000000000391,-1.628111566162305568
0.566000000000000281,-1.595497067810146996
0.567000000000000393,-1.563345885713936401
0.568000000000000282,-1.531655672666554446
0.569000000000000394,-1.500424005411657546
0.570000000000000284,-1.469648387002010725
0.571000000000000396,-1.439326249137526270
0.572000000000000286,-1.409454954482395106
0.573000000000000398,-1.380031798960215994
0.574000000000000288,-1.351054014026600525
0.575000000000000400,-1.322518768918367504
0.576000000000000290,-1.294423172878677697
0.577000000000000401,-1.266764277357458113
0.578000000000000291,-1.239539078186514320
0.579000000000000403,-1.212744517728714833
0.580000000000000293,-1.186377487000804143
0.581000000000000405,-1.160434827769189159
0.582000000000000295,-1.134913334618454117
0.583000000000000407,-1.109809756991937402
0.584000000000000297,-1.085120801204175311
0.585000000000000409,-1.060843132424726054
0.586000000000000298,-1.036973376633123056
0.587000000000000410,-1.013508122544595880
0.588000000000000300,-0.990443923506366453
0.589000000000000412,-0.967777299364175447
0.590000000000000302,-0.945504738298951986
0.591000000000000414,-0.923622698633375760
0.592000000000000304,-0.902127610608175479
0.593000000000000416,-0.881015878128027952
0.594000000000000306,-0.860283880477040852
0.595000000000000417,-0.839927974003591316
0.596000000000000307,-0.819944493774592886
0.597000000000000419,-0.800329755199083892
0.598000000000000309,-0.781080055621180547
0.599000000000000421,-0.762191675882300079
0.600000000000000311,-0.743660881852839073
0.601000000000000423,-0.725483925933179008
0.602000000000000313,-0.707657048524264143
0.603000000000000425,-0.690176479467617843
0.604000000000000314,-0.673038439455181825
0.605000000000000426,-0.656239141408771154
0.606000000000000316,-0.639774791829573419
0.607000000000000428,-0.623641592117614052
0.608000000000000318,-0.607835739861515734
0.609000000000000430,-0.592353430098581435
0.610000000000000320,-0.577190856545541364
0.611000000000000432,-0.562344212800005794
0.612000000000000322,-0.547809693512971263
0.613000000000000433,-0.533583495532519048
0.614000000000000323,-0.519661819018973903
0.615000000000000435,-0.506040868531767440
0.616000000000000325,-0.492716854088241063
0.617000000000000437,-0.479685992194661626
0.618000000000000327,-0.466944506849747865
0.619000000000000439,-0.454488630520907932
0.620000000000000329,-0.442314605093571345
0.621000000000000441,-0.430418682793849261
0.622000000000000330,-0.418797127084821308
0.623000000000000442,-0.407446213536783841
0.624000000000000332,-0.396362230671743143
0.625000000000000444,-0.385541480782494561
0.626000000000000334,-0.374980280726584625
0.627000000000000446,-0.364674962695491156
0.628000000000000336,-0.354621874959358430
0.629000000000000448,-0.344817382587601418
0.630000000000000338,-0.335257868145741433
0.631000000000000449,-0.325939732368787038
0.632000000000000339,-0.316859394811502271
0.633000000000000451,-0.308013294475931731
0.634000000000000341,-0.299397890416497781
0.635000000000000453,-0.291009662323045704
0.636000000000000343,-0.282845111082136724
0.637000000000000455,-0.274900759317003307
0.638000000000000345,-0.267173151906480444
0.639000000000000457,-0.259658856483231504
0.640000000000000346,-0.252354463911709015
0.641000000000000458,-0.245256588746097071
0.642000000000000348,-0.238361869668671622
0.643000000000000460,-0.231666969908868037
0.644000000000000350,-0.225168577643448720
0.645000000000000462,-0.218863406378084185
0.646000000000000352,-0.212748195310735966
0.647000000000000464,-0.206819709677118047
0.648000000000000353,-0.201074741078693886
0.649000000000000465,-0.195510107793416210
0.650000000000000355,-0.190122655069675128
0.651000000000000467,-0.184909255403698236
0.652000000000000357,-0.179866808800815792
0.653000000000000469,-0.174992243020864524
0.654000000000000359,-0.170282513808118846
0.655000000000000471,-0.165734605106009153
0.656000000000000361,-0.161345529257057335
0.657000000000000473,-0.157112327188234063
0.658000000000000362,-0.153032068582176384
0.659000000000000474,-0.149101852034484006
0.660000000000000364,-0.145318805197503398
0.661000000000000476,-0.141680084910832310
