# CNT15-NH3+-2_THYMINE
# h[nm],U(h)[kJ/mol]
0.149999999999999994,115.476585683312322317
0.150999999999999995,114.273686895337306169
0.151999999999999996,111.971555289509552722
0.152999999999999997,109.494530947916999253
0.153999999999999998,107.169096281848737817
0.154999999999999999,105.045998607188650453
0.156000000000000000,103.071985365103415688
0.157000000000000001,101.173835176825804183
0.158000000000000002,99.293488404439017359
0.159000000000000002,97.397671920870720896
0.160000000000000003,95.475634762895140284
0.161000000000000004,93.532535065853878109
0.162000000000000005,91.582343532108012596
0.163000000000000006,89.641985658966746087
0.164000000000000007,87.727259580253232230
0.165000000000000008,85.850463745010841876
0.166000000000000009,84.019407909631922848
0.167000000000000010,82.237410356259687205
0.168000000000000010,80.503910756447510266
0.169000000000000011,78.815396491610457019
0.170000000000000012,77.166419444197188682
0.171000000000000013,75.550554165485038993
0.172000000000000014,73.961209769181294860
0.173000000000000015,72.392254903486119133
0.174000000000000016,70.838448465946697752
0.175000000000000017,69.295690364021851337
0.176000000000000018,67.761119020234360733
0.177000000000000018,66.233087844894924956
0.178000000000000019,64.711053631549617648
0.179000000000000020,63.195407471906342778
0.180000000000000021,61.687274654695180232
0.181000000000000022,60.188305074562222785
0.182000000000000023,58.700470606020076048
0.183000000000000024,57.225881131001337110
0.184000000000000025,55.766626703169187351
0.185000000000000026,54.324649811648818343
0.186000000000000026,52.901648902231762861
0.187000000000000027,51.499012195131498970
0.188000000000000028,50.117779337707510479
0.189000000000000029,48.758627461613833987
0.190000000000000030,47.421877683214063381
0.191000000000000031,46.107517902212308059
0.192000000000000032,44.815237831665157842
0.193000000000000033,43.544472458233954626
0.194000000000000034,42.294450521360026585
0.195000000000000034,41.064245062074370196
0.196000000000000035,39.852823585299297804
0.197000000000000036,38.659095872477792000
0.198000000000000037,37.481957951424604403
0.199000000000000038,36.320331161893065541
0.200000000000000039,35.173195638853087530
0.201000000000000040,34.039617865931191432
0.202000000000000041,32.918772227536713615
0.203000000000000042,31.809956711227226123
0.204000000000000042,30.712603085069964948
0.205000000000000043,29.626282002597029930
0.206000000000000044,28.550703575602348394
0.207000000000000045,27.485714007986381091
0.208000000000000046,26.431288907621173223
0.209000000000000047,25.387523893079638526
0.210000000000000048,24.354623092985036692
0.211000000000000049,23.332886102167641695
0.212000000000000050,22.322693914732582243
0.213000000000000050,21.324494302992984984
0.214000000000000051,20.338787055918196245
0.215000000000000052,19.366109433715642751
0.216000000000000053,18.407022138362258090
0.217000000000000054,17.462096044867035260
0.218000000000000055,16.531899885947179740
0.219000000000000056,15.616989034479335174
0.220000000000000057,14.717895484102589521
0.221000000000000058,13.835119089042706264
0.222000000000000058,12.969120089721698719
0.223000000000000059,12.120312921012438068
0.224000000000000060,11.289061274947084001
0.225000000000000061,10.475674369069835734
0.226000000000000062,9.680404355142702144
0.227000000000000063,8.903444790230023997
0.228000000000000064,8.144930082940243565
0.229000000000000065,7.404935821411640973
0.230000000000000066,6.683479886121338254
0.231000000000000066,5.980524249399371328
0.232000000000000067,5.295977364296309275
0.233000000000000068,4.629697047848144287
0.234000000000000069,3.981493767502561010
0.235000000000000070,3.351134244235217441
0.236000000000000071,2.738345291442527252
0.237000000000000072,2.142817814821976530
0.238000000000000073,1.564210904949131287
0.239000000000000073,1.002155960960186665
0.240000000000000074,0.456260790502544478
0.241000000000000075,-0.073886362193105570
0.242000000000000076,-0.588712901742812544
0.243000000000000077,-1.088658115889295619
0.244000000000000078,-1.574169588013579313
0.245000000000000079,-2.045699811653353795
0.246000000000000080,-2.503703025587525666
0.247000000000000081,-2.948632283247029306
0.248000000000000081,-3.380936765837126323
0.249000000000000082,-3.801059344611769752
0.250000000000000111,-4.209434394221347020
0.251000000000000112,-4.606485855950181119
0.252000000000000113,-4.992625546957368599
0.253000000000000114,-5.368251709310306374
0.254000000000000115,-5.733747790640277842
0.255000000000000115,-6.089481446622961869
0.256000000000000116,-6.435803754175053015
0.257000000000000117,-6.773048623232294396
0.258000000000000118,-7.101532394209374210
0.259000000000000119,-7.421553607714278300
0.260000000000000120,-7.733392932772559902
0.261000000000000121,-8.037313239686204369
0.262000000000000122,-8.333559803686767964
0.263000000000000123,-8.622360625718069826
0.264000000000000123,-8.903926856982828042
0.265000000000000124,-9.178453314288441689
0.266000000000000125,-9.446119073713916237
0.267000000000000126,-9.707088130675090909
0.268000000000000127,-9.961510115075673966
0.269000000000000128,-10.209521050881674498
0.270000000000000129,-10.451244150136668409
0.271000000000000130,-10.686790632133485346
0.272000000000000131,-10.916260559164209454
0.273000000000000131,-11.139743680977964857
0.274000000000000132,-11.357320280776644239
0.275000000000000133,-11.569062016266979498
0.276000000000000134,-11.775032749957821565
0.277000000000000135,-11.975289363539356913
0.278000000000000136,-12.169882551804295900
0.279000000000000137,-12.358857592165216843
0.280000000000000138,-12.542255086385919682
0.281000000000000139,-12.720111671677253540
0.282000000000000139,-12.892460698806171848
0.283000000000000140,-13.059332875332666291
0.284000000000000141,-13.220756872520535552
0.285000000000000142,-13.376759894866205869
0.286000000000000143,-13.527368211554659183
0.287000000000000144,-13.672607649483973447
0.288000000000000145,-13.812504047801468232
0.289000000000000146,-13.947083674164385769
0.290000000000000147,-14.076373603180442728
0.291000000000000147,-14.200402057696365432
0.292000000000000148,-14.319198713790786570
0.293000000000000149,-14.432794970489268849
0.294000000000000150,-14.541224185358881726
0.295000000000000151,-14.644521877256318376
0.296000000000000152,-14.742725897600331919
0.297000000000000153,-14.835876571616893216
0.298000000000000154,-14.924016811065779820
0.299000000000000155,-15.007192200001648885
0.300000000000000155,-15.085451055152310218
0.301000000000000156,-15.158844462513423323
0.302000000000000157,-15.227426291763654476
0.303000000000000158,-15.291253190097823023
0.304000000000000159,-15.350384557060360535
0.305000000000000160,-15.404882501936961958
0.306000000000000161,-15.454811785231308718
0.307000000000000162,-15.500239745715614248
0.308000000000000163,-15.541236214500651514
0.309000000000000163,-15.577873417522980048
0.310000000000000164,-15.610225867795387344
0.311000000000000165,-15.638370248711686017
0.312000000000000166,-15.662385289639697561
0.313000000000000167,-15.682351634977303334
0.314000000000000168,-15.698351707785676012
0.315000000000000169,-15.710469569053042704
0.316000000000000170,-15.718790773580456843
0.317000000000000171,-15.723402223419814305
0.318000000000000171,-15.724392019733135939
0.319000000000000172,-15.721849313882136912
0.320000000000000173,-15.715864158497543812
0.321000000000000174,-15.706527359219791151
0.322000000000000175,-15.693930327746267395
0.323000000000000176,-15.678164936765323745
0.324000000000000177,-15.659323377304298575
0.325000000000000178,-15.637498018967438185
0.326000000000000179,-15.612781273490941913
0.327000000000000179,-15.585265461994868730
0.328000000000000180,-15.555042686266858709
0.329000000000000181,-15.522204704370389905
0.330000000000000182,-15.486842810828875372
0.331000000000000183,-15.449047721599720617
0.332000000000000184,-15.408909464015403401
0.333000000000000185,-15.366517271835320457
0.334000000000000186,-15.321959485520192601
0.335000000000000187,-15.275323457811106564
0.336000000000000187,-15.226695464667875157
0.337000000000000188,-15.176160621595496281
0.338000000000000189,-15.123802805364254809
0.339000000000000190,-15.069704581107057351
0.340000000000000191,-15.013947134757483326
0.341000000000000192,-14.956610210774485381
0.342000000000000193,-14.897772055082318943
0.343000000000000194,-14.837509363140418017
0.344000000000000195,-14.775897233043504997
0.345000000000000195,-14.713009123541379353
0.346000000000000196,-14.648916816856523582
0.347000000000000197,-14.583690386168976616
0.348000000000000198,-14.517398167629727013
0.349000000000000199,-14.450106736757103221
0.350000000000000200,-14.381880889065191909
0.351000000000000201,-14.312783624768155022
0.352000000000000202,-14.242876137401079717
0.353000000000000203,-14.172217806194893797
0.354000000000000203,-14.100866192040944824
0.355000000000000204,-14.028877036879478624
0.356000000000000205,-13.956304266345933129
0.357000000000000206,-13.883199995508920921
0.358000000000000207,-13.809614537534306677
0.359000000000000208,-13.735596415111459123
0.360000000000000209,-13.661192374478986267
0.361000000000000210,-13.586447401889751418
0.362000000000000210,-13.511404742357404629
0.363000000000000211,-13.436105920529575641
0.364000000000000212,-13.360590763536219328
0.365000000000000213,-13.284897425664834003
0.366000000000000214,-13.209062414718450995
0.367000000000000215,-13.133120619915757743
0.368000000000000216,-13.057105341197328130
0.369000000000000217,-12.981048319805774227
0.370000000000000218,-12.904979770012413809
0.371000000000000218,-12.828928411867256187
0.372000000000000219,-12.752921504853778956
0.373000000000000220,-12.676984882334707549
0.374000000000000221,-12.601142986679430891
0.375000000000000222,-12.525418904968427469
0.376000000000000223,-12.449834405174829755
0.377000000000000224,-12.374409972727766771
0.378000000000000225,-12.299164847366721887
0.379000000000000226,-12.224117060200686780
0.380000000000000226,-12.149283470890566150
0.381000000000000227,-12.074679804877296974
0.382000000000000228,-12.000320690582988448
0.383000000000000229,-11.926219696516245250
0.384000000000000230,-11.852389368217121302
0.385000000000000231,-11.778841264981386061
0.386000000000000232,-11.705585996307441121
0.387000000000000233,-11.632633258013301614
0.388000000000000234,-11.559991867974646951
0.389000000000000234,-11.487669801438789463
0.390000000000000235,-11.415674225872495029
0.391000000000000236,-11.344011535305535077
0.392000000000000237,-11.272687384134519206
0.393000000000000238,-11.201706720355222302
0.394000000000000239,-11.131073818194249014
0.395000000000000240,-11.060792310113981785
0.396000000000000241,-10.990865218167485295
0.397000000000000242,-10.921294984682642593
0.398000000000000242,-10.852083502257466208
0.399000000000000243,-10.783232143050735630
0.400000000000000244,-10.714741787354601144
0.401000000000000245,-10.646612851437982528
0.402000000000000246,-10.578845314651434961
0.403000000000000247,-10.511438745786424676
0.404000000000000248,-10.444392328683603566
0.405000000000000249,-10.377704887086576235
0.406000000000000250,-10.311374908739100675
0.407000000000000250,-10.245400568725496981
0.408000000000000251,-10.179779752055216235
0.409000000000000252,-10.114510075494123953
0.410000000000000253,-10.049588908646125418
0.411000000000000254,-9.985013394290138677
0.412000000000000255,-9.920780467978342898
0.413000000000000256,-9.856886876902844818
0.414000000000000257,-9.793329198038589922
0.415000000000000258,-9.730103855571575977
0.416000000000000258,-9.667207137621833368
0.417000000000000259,-9.604635212271684708
0.418000000000000260,-9.542384142910268707
0.419000000000000261,-9.480449902905993653
0.420000000000000262,-9.418828389619079644
0.421000000000000263,-9.357515437766945610
0.422000000000000264,-9.296506832155412070
0.423000000000000265,-9.235798319789259025
0.424000000000000266,-9.175385621376021206
0.425000000000000266,-9.115264442236917120
0.426000000000000267,-9.055430482639387435
0.427000000000000268,-8.995879447565679143
0.428000000000000269,-8.936607055932146437
0.429000000000000270,-8.877609049274068909
0.430000000000000271,-8.818881199910796553
0.431000000000000272,-8.760419318606215811
0.432000000000000273,-8.702219261739353229
0.433000000000000274,-8.644276938000144739
0.434000000000000274,-8.586588314625156926
0.435000000000000275,-8.529149423188098211
0.436000000000000276,-8.471956364959906338
0.437000000000000277,-8.415005315852903678
0.438000000000000278,-8.358292530963627343
0.439000000000000279,-8.301814348728616011
0.440000000000000280,-8.245567194707328795
0.441000000000000281,-8.189547585006181407
0.442000000000000282,-8.133752129357583627
0.443000000000000282,-8.078177533867403781
0.444000000000000283,-8.022820603444436927
0.445000000000000284,-7.967678243924870785
0.446000000000000285,-7.912747463904658218
0.447000000000000286,-7.858025376292625097
0.448000000000000287,-7.803509199596440737
0.449000000000000288,-7.749196258953891636
0.450000000000000289,-7.695083986921072317
0.451000000000000290,-7.641169924029273197
0.452000000000000290,-7.587451719121835580
0.453000000000000291,-7.533927129482002272
0.454000000000000292,-7.480594020762599605
0.455000000000000293,-7.427450366727951447
0.456000000000000294,-7.374494248818351139
0.457000000000000295,-7.321723855546890647
0.458000000000000296,-7.269137481738364492
0.459000000000000297,-7.216733527619615174
0.460000000000000298,-7.164510497770315567
0.461000000000000298,-7.112466999943092283
0.462000000000000299,-7.060601743761421467
0.463000000000000300,-7.008913539303558871
0.464000000000000301,-6.957401295580515566
0.465000000000000302,-6.906064018915738068
0.466000000000000303,-6.854900811233910929
0.467000000000000304,-6.803910868266084044
0.468000000000000305,-6.753093477678026701
0.469000000000000306,-6.702448017128408431
0.470000000000000306,-6.651973952263345424
0.471000000000000307,-6.601670834653217135
0.472000000000000308,-6.551538299677981847
0.473000000000000309,-6.501576064366365593
0.474000000000000310,-6.451783925194561675
0.475000000000000311,-6.402161755849530955
0.476000000000000312,-6.352709504962013476
0.477000000000000313,-6.303427193813869955
0.478000000000000314,-6.254314914024393879
0.479000000000000314,-6.205372825219980015
0.480000000000000315,-6.156601152691150602
0.481000000000000316,-6.108000185041066565
0.482000000000000317,-6.059570271829093357
0.483000000000000318,-6.011311821213125128
0.484000000000000319,-5.963225297593955254
0.485000000000000320,-5.915311219264975939
0.486000000000000321,-5.867570156070160081
0.487000000000000322,-5.820002727073259940
0.488000000000000322,-5.772609598240832085
0.489000000000000323,-5.725391480141768241
0.490000000000000324,-5.678349125665600461
0.491000000000000325,-5.631483327761910296
0.492000000000000326,-5.584794917202849263
0.493000000000000327,-5.538284760370883575
0.494000000000000328,-5.491953757073440912
0.495000000000000329,-5.445802838386285316
0.496000000000000330,-5.399832964527111479
0.497000000000000330,-5.354045122760910935
0.498000000000000331,-5.308440325338333210
0.499000000000000332,-5.263019607468452321
0.500000000000000333,-5.217784025326897890
0.501000000000000334,-5.172734654100491269
0.502000000000000335,-5.127872586069247340
0.503000000000000336,-5.083198928726679000
0.504000000000000337,-5.038714802939025184
0.505000000000000338,-4.994421341144157367
0.506000000000000338,-4.950319685590711671
0.507000000000000339,-4.906410986617937731
0.508000000000000340,-4.862696400976677324
0.509000000000000341,-4.819177090191915980
0.510000000000000342,-4.775854218967044318
0.511000000000000343,-4.732728953630168434
0.512000000000000344,-4.689802460622546576
0.513000000000000345,-4.647075905029308451
0.514000000000000346,-4.604550449152476688
0.515000000000000346,-4.562227251126239835
0.516000000000000347,-4.520107463574441375
0.517000000000000348,-4.478192232310255427
0.518000000000000349,-4.436482695077675231
0.519000000000000350,-4.394979980334876579
0.520000000000000351,-4.353685206079003223
0.521000000000000352,-4.312599478712240142
0.522000000000000353,-4.271723891948779439
0.523000000000000353,-4.231059525762310258
0.524000000000000354,-4.190607445373802697
0.525000000000000355,-4.150368700278957768
0.526000000000000356,-4.110344323315061388
0.527000000000000357,-4.070535329766752142
0.528000000000000358,-4.030942716510084622
0.529000000000000359,-3.991567461194607258
0.530000000000000360,-3.952410521462715653
0.531000000000000361,-3.913472834205877326
0.532000000000000361,-3.874755314857088795
0.533000000000000362,-3.836258856719029886
0.534000000000000363,-3.797984330327313529
0.535000000000000364,-3.759932582848203086
0.536000000000000365,-3.722104437510217245
0.537000000000000366,-3.684500693069003407
0.538000000000000367,-3.647122123304750829
0.539000000000000368,-3.609969476551702083
0.540000000000000369,-3.573043475258848023
0.541000000000000369,-3.536344815581421219
0.542000000000000370,-3.499874167002323677
0.543000000000000371,-3.463632171982938157
0.544000000000000372,-3.427619445642640095
0.545000000000000373,-3.391836575466329329
0.546000000000000374,-3.356284121039308843
0.547000000000000375,-3.320962613808860375
0.548000000000000376,-3.285872556871882288
0.549000000000000377,-3.251014424787876500
0.550000000000000377,-3.216388663416599236
0.551000000000000378,-3.181995689779815173
0.552000000000000379,-3.147835891946415998
0.553000000000000380,-3.113909628940276786
0.554000000000000381,-3.080217230670184048
0.555000000000000382,-3.046758997881265252
0.556000000000000383,-3.013535202127141766
0.557000000000000384,-2.980546085762352693
0.558000000000000385,-2.947791861954243586
0.559000000000000385,-2.915272714713859514
0.560000000000000386,-2.882988798945097297
0.561000000000000387,-2.850940240511614210
0.562000000000000388,-2.819127136320826121
0.563000000000000389,-2.787549554424448850
0.564000000000000390,-2.756207534134966775
0.565000000000000391,-2.725101086157478925
0.566000000000000392,-2.694230192736341234
0.567000000000000393,-2.663594807816081378
0.568000000000000393,-2.633194857215968909
0.569000000000000394,-2.603030238817763298
0.570000000000000395,-2.573100822766116735
0.571000000000000396,-2.543406451681028191
0.572000000000000397,-2.513946940881949921
0.573000000000000398,-2.484722078622936259
0.574000000000000399,-2.455731626338442997
0.575000000000000400,-2.426975318899185829
0.576000000000000401,-2.398452864877674617
0.577000000000000401,-2.370163946822942957
0.578000000000000402,-2.342108221543949487
0.579000000000000403,-2.314285320401278323
0.580000000000000404,-2.286694849606709212
0.581000000000000405,-2.259336390530152450
0.582000000000000406,-2.232209500013627057
0.583000000000000407,-2.205313710691785278
0.584000000000000408,-2.178648531318677861
0.585000000000000409,-2.152213447100288501
0.586000000000000409,-2.126007920032507492
0.587000000000000410,-2.100031389244170210
0.588000000000000411,-2.074283271344776747
0.589000000000000412,-2.048762960776586706
0.590000000000000413,-2.023469830170677053
0.591000000000000414,-1.998403230706702560
0.592000000000000415,-1.973562492476013119
0.593000000000000416,-1.948946924847775319
0.594000000000000417,-1.924555816837817179
0.595000000000000417,-1.900388437479980208
0.596000000000000418,-1.876444036199484300
0.597000000000000419,-1.852721843188291029
0.598000000000000420,-1.829221069781942877
0.599000000000000421,-1.805940908837810666
0.600000000000000422,-1.782880535114353293
0.601000000000000423,-1.760039105651245439
0.602000000000000424,-1.737415760150056609
0.603000000000000425,-1.715009621355299219
0.604000000000000425,-1.692819795435597241
0.605000000000000426,-1.670845372364754056
0.606000000000000427,-1.649085426302576041
0.607000000000000428,-1.627539015975079550
0.608000000000000429,-1.606205185054163653
0.609000000000000430,-1.585082962536222606
