# CNT15-NH3+-2_BSAI8
# h[nm],U(h)[kJ/mol]
0.149999999999999994,110.541581467011639006
0.150999999999999995,109.661341059612865934
0.151999999999999996,107.750464095387002317
0.152999999999999997,105.688994749985880617
0.153999999999999998,103.772870514611639692
0.154999999999999999,102.035922994379575357
0.156000000000000000,100.418691167025158961
0.157000000000000001,98.848880582424854424
0.158000000000000002,97.273292691446641811
0.159000000000000002,95.665003046887818527
0.160000000000000003,94.019454097689504124
0.161000000000000004,92.346895527624639044
0.162000000000000005,90.664874490638950988
0.163000000000000006,88.992332991069304171
0.164000000000000007,87.345707135317326220
0.165000000000000008,85.736851875020136049
0.166000000000000009,84.172385627957709175
0.167000000000000010,82.654005980686704902
0.168000000000000010,81.179375951889568341
0.169000000000000011,79.743264801394275310
0.170000000000000012,78.338717689058128713
0.171000000000000013,76.958109428740527846
0.172000000000000014,75.594002965502255620
0.173000000000000015,74.239781903996529877
0.174000000000000016,72.890059903767664196
0.175000000000000017,71.540890620885448925
0.176000000000000018,70.189812971845270795
0.177000000000000018,68.835770499613389006
0.178000000000000019,67.478942817656957232
0.179000000000000020,66.120523325083254917
0.180000000000000021,64.762472012309316938
0.181000000000000022,63.407266210494654501
0.182000000000000023,62.057666256024653251
0.183000000000000024,60.716507667167284978
0.184000000000000025,59.386526796597898681
0.185000000000000026,58.070223126627340093
0.186000000000000026,56.769758415804176366
0.187000000000000027,55.486890728436264908
0.188000000000000028,54.222939890526291151
0.189000000000000029,52.978780008824720937
0.190000000000000030,51.754854253250343277
0.191000000000000031,50.551207031123382762
0.192000000000000032,49.367528879049721979
0.193000000000000033,48.203209782230366898
0.194000000000000034,47.057397132470896395
0.195000000000000034,45.929055099626523884
0.196000000000000035,44.817022773442133143
0.197000000000000036,43.720069001524947794
0.198000000000000037,42.636942381747793718
0.199000000000000038,41.566415348785156425
0.200000000000000039,40.507321716117687060
0.201000000000000040,39.458587393028452084
0.202000000000000041,38.419254290915603178
0.203000000000000042,37.388497667415954595
0.204000000000000042,36.365637334965732919
0.205000000000000043,35.350143288257768859
0.206000000000000044,34.341636388922466949
0.207000000000000045,33.339884792175837447
0.208000000000000046,32.344796815522407485
0.209000000000000047,31.356410939903476276
0.210000000000000048,30.374883604479446575
0.211000000000000049,29.400475412485945981
0.212000000000000050,28.433536311642541250
0.213000000000000050,27.474490252139950996
0.214000000000000051,26.523819761389006544
0.215000000000000052,25.582050810030409593
0.216000000000000053,24.649738280198615570
0.217000000000000054,23.727452286263602588
0.218000000000000055,22.815765541391982651
0.219000000000000056,21.915241911072094183
0.220000000000000057,21.026426247734168129
0.221000000000000058,20.149835559029657617
0.222000000000000058,19.285951526258532596
0.223000000000000059,18.435214358759616005
0.224000000000000060,17.598017944575953919
0.225000000000000061,16.774706237069302972
0.226000000000000062,15.965570801010253277
0.227000000000000063,15.170849429602910163
0.228000000000000064,14.390725735484874548
0.229000000000000065,13.625329613535958728
0.230000000000000066,12.874738470907880483
0.231000000000000066,12.138979119633670933
0.232000000000000067,11.418030229104862983
0.233000000000000068,10.711825239249739283
0.234000000000000069,10.020255640077778025
0.235000000000000070,9.343174529072273415
0.236000000000000071,8.680400364449344153
0.237000000000000072,8.031720839318856164
0.238000000000000073,7.396896809081527913
0.239000000000000073,6.775666211799816097
0.240000000000000074,6.167747928640153532
0.241000000000000075,5.572845538684346067
0.242000000000000076,4.990650929346493569
0.243000000000000077,4.420847730233463224
0.244000000000000078,3.863114544494946845
0.245000000000000079,3.317127957479692135
0.246000000000000080,2.782565307823108292
0.247000000000000081,2.259107210919473196
0.248000000000000081,1.746439829078809236
0.249000000000000082,1.244256886535483941
0.250000000000000111,0.752261430874448189
0.251000000000000112,0.270167345389640989
0.252000000000000113,-0.202299380593897016
0.253000000000000114,-0.665399614287776719
0.254000000000000115,-1.119380264018742466
0.255000000000000115,-1.564473673552565725
0.256000000000000116,-2.000897212834630956
0.257000000000000117,-2.428853051045382294
0.258000000000000118,-2.848528097357031719
0.259000000000000119,-3.260094094500479489
0.260000000000000120,-3.663707850179258152
0.261000000000000121,-4.059511591473898839
0.262000000000000122,-4.447633427642565529
0.263000000000000123,-4.828187907115730759
0.264000000000000123,-5.201276654985713677
0.265000000000000124,-5.566989077882968040
0.266000000000000125,-5.925403123794238169
0.267000000000000126,-6.276586085094642442
0.268000000000000127,-6.620595433823441844
0.269000000000000128,-6.957479679015588836
0.270000000000000129,-7.287279236699211182
0.271000000000000130,-7.610027303971163448
0.272000000000000131,-7.925750729358850499
0.273000000000000131,-8.234470872461272961
0.274000000000000132,-8.536204446626669551
0.275000000000000133,-8.830964339164642851
0.276000000000000134,-9.118760404302038935
0.277000000000000135,-9.399600224769631751
0.278000000000000136,-9.673489838550787923
0.279000000000000137,-9.940434427928545702
0.280000000000000138,-10.200438968534481177
0.281000000000000139,-10.453508836630955869
0.282000000000000139,-10.699650373345390264
0.283000000000000140,-10.938871405023997241
0.284000000000000141,-11.171181719281062072
0.285000000000000142,-11.396593496690957892
0.286000000000000143,-11.615121698403466866
0.287000000000000144,-11.826784410260948732
0.288000000000000145,-12.031603144259419125
0.289000000000000146,-12.229603098425849694
0.290000000000000147,-12.420813376384284510
0.291000000000000147,-12.605267168053234883
0.292000000000000148,-12.783001893060440324
0.293000000000000149,-12.954059308577901888
0.294000000000000150,-13.118485583374559056
0.295000000000000151,-13.276331339955451227
0.296000000000000152,-13.427651666708367628
0.297000000000000153,-13.572506102012278362
0.298000000000000154,-13.710958592279112622
0.299000000000000155,-13.843077425902142963
0.300000000000000155,-13.968935145072938653
0.301000000000000156,-14.088608437405383711
0.302000000000000157,-14.202178009271515080
0.303000000000000158,-14.309728442710763829
0.304000000000000159,-14.411348037723247018
0.305000000000000160,-14.507128641699907234
0.306000000000000161,-14.597165467679058537
0.307000000000000162,-14.681556903050756446
0.308000000000000163,-14.760404310258314453
0.309000000000000163,-14.833811820971979145
0.310000000000000164,-14.901886125132687511
0.311000000000000165,-14.964736256185592111
0.312000000000000166,-15.022473373744144709
0.313000000000000167,-15.075210544846331828
0.314000000000000168,-15.123062524885574121
0.315000000000000169,-15.166145539220959648
0.316000000000000170,-15.204577066394492135
0.317000000000000171,-15.238475623807502757
0.318000000000000171,-15.267960556634870173
0.319000000000000172,-15.293151830684390546
0.320000000000000173,-15.314169829839178405
0.321000000000000174,-15.331135158654438655
0.322000000000000175,-15.344168450615830679
0.323000000000000176,-15.353390182505439299
0.324000000000000177,-15.358920495262712080
0.325000000000000178,-15.360879021672067424
0.326000000000000179,-15.359384721156553510
0.327000000000000179,-15.354555721906706367
0.328000000000000180,-15.346509170527161459
0.329000000000000181,-15.335361089339878404
0.330000000000000182,-15.321226241441166849
0.331000000000000183,-15.304218003572369611
0.332000000000000184,-15.284448246827746942
0.333000000000000185,-15.262027225190877289
0.334000000000000186,-15.237063471860679442
0.335000000000000187,-15.209663703300327242
0.336000000000000187,-15.179932730917604644
0.337000000000000188,-15.147973380261740672
0.338000000000000189,-15.113886417602092394
0.339000000000000190,-15.077770483734946438
0.340000000000000191,-15.039722034848518106
0.341000000000000192,-14.999835290262140575
0.342000000000000193,-14.958202186842635584
0.343000000000000194,-14.914912339890383564
0.344000000000000195,-14.870053010278159178
0.345000000000000195,-14.823709077618516972
0.346000000000000196,-14.775963019228992579
0.347000000000000197,-14.726894894659722013
0.348000000000000198,-14.676582335544598124
0.349000000000000199,-14.625100540534432980
0.350000000000000200,-14.572522275069584197
0.351000000000000201,-14.518917875748883262
0.352000000000000202,-14.464355259052425140
0.353000000000000203,-14.408899934177336277
0.354000000000000203,-14.352615019747542391
0.355000000000000204,-14.295561264161648296
0.356000000000000205,-14.237797069346342482
0.357000000000000206,-14.179378517687236894
0.358000000000000207,-14.120359401912844888
0.359000000000000208,-14.060791257713143310
0.360000000000000209,-14.000723398879207693
0.361000000000000210,-13.940202954755935849
0.362000000000000210,-13.879274909806301963
0.363000000000000211,-13.817982145091386670
0.364000000000000212,-13.756365481477221380
0.365000000000000213,-13.694463724385746772
0.366000000000000214,-13.632313709914203770
0.367000000000000215,-13.569950352153744788
0.368000000000000216,-13.507406691545302380
0.369000000000000217,-13.444713944117186344
0.370000000000000218,-13.381901551456270028
0.371000000000000218,-13.318997231270961024
0.372000000000000219,-13.256027028411381252
0.373000000000000220,-13.193015366218835638
0.374000000000000221,-13.129985098083205131
0.375000000000000222,-13.066957559093518526
0.376000000000000223,-13.003952617673641967
0.377000000000000224,-12.940988727101043310
0.378000000000000225,-12.878082976813027827
0.379000000000000226,-12.815251143410730350
0.380000000000000226,-12.752507741277378628
0.381000000000000227,-12.689866072732542079
0.382000000000000228,-12.627338277650308029
0.383000000000000229,-12.564935382474216041
0.384000000000000230,-12.502667348567204186
0.385000000000000231,-12.440543119840071995
0.386000000000000232,-12.378570669606418164
0.387000000000000233,-12.316757046617093252
0.388000000000000234,-12.255108420231428212
0.389000000000000234,-12.193630124687146576
0.390000000000000235,-12.132326702434493626
0.391000000000000236,-12.071201946504785951
0.392000000000000237,-12.010258941886590378
0.393000000000000238,-11.949500105887086221
0.394000000000000239,-11.888927227458900404
0.395000000000000240,-11.828541505476584561
0.396000000000000241,-11.768343585949553542
0.397000000000000242,-11.708333598161360101
0.398000000000000242,-11.648511189728123938
0.399000000000000243,-11.588875560571191059
0.400000000000000244,-11.529425495801811863
0.401000000000000245,-11.470159397517948108
0.402000000000000246,-11.411075315515200046
0.403000000000000247,-11.352170976916164946
0.404000000000000248,-11.293443814724270169
0.405000000000000249,-11.234890995309910977
0.406000000000000250,-11.176509444838263363
0.407000000000000250,-11.118295874649835042
0.408000000000000251,-11.060246805605952858
0.409000000000000252,-11.002358591412871647
0.410000000000000253,-10.944627440939243002
0.411000000000000254,-10.887049439542730411
0.412000000000000255,-10.829620569422559129
0.413000000000000256,-10.772336729015725254
0.414000000000000257,-10.715193751455105442
0.415000000000000258,-10.658187422108769127
0.416000000000000258,-10.601313495220065164
0.417000000000000259,-10.544567709668779543
0.418000000000000260,-10.487945803874106687
0.419000000000000261,-10.431443529860358055
0.420000000000000262,-10.375056666507031622
0.421000000000000263,-10.318781032004739728
0.422000000000000264,-10.262612495538871116
0.423000000000000265,-10.206546988223013983
0.424000000000000266,-10.150580513304301888
0.425000000000000266,-10.094709155662618727
0.426000000000000267,-10.038929090626000473
0.427000000000000268,-9.983236592124173470
0.428000000000000269,-9.927628040202247206
0.429000000000000270,-9.872099927916547557
0.430000000000000271,-9.816648867634063080
0.431000000000000272,-9.761271596757307378
0.432000000000000273,-9.705964982895668669
0.433000000000000274,-9.650726028504495346
0.434000000000000274,-9.595551875012507281
0.435000000000000275,-9.540439806458232752
0.436000000000000276,-9.485387252655547385
0.437000000000000277,-9.430391791908142807
0.438000000000000278,-9.375451153292505779
0.439000000000000279,-9.320563218528549854
0.440000000000000280,-9.265726023456583249
0.441000000000000281,-9.210937759139090630
0.442000000000000282,-9.156196772605307288
0.443000000000000282,-9.101501567256059744
0.444000000000000283,-9.046850802946197589
0.445000000000000284,-8.992243295761269906
0.446000000000000285,-8.937678017504724792
0.447000000000000286,-8.883154094911724030
0.448000000000000287,-8.828670808604780262
0.449000000000000288,-8.774227591806532445
0.450000000000000289,-8.719824028824010753
0.451000000000000290,-8.665459853318740358
0.452000000000000290,-8.611134946376383326
0.453000000000000291,-8.556849334389191597
0.454000000000000292,-8.502603186764252641
0.455000000000000293,-8.448396813469864597
0.456000000000000294,-8.394230662432217827
0.457000000000000295,-8.340105316793970047
0.458000000000000296,-8.286021492045865244
0.459000000000000297,-8.231980033042349376
0.460000000000000298,-8.177981910911453767
0.461000000000000298,-8.124028219869112277
0.462000000000000299,-8.070120173947419318
0.463000000000000300,-8.016259103646133255
0.464000000000000301,-7.962446452516337203
0.465000000000000302,-7.908683773684731300
0.466000000000000303,-7.854972726326685972
0.467000000000000304,-7.801315072095900582
0.468000000000000305,-7.747712671518118377
0.469000000000000306,-7.694167480355927680
0.470000000000000306,-7.640681545951643727
0.471000000000000307,-7.587257003554421786
0.472000000000000308,-7.533896072638090580
0.473000000000000309,-7.480601053215305107
0.474000000000000310,-7.427374322153679209
0.475000000000000311,-7.374218329499119484
0.476000000000000312,-7.321135594811437386
0.477000000000000313,-7.268128703516768319
0.478000000000000314,-7.215200303281358529
0.479000000000000314,-7.162353100410975060
0.480000000000000315,-7.109589856279647790
0.481000000000000316,-7.056913383791692418
0.482000000000000317,-7.004326543880293521
0.483000000000000318,-6.951832242045964172
0.484000000000000319,-6.899433424937885029
0.485000000000000320,-6.847133076980942867
0.486000000000000321,-6.794934217051048719
0.487000000000000322,-6.742839895201162115
0.488000000000000322,-6.690853189440190363
0.489000000000000323,-6.638977202566908709
0.490000000000000324,-6.587215059060672395
0.491000000000000325,-6.535569902030644585
0.492000000000000326,-6.484044890225031388
0.493000000000000327,-6.432643195101817923
0.494000000000000328,-6.381367997962097860
0.495000000000000329,-6.330222487147194599
0.496000000000000330,-6.279209855300420529
0.497000000000000330,-6.228333296694442467
0.498000000000000331,-6.177596004624728465
0.499000000000000332,-6.127001168869943726
0.500000000000000333,-6.076551973219492808
0.501000000000000334,-6.026251593068701951
0.502000000000000335,-5.976103193081881315
0.503000000000000336,-5.926109924923404826
0.504000000000000337,-5.876274925056881315
0.505000000000000338,-5.826601312612369021
0.506000000000000338,-5.777092187321565930
0.507000000000000339,-5.727750627520753035
0.508000000000000340,-5.678579688221195632
0.509000000000000341,-5.629582399246826796
0.510000000000000342,-5.580761763438577105
0.511000000000000343,-5.532120754925093919
0.512000000000000344,-5.483662317459197411
0.513000000000000345,-5.435389362819561754
0.514000000000000346,-5.387304769277017513
0.515000000000000346,-5.339411380124702511
0.516000000000000347,-5.291712002271419024
0.517000000000000348,-5.244209404897474336
0.518000000000000349,-5.196906318172038297
0.519000000000000350,-5.149805432031397068
0.520000000000000351,-5.102909395017038108
0.521000000000000352,-5.056220813172840778
0.522000000000000353,-5.009742249000316505
0.523000000000000353,-4.963476220470941946
0.524000000000000354,-4.917425200094801774
0.525000000000000355,-4.871591614044255003
0.526000000000000356,-4.825977841331850371
0.527000000000000357,-4.780586213041380539
0.528000000000000358,-4.735419011610948914
0.529000000000000359,-4.690478470167190217
0.530000000000000360,-4.645766771909346282
0.531000000000000361,-4.601286049542334666
0.532000000000000361,-4.557038384757568394
0.533000000000000362,-4.513025807760554287
0.534000000000000363,-4.469250296844114345
0.535000000000000364,-4.425713778006155508
0.536000000000000365,-4.382418124610918397
0.537000000000000366,-4.339365157092593961
0.538000000000000367,-4.296556642700160467
0.539000000000000368,-4.253994295282537585
0.540000000000000369,-4.211679775112687985
0.541000000000000369,-4.169614688749886611
0.542000000000000370,-4.127800588938855597
0.543000000000000371,-4.086238974544816216
0.544000000000000372,-4.044931290523376077
0.545000000000000373,-4.003878927924205300
0.546000000000000374,-3.963083223927393650
0.547000000000000375,-3.922545461911566722
0.548000000000000376,-3.882266871552682908
0.549000000000000377,-3.842248628952494194
0.550000000000000377,-3.802491856795656933
0.551000000000000378,-3.762997624534566654
0.552000000000000379,-3.723766948600908844
0.553000000000000380,-3.684800792642948686
0.554000000000000381,-3.646100067787608534
0.555000000000000382,-3.607665632926508437
0.556000000000000383,-3.569498295024827517
0.557000000000000384,-3.531598809452356047
0.558000000000000385,-3.493967880335600906
0.559000000000000385,-3.456606160930253857
0.560000000000000386,-3.419514254013036769
0.561000000000000387,-3.382692712292174608
0.562000000000000388,-3.346142038835581811
0.563000000000000389,-3.309862687516030633
0.564000000000000390,-3.273855063472437710
0.565000000000000391,-3.238119523586528548
0.566000000000000392,-3.202656376974096109
0.567000000000000393,-3.167465885490131416
0.568000000000000393,-3.132548264247035696
0.569000000000000394,-3.097903682145244808
0.570000000000000395,-3.063532262415595397
0.571000000000000396,-3.029434083172621861
0.572000000000000397,-2.995609177978286297
0.573000000000000398,-2.962057536415329206
0.574000000000000399,-2.928779104669736011
0.575000000000000400,-2.895773786121568882
0.576000000000000401,-2.863041441943667387
0.577000000000000401,-2.830581891707602882
0.578000000000000402,-2.798394913996232525
0.579000000000000403,-2.766480247022382599
0.580000000000000404,-2.734837589253116708
0.581000000000000405,-2.703466600038969769
0.582000000000000406,-2.672366900247745924
0.583000000000000407,-2.641538072902271495
0.584000000000000408,-2.610979663821717534
0.585000000000000409,-2.580691182265948846
0.586000000000000409,-2.550672101582459383
0.587000000000000410,-2.520921859855481451
0.588000000000000411,-2.491439860556780239
0.589000000000000412,-2.462225473197795722
0.590000000000000413,-2.433278033982630539
0.591000000000000414,-2.404596846461577453
0.592000000000000415,-2.376181182184802232
0.593000000000000416,-2.348030281355734328
0.594000000000000417,-2.320143353483901549
0.595000000000000417,-2.292519578036901429
0.596000000000000418,-2.265158105090982588
0.597000000000000419,-2.238058055980221006
0.598000000000000420,-2.211218523943689895
0.599000000000000421,-2.184638574770558339
0.600000000000000422,-2.158317247442687492
0.601000000000000423,-2.132253554774550697
0.602000000000000424,-2.106446484050154666
0.603000000000000425,-2.080894997656746348
0.604000000000000425,-2.055598033715058559
0.605000000000000426,-2.030554506705846585
0.606000000000000427,-2.005763308092579411
0.607000000000000428,-1.981223306939877249
0.608000000000000429,-1.956933350527819471
0.609000000000000430,-1.932892264961540763
