# GoldBrush_ASNSCA-AC
# h[nm],U(h)[kJ/mol]
0.200000000000000011,56.196137072573264959
0.201000000000000012,52.789861072195456870
0.202000000000000013,50.646970761482059231
0.203000000000000014,49.111295648451836371
0.204000000000000015,47.806299350596688669
0.205000000000000016,46.534750468838730342
0.206000000000000016,45.209854955058531800
0.207000000000000017,43.808965338946073587
0.208000000000000018,42.343295392694621171
0.209000000000000019,40.838816391825631058
0.210000000000000020,39.324824880798814775
0.211000000000000021,37.827653969072471796
0.212000000000000022,36.367729725968025889
0.213000000000000023,34.958712217755831375
0.214000000000000024,33.607854083622456187
0.215000000000000024,32.316994293124444937
0.216000000000000025,31.083808400307368913
0.217000000000000026,29.903080178627124752
0.218000000000000027,28.767858887919988575
0.219000000000000028,27.670433589952530440
0.220000000000000029,26.603099898041609350
0.221000000000000030,25.558722034196183159
0.222000000000000031,24.531109044894666482
0.223000000000000032,23.515232141523043197
0.224000000000000032,22.507313032764781013
0.225000000000000033,21.504812703878869229
0.226000000000000034,20.506347713586329462
0.227000000000000035,19.511557652155609333
0.228000000000000036,18.520943560709728359
0.229000000000000037,17.535693259090983531
0.230000000000000038,16.557505918472905648
0.231000000000000039,15.588424985890645402
0.232000000000000040,14.630685785919430586
0.233000000000000040,13.686581804385744121
0.234000000000000041,12.758351782581486944
0.235000000000000042,11.848088281127919785
0.236000000000000043,10.957667263494975884
0.237000000000000044,10.088697449478257084
0.238000000000000045,9.242487648192032168
0.239000000000000046,8.420029950738470603
0.240000000000000047,7.621996501390808199
0.241000000000000048,6.848747534710781792
0.242000000000000048,6.100348431633274338
0.243000000000000049,5.376593682503981952
0.244000000000000050,4.677035826510442362
0.245000000000000051,4.001017646440557129
0.246000000000000052,3.347706120672101271
0.247000000000000053,2.716126859513804614
0.248000000000000054,2.105197972117992755
0.249000000000000055,1.513762517170224253
0.250000000000000056,0.940618881383498695
0.251000000000000056,0.384548602003068563
0.252000000000000057,-0.155658698184353017
0.253000000000000058,-0.681183462737052769
0.254000000000000059,-1.193157527396319972
0.255000000000000060,-1.692648613408026304
0.256000000000000061,-2.180647905864422142
0.257000000000000062,-2.658060574615236149
0.258000000000000063,-3.125699049677652663
0.259000000000000064,-3.584278830139181249
0.260000000000000064,-4.034416583632022046
0.261000000000000065,-4.476630280958262986
0.262000000000000066,-4.911341105855997036
0.263000000000000067,-5.338876881819615505
0.264000000000000068,-5.759476765056762204
0.265000000000000069,-6.173296963942552118
0.266000000000000070,-6.580417259712204370
0.267000000000000071,-6.980848119742411484
0.268000000000000071,-7.374538212853297026
0.269000000000000072,-7.761382154979658665
0.270000000000000073,-8.141228332777988186
0.271000000000000074,-8.513886671816763396
0.272000000000000075,-8.879136234591879173
0.273000000000000076,-9.236732551439384764
0.274000000000000077,-9.586414604278211016
0.275000000000000078,-9.927911398853620284
0.276000000000000079,-10.260948075668242296
0.277000000000000079,-10.585251523022623843
0.278000000000000080,-10.900555467515268049
0.279000000000000081,-11.206605027980508282
0.280000000000000082,-11.503160728195314988
0.281000000000000083,-11.790001971811300052
0.282000000000000084,-12.066929989923025346
0.283000000000000085,-12.333770277538757654
0.284000000000000086,-12.590374540051023189
0.285000000000000087,-12.836622174691473930
0.286000000000000087,-13.072421314981619744
0.287000000000000088,-13.297709468439730784
0.288000000000000089,-13.512453779356771832
0.289000000000000090,-13.716650949390066572
0.290000000000000091,-13.910326849117685910
0.291000000000000092,-14.093535853622876530
0.292000000000000093,-14.266359934702038004
0.293000000000000094,-14.428907541476002407
0.294000000000000095,-14.581312300089891210
0.295000000000000095,-14.723731561865417206
0.296000000000000096,-14.856344827767880901
0.297000000000000097,-14.979352075413027379
0.298000000000000098,-15.092972013103684858
0.299000000000000099,-15.197440283587511090
0.300000000000000100,-15.293007638394787051
0.301000000000000101,-15.379938101774900616
0.302000000000000102,-15.458507141424314923
0.303000000000000103,-15.528999861406365568
0.304000000000000103,-15.591709230919139628
0.305000000000000104,-15.646934360886131543
0.306000000000000105,-15.694978838734453319
0.307000000000000106,-15.736149130195631329
0.308000000000000107,-15.770753055520708941
0.309000000000000108,-15.799098346148065630
0.310000000000000109,-15.821491286602201498
0.311000000000000110,-15.838235445235245180
0.312000000000000111,-15.849630496351474918
0.313000000000000111,-15.855971135275538586
0.314000000000000112,-15.857546087038144833
0.315000000000000113,-15.854637208553622685
0.316000000000000114,-15.847518683450985577
0.317000000000000115,-15.836456308088788347
0.318000000000000116,-15.821706866731156893
0.319000000000000117,-15.803517593383329398
0.320000000000000118,-15.782125717375702578
0.321000000000000119,-15.757758089440878635
0.322000000000000119,-15.730630884744675413
0.323000000000000120,-15.700949379104192971
0.324000000000000121,-15.668907794450172233
0.325000000000000122,-15.634689209461942738
0.326000000000000123,-15.598465531217652114
0.327000000000000124,-15.560397523655183250
0.328000000000000125,-15.520634888627734327
0.329000000000000126,-15.479316395356818248
0.330000000000000127,-15.436570054132374707
0.331000000000000127,-15.392513330181065712
0.332000000000000128,-15.347253393715499570
0.333000000000000129,-15.300887402287955297
0.334000000000000130,-15.253502811697263297
0.335000000000000131,-15.205177711836597609
0.336000000000000132,-15.155981184018276764
0.337000000000000133,-15.105973676469195865
0.338000000000000134,-15.055207394854125624
0.339000000000000135,-15.003726704851867879
0.340000000000000135,-14.951568543980602755
0.341000000000000136,-14.898762840040973288
0.342000000000000137,-14.845332933718117019
0.343000000000000138,-14.791296003055474984
0.344000000000000139,-14.736663487682715612
0.345000000000000140,-14.681441510846880760
0.346000000000000141,-14.625631297458777880
0.347000000000000142,-14.569229586525214160
0.348000000000000143,-14.512229036491712364
0.349000000000000143,-14.454618622168391440
0.350000000000000144,-14.396384022054732554
0.351000000000000145,-14.337507995015320361
0.352000000000000146,-14.277970745389335860
0.353000000000000147,-14.217750275740332455
0.354000000000000148,-14.156822726570556625
0.355000000000000149,-14.095162702434910429
0.356000000000000150,-14.032743583994028214
0.357000000000000151,-13.969537825643900675
0.358000000000000151,-13.905517238450869399
0.359000000000000152,-13.840653258205847465
0.360000000000000153,-13.774917198490637560
0.361000000000000154,-13.708280488721928947
0.362000000000000155,-13.640714897205622691
0.363000000000000156,-13.572192739295378061
0.364000000000000157,-13.502687070804972436
0.365000000000000158,-13.432171866874941912
0.366000000000000159,-13.360622186539099943
0.367000000000000159,-13.288014323277469231
0.368000000000000160,-13.214325941878295012
0.369000000000000161,-13.139536201963522899
0.370000000000000162,-13.063625868559807230
0.371000000000000163,-12.986577410121165954
0.372000000000000164,-12.908375084429110302
0.373000000000000165,-12.829005012813478714
0.374000000000000166,-12.748455243150219829
0.375000000000000167,-12.666715802103254873
0.376000000000000167,-12.583778737085442145
0.377000000000000168,-12.499638148418831918
0.378000000000000169,-12.414290212177306216
0.379000000000000170,-12.327733194195761968
0.380000000000000171,-12.239967455728320900
0.381000000000000172,-12.150995451235594658
0.382000000000000173,-12.060821718775761369
0.383000000000000174,-11.969452863468740489
0.384000000000000175,-11.876897534494707642
0.385000000000000175,-11.783166396079947091
0.386000000000000176,-11.688272092913161160
0.387000000000000177,-11.592229210424768837
0.388000000000000178,-11.495054230350458369
0.389000000000000179,-11.396765481987880975
0.390000000000000180,-11.297383089543043155
0.391000000000000181,-11.196928915949456496
0.392000000000000182,-11.095426503529909112
0.393000000000000183,-10.992901011856471172
0.394000000000000183,-10.889379153150652968
0.395000000000000184,-10.784889125551110567
0.396000000000000185,-10.679460544562100921
0.397000000000000186,-10.573124372981574481
0.398000000000000187,-10.465912849593310696
0.399000000000000188,-10.357859416893408167
0.400000000000000189,-10.248998648107354725
0.401000000000000190,-10.139366173739654542
0.402000000000000191,-10.028998607884769712
0.403000000000000191,-9.917933474514033065
0.404000000000000192,-9.806209133940416933
0.405000000000000193,-9.693864709649833600
0.406000000000000194,-9.580940015675041721
0.407000000000000195,-9.467475484676151964
0.408000000000000196,-9.353512096879319060
0.409000000000000197,-9.239091310014089231
0.410000000000000198,-9.124254990378446450
0.411000000000000199,-9.009045345149655049
0.412000000000000199,-8.893504856048753737
0.413000000000000200,-8.777676214456473502
0.414000000000000201,-8.661602258068562321
0.415000000000000202,-8.545325909169365630
0.416000000000000203,-8.428890114593674099
0.417000000000000204,-8.312337787438245584
0.418000000000000205,-8.195711750576489152
0.419000000000000206,-8.079054682022118072
0.420000000000000207,-7.962409062180013208
0.421000000000000207,-7.845817123016137096
0.422000000000000208,-7.729320799171132350
0.423000000000000209,-7.612961681036724215
0.424000000000000210,-7.496780969807630868
0.425000000000000211,-7.380819434516602939
0.426000000000000212,-7.265117371054877538
0.427000000000000213,-7.149714563175495030
0.428000000000000214,-7.034650245472602315
0.429000000000000214,-6.919963068325424516
0.430000000000000215,-6.805691064791824729
0.431000000000000216,-6.691871619432889773
0.432000000000000217,-6.578541439046292183
0.433000000000000218,-6.465736525283463543
0.434000000000000219,-6.353492149122637933
0.435000000000000220,-6.241842827167270791
0.436000000000000221,-6.130822299737022085
0.437000000000000222,-6.020463510716377975
0.438000000000000222,-5.910798589124150126
0.439000000000000223,-5.801858832365323515
0.440000000000000224,-5.693674691125300669
0.441000000000000225,-5.586275755865170112
0.442000000000000226,-5.479690744875793662
0.443000000000000227,-5.373947493847078150
0.444000000000000228,-5.269072946908476496
0.445000000000000229,-5.165093149095743463
0.446000000000000230,-5.062033240198681838
0.447000000000000230,-4.959917449944123646
0.448000000000000231,-4.858769094468177840
0.449000000000000232,-4.758610574031565399
0.450000000000000233,-4.659463371932004883
0.451000000000000234,-4.561348054567408994
0.452000000000000235,-4.464284272604113646
0.453000000000000236,-4.368290763204345062
0.454000000000000237,-4.273385353267705078
0.455000000000000238,-4.179584963641631568
0.456000000000000238,-4.086905614256505004
0.457000000000000239,-3.995362430141343957
0.458000000000000240,-3.904969648276997329
0.459000000000000241,-3.815740625243897455
0.460000000000000242,-3.727687845622732254
0.461000000000000243,-3.640822931106538540
0.462000000000000244,-3.555156650284069464
0.463000000000000245,-3.470698929054548465
0.464000000000000246,-3.387458861635303187
0.465000000000000246,-3.305444722124254220
0.466000000000000247,-3.224663976580335767
0.467000000000000248,-3.145123295585714018
0.468000000000000249,-3.066828567254812121
0.469000000000000250,-2.989784910655809647
0.470000000000000251,-2.913996689611523472
0.471000000000000252,-2.839467526847294199
0.472000000000000253,-2.766200318454741236
0.473000000000000254,-2.694197248640946896
0.474000000000000254,-2.623459804733829337
0.475000000000000255,-2.553988792415321729
0.476000000000000256,-2.485784351154938232
0.477000000000000257,-2.418845969817430497
0.478000000000000258,-2.353172502418905854
0.479000000000000259,-2.288762184007075984
0.480000000000000260,-2.225612646641992765
0.481000000000000261,-2.163720935454601424
0.482000000000000262,-2.103083524761557577
0.483000000000000262,-2.043696334215352461
0.484000000000000263,-1.985554744969943997
0.485000000000000264,-1.928653615842825575
0.486000000000000265,-1.872987299455406429
0.487000000000000266,-1.818549658334384089
0.488000000000000267,-1.765334080957573049
0.489000000000000268,-1.713333497728673604
0.490000000000000269,-1.662540396865901160
0.491000000000000270,-1.612946840190612630
0.492000000000000270,-1.564544478802391225
0.493000000000000271,-1.517324568628166892
0.494000000000000272,-1.471277985833407298
0.495000000000000273,-1.426395242084212756
0.496000000000000274,-1.382666499649938929
0.497000000000000275,-1.340081586336357322
0.498000000000000276,-1.298630010240361177
0.499000000000000277,-1.258300974317541066
0.500000000000000222,-1.219083390754738483
0.501000000000000334,-1.180965895140223765
0.502000000000000224,-1.143936860424754398
0.503000000000000336,-1.107984410667132380
0.504000000000000226,-1.073096434558792556
0.505000000000000338,-1.039260598721935658
0.506000000000000227,-1.006464360776839984
0.507000000000000339,-0.974694982173780922
0.508000000000000229,-0.943939540786083109
0.509000000000000341,-0.914184943260763161
0.510000000000000231,-0.885417937124059029
0.511000000000000343,-0.857625122639113613
0.512000000000000233,-0.830792964413931356
0.513000000000000345,-0.804907802757674040
0.514000000000000234,-0.779955864784132258
0.515000000000000346,-0.755923275261054739
0.516000000000000236,-0.732796067204914192
0.517000000000000348,-0.710560192220480724
0.518000000000000238,-0.689201530585229705
0.519000000000000350,-0.668705901078677556
0.520000000000000240,-0.649059070557157503
0.521000000000000352,-0.630246763274671329
0.522000000000000242,-0.612254669950799135
0.523000000000000353,-0.595068456586801298
0.524000000000000243,-0.578673773031330496
0.525000000000000355,-0.563056261297286809
0.526000000000000245,-0.548201563631673161
0.527000000000000357,-0.534095330340307983
0.528000000000000247,-0.520723227369651043
0.529000000000000359,-0.508070943647882967
0.530000000000000249,-0.496124198187819165
0.531000000000000361,-0.484868746954113750
0.532000000000000250,-0.474290389497570630
0.533000000000000362,-0.464374975359267417
0.534000000000000252,-0.455108410247522410
0.535000000000000364,-0.446476661990717116
0.536000000000000254,-0.438465766269075963
0.537000000000000366,-0.431061832128647904
0.538000000000000256,-0.424251047280808702
0.539000000000000368,-0.418019683190583524
0.540000000000000258,-0.412354099957307874
0.541000000000000369,-0.407240750991033351
0.542000000000000259,-0.402666187488282090
0.543000000000000371,-0.398617062710675429
0.544000000000000261,-0.395080136070127153
0.545000000000000373,-0.392042277024176156
0.546000000000000263,-0.389490468785197108
0.547000000000000375,-0.387411811847174992
0.548000000000000265,-0.385793527333746500
0.549000000000000377,-0.384622960171278505
0.550000000000000266,-0.383887582090651880
0.551000000000000378,-0.383574994461589713
0.552000000000000268,-0.383672930963183501
0.553000000000000380,-0.384169260094395504
0.554000000000000270,-0.385051987528266249
0.555000000000000382,-0.386309258313524695
0.556000000000000272,-0.387929358927327050
0.557000000000000384,-0.389900719182758759
0.558000000000000274,-0.392211913994838124
0.559000000000000385,-0.394851665008570885
0.560000000000000275,-0.397808842092741033
0.561000000000000387,-0.401072464702979636
0.562000000000000277,-0.404631703117644848
0.563000000000000389,-0.408475879550093346
0.564000000000000279,-0.412594469140759923
0.565000000000000391,-0.416977100832539027
0.566000000000000281,-0.421613558132815647
0.567000000000000393,-0.426493779765579450
0.568000000000000282,-0.431607860216901229
0.569000000000000394,-0.436946050177063783
0.570000000000000284,-0.442498756882552358
0.571000000000000396,-0.448256544361175624
0.572000000000000286,-0.454210133583368758
0.573000000000000398,-0.460350402522824553
0.574000000000000288,-0.466668386129467927
0.575000000000000400,-0.473155276217850251
0.576000000000000290,-0.479802421273767266
0.577000000000000401,-0.486601326182169724
0.578000000000000291,-0.493543651879079726
0.579000000000000403,-0.500621214930373482
0.580000000000000293,-0.507825987040150695
0.581000000000000405,-0.515150094491440780
0.582000000000000295,-0.522585817521767138
0.583000000000000407,-0.530125589636313732
0.584000000000000297,-0.537761996861080616
0.585000000000000409,-0.545487776938655911
0.586000000000000298,-0.553295818468893752
0.587000000000000410,-0.561179159997029386
0.588000000000000300,-0.569130989051420344
0.589000000000000412,-0.577144641133312097
0.590000000000000302,-0.585213598660748291
0.591000000000000414,-0.593331489868921813
0.592000000000000304,-0.601492087668953901
0.593000000000000416,-0.609689308467303848
0.594000000000000306,-0.617917210947745210
0.595000000000000417,-0.626169994817955100
0.596000000000000307,-0.634441999522545097
0.597000000000000419,-0.642727702924532407
0.598000000000000309,-0.651021719957007527
0.599000000000000421,-0.659318801246756458
0.600000000000000311,-0.667613831711653782
0.601000000000000423,-0.675901829133462528
0.602000000000000313,-0.684177942707665299
0.603000000000000425,-0.692437451571983553
0.604000000000000314,-0.700675763315077083
0.605000000000000426,-0.708888412466982309
0.606000000000000316,-0.717071058972711173
0.607000000000000428,-0.725219486650449441
0.608000000000000318,-0.733329601635747119
0.609000000000000430,-0.741397430813035996
0.610000000000000320,-0.749419120235716107
0.611000000000000432,-0.757390933536181143
0.612000000000000322,-0.765309250326862811
0.613000000000000433,-0.773170564593592013
0.614000000000000323,-0.780971483082340989
0.615000000000000435,-0.788708723680491497
0.616000000000000325,-0.796379113793647897
0.617000000000000437,-0.803979588719096916
0.618000000000000327,-0.811507190016824587
0.619000000000000439,-0.818959063879115545
0.620000000000000329,-0.826332459499631966
0.621000000000000441,-0.833624727442857094
0.622000000000000330,-0.840833318014784892
0.623000000000000442,-0.847955779635682028
0.624000000000000332,-0.854989757215662727
0.625000000000000444,-0.861932990533962995
0.626000000000000334,-0.868783312622493975
0.627000000000000446,-0.875538648154529975
0.628000000000000336,-0.882197011839097600
0.629000000000000448,-0.888756506821787751
0.630000000000000338,-0.895215323092554804
0.631000000000000449,-0.901571735901168791
0.632000000000000339,-0.907824104180819824
0.633000000000000451,-0.913970868980470419
0.634000000000000341,-0.920010551906432328
0.635000000000000453,-0.925941753573744086
0.636000000000000343,-0.931763152067678346
0.637000000000000455,-0.937473501416022814
0.638000000000000345,-0.943071630072354616
0.639000000000000457,-0.948556439410893737
0.640000000000000346,-0.953926902233188656
0.641000000000000458,-0.959182061287094934
0.642000000000000348,-0.964321027798300867
0.643000000000000460,-0.969342980014817002
0.644000000000000350,-0.974247161764650094
0.645000000000000462,-0.979032881027023683
0.646000000000000352,-0.983699508517338117
0.647000000000000464,-0.988246476286210096
0.648000000000000353,-0.992673276332730614
0.649000000000000465,-0.996979459232257503
0.650000000000000355,-1.001164632778857699
0.651000000000000467,-1.005228460642650923
0.652000000000000357,-1.009170661042199768
0.653000000000000469,-1.012991005432098301
0.654000000000000359,-1.016689317205934362
0.655000000000000471,-1.020265470414718934
0.656000000000000361,-1.023719388500921479
0.657000000000000473,-1.027051043048226697
0.658000000000000362,-1.030260452547078209
0.659000000000000474,-1.033347681176109090
0.660000000000000364,-1.036312837599525860
