# GoldBrush_LYSSCA-AC
# h[nm],U(h)[kJ/mol]
0.149999999999999994,42.612293787820441082
0.150999999999999995,39.576445681610515237
0.151999999999999996,36.869929302703759788
0.152999999999999997,34.359860617321032805
0.153999999999999998,31.974697640417780065
0.154999999999999999,29.680394017785239669
0.156000000000000000,27.464456102557726069
0.157000000000000001,25.325594357830400583
0.158000000000000002,23.267269794381984838
0.159000000000000002,21.293898277423529919
0.160000000000000003,19.408822849833697433
0.161000000000000004,17.613422991901352077
0.162000000000000005,15.906920737329636850
0.163000000000000006,14.286583079672260155
0.164000000000000007,12.748120810490558341
0.165000000000000008,11.286155627755562136
0.166000000000000009,9.894677558034640441
0.167000000000000010,8.567449175917227322
0.168000000000000010,7.298336109788986725
0.169000000000000011,6.081558143912443093
0.170000000000000012,4.911864280385511705
0.171000000000000013,3.784640192869990649
0.172000000000000014,2.695958886667333410
0.173000000000000015,1.642586013134682776
0.174000000000000016,0.621950835463826790
0.175000000000000017,-0.367907228771249262
0.176000000000000018,-1.328407939010034733
0.177000000000000018,-2.260508359303812220
0.178000000000000019,-3.164784138967422500
0.179000000000000020,-4.041509622419967585
0.180000000000000021,-4.890733627289896468
0.181000000000000022,-5.712348720524866863
0.182000000000000023,-6.506152640979459889
0.183000000000000024,-7.271901174096285558
0.184000000000000025,-8.009352295784701425
0.185000000000000026,-8.718301786968751799
0.186000000000000026,-9.398610796641580833
0.187000000000000027,-10.050226018074592815
0.188000000000000028,-10.673193257099148568
0.189000000000000029,-11.267665228292006674
0.190000000000000030,-11.833904427657270020
0.191000000000000031,-12.372281910235710001
0.192000000000000032,-12.883272757345912041
0.193000000000000033,-13.367448958523860725
0.194000000000000034,-13.825470363812035757
0.195000000000000034,-14.258074287677136027
0.196000000000000035,-14.666064270200234176
0.197000000000000036,-15.050298427039763283
0.198000000000000037,-15.411677748994089043
0.199000000000000038,-15.751134646134062223
0.200000000000000039,-16.069621971281744521
0.201000000000000040,-16.368102703531462794
0.202000000000000041,-16.647540424691083416
0.203000000000000042,-16.908890679887932151
0.204000000000000042,-17.153093277893773916
0.205000000000000043,-17.381065556621827284
0.206000000000000044,-17.593696614308505843
0.207000000000000045,-17.791842486643666632
0.208000000000000046,-17.976322234069591843
0.209000000000000047,-18.147914891144669269
0.210000000000000048,-18.307357220792116692
0.211000000000000049,-18.455342209979313850
0.212000000000000050,-18.592518239482689779
0.213000000000000050,-18.719488858502593587
0.214000000000000051,-18.836813094655308731
0.215000000000000052,-18.945006230973405081
0.216000000000000053,-19.044540983714934868
0.217000000000000054,-19.135849017775154124
0.218000000000000055,-19.219322740101020486
0.219000000000000056,-19.295317315548466297
0.220000000000000057,-19.364152853944155197
0.221000000000000058,-19.426116721585742653
0.222000000000000058,-19.481465934935620510
0.223000000000000059,-19.530429598742951924
0.224000000000000060,-19.573211355200410111
0.225000000000000061,-19.609991814951499123
0.226000000000000062,-19.640930944769532829
0.227000000000000063,-19.666170390502390575
0.228000000000000064,-19.685835717396265920
0.229000000000000065,-19.700038553166056232
0.230000000000000066,-19.708878622162739447
0.231000000000000066,-19.712445661700087385
0.232000000000000067,-19.710821214048173999
0.233000000000000068,-19.704080289786226388
0.234000000000000069,-19.692292900144401813
0.235000000000000070,-19.675525457663276541
0.236000000000000071,-19.653842045976521291
0.237000000000000072,-19.627305560790468064
0.238000000000000073,-19.595978725208858862
0.239000000000000073,-19.559924983447547930
0.240000000000000074,-19.519209277718175599
0.241000000000000075,-19.473898713645926506
0.242000000000000076,-19.424063120039058106
0.243000000000000077,-19.369775509161701876
0.244000000000000078,-19.311112443888951873
0.245000000000000079,-19.248154318256801787
0.246000000000000080,-19.180985557971602873
0.247000000000000081,-19.109694747424761374
0.248000000000000081,-19.034374689678259074
0.249000000000000082,-18.955122405754668335
0.250000000000000111,-18.872039079390965810
0.251000000000000112,-18.785229953203899100
0.252000000000000113,-18.694804181976603985
0.253000000000000114,-18.600874648513315179
0.254000000000000115,-18.503557747231266006
0.255000000000000115,-18.402973140367816285
0.256000000000000116,-18.299243491382739535
0.257000000000000117,-18.192494179833516910
0.258000000000000118,-18.082853001698751427
0.259000000000000119,-17.970449858824260048
0.260000000000000120,-17.855416440870918393
0.261000000000000121,-17.737885902853790299
0.262000000000000122,-17.617992541081772373
0.263000000000000123,-17.495871470035432083
0.264000000000000123,-17.371658302461149503
0.265000000000000124,-17.245488834710261727
0.266000000000000125,-17.117498739116520312
0.267000000000000126,-16.987823264980765003
0.268000000000000127,-16.856596949521470918
0.269000000000000128,-16.723953339952213781
0.270000000000000129,-16.590024727662324722
0.271000000000000130,-16.454941895305406518
0.272000000000000131,-16.318833877441655034
0.273000000000000131,-16.181827735232882759
0.274000000000000132,-16.044048345555022905
0.275000000000000133,-15.905618204769634616
0.276000000000000134,-15.766657247284376453
0.277000000000000135,-15.627282678931189608
0.278000000000000136,-15.487608825100011245
0.279000000000000137,-15.347746993484605582
0.280000000000000138,-15.207805351225008650
0.281000000000000139,-15.067888816167336330
0.282000000000000139,-14.928098961906396624
0.283000000000000140,-14.788533936228422050
0.284000000000000141,-14.649288392530390723
0.285000000000000142,-14.510453433757820818
0.286000000000000143,-14.372116568374654122
0.287000000000000144,-14.234361677855753570
0.288000000000000145,-14.097268995174919937
0.289000000000000146,-13.960915093748123894
0.290000000000000147,-13.825372886282655926
0.291000000000000147,-13.690711632978013412
0.292000000000000148,-13.556996958522541163
0.293000000000000149,-13.424290877331552352
0.294000000000000150,-13.292651826476742372
0.295000000000000151,-13.162134705763691045
0.296000000000000152,-13.032790924422879897
0.297000000000000153,-12.904668453890897339
0.298000000000000154,-12.777811886170429290
0.299000000000000155,-12.652262497272023012
0.300000000000000155,-12.528058315255389488
0.301000000000000156,-12.405234192404078541
0.302000000000000157,-12.283821881084326932
0.303000000000000158,-12.163850112856312791
0.304000000000000159,-12.045344680424021178
0.305000000000000160,-11.928328522028264658
0.306000000000000161,-11.812821807905924842
0.307000000000000162,-11.698842028457161035
0.308000000000000163,-11.586404083780838192
0.309000000000000163,-11.475520374257170531
0.310000000000000164,-11.366200891874731482
0.311000000000000165,-11.258453312017230985
0.312000000000000166,-11.152283085443293942
0.313000000000000167,-11.047693530209743429
0.314000000000000168,-10.944685923306172626
0.315000000000000169,-10.843259591784949691
0.316000000000000170,-10.743412003187051695
0.317000000000000171,-10.645138855079677498
0.318000000000000171,-10.548434163536532182
0.319000000000000172,-10.453290350406359011
0.320000000000000173,-10.359698329229109603
0.321000000000000174,-10.267647589672487030
0.322000000000000175,-10.177126280374473311
0.323000000000000176,-10.088121290089599569
0.324000000000000177,-10.000618327048329093
0.325000000000000178,-9.914601996449956545
0.326000000000000179,-9.830055876020010075
0.327000000000000179,-9.746962589572870428
0.328000000000000180,-9.665303878529821091
0.329000000000000181,-9.585060671351621764
0.330000000000000182,-9.506213150852657279
0.331000000000000183,-9.428740819371970616
0.332000000000000184,-9.352622561783302757
0.333000000000000185,-9.277836706333411954
0.334000000000000186,-9.204361083303949087
0.335000000000000187,-9.132173081498324407
0.336000000000000187,-9.061249702560203900
0.337000000000000188,-8.991567613135352133
0.338000000000000189,-8.923103194893254653
0.339000000000000190,-8.855832592428987127
0.340000000000000191,-8.789731759069718819
0.341000000000000192,-8.724776500613939945
0.342000000000000193,-8.660942517034261101
0.343000000000000194,-8.598205442177912161
0.344000000000000195,-8.536540881501306188
0.345000000000000195,-8.475924447877488888
0.346000000000000196,-8.416331795517191239
0.347000000000000197,-8.357738652045970440
0.348000000000000198,-8.300120848781457283
0.349000000000000199,-8.243454349255937785
0.350000000000000200,-8.187715276030639089
0.351000000000000201,-8.132879935848903230
0.352000000000000202,-8.078924843176118031
0.353000000000000203,-8.025826742174860584
0.354000000000000203,-7.973562627163909511
0.355000000000000204,-7.922109761610144574
0.356000000000000205,-7.871445695702325551
0.357000000000000206,-7.821548282555698783
0.358000000000000207,-7.772395693096166625
0.359000000000000208,-7.723966429672556089
0.360000000000000209,-7.676239338445062010
0.361000000000000210,-7.629193620597429337
0.362000000000000210,-7.582808842420019069
0.363000000000000211,-7.537064944310105652
0.364000000000000212,-7.491942248735202092
0.365000000000000213,-7.447421467204312862
0.366000000000000214,-7.403483706291355659
0.367000000000000215,-7.360110472753945032
0.368000000000000216,-7.317283677790089591
0.369000000000000217,-7.274985640474120885
0.370000000000000218,-7.233199090412453458
0.371000000000000218,-7.191907169658691146
0.372000000000000219,-7.151093433926521747
0.373000000000000220,-7.110741853137952262
0.374000000000000221,-7.070836811343264472
0.375000000000000222,-7.031363106048137190
0.376000000000000223,-6.992305946982196652
0.377000000000000224,-6.953650954342324830
0.378000000000000225,-6.915384156542922156
0.379000000000000226,-6.877491987504237514
0.380000000000000226,-6.839961283508976919
0.381000000000000227,-6.802779279656100186
0.382000000000000228,-6.765933605939966178
0.383000000000000229,-6.729412282981739324
0.384000000000000230,-6.693203717439056177
0.385000000000000231,-6.657296697118987083
0.386000000000000232,-6.621680385818204506
0.387000000000000233,-6.586344317913493285
0.388000000000000234,-6.551278392724556809
0.389000000000000234,-6.516472868670478036
0.390000000000000235,-6.481918357239807804
0.391000000000000236,-6.447605816793870126
0.392000000000000237,-6.413526546221612890
0.393000000000000238,-6.379672178463701826
0.394000000000000239,-6.346034673922605229
0.395000000000000240,-6.312606313774701050
0.396000000000000241,-6.279379693199581780
0.397000000000000242,-6.246347714540983809
0.398000000000000242,-6.213503580413087590
0.399000000000000243,-6.180840786765112504
0.400000000000000244,-6.148353115916481926
0.401000000000000245,-6.116034629574225612
0.402000000000000246,-6.083879661843505815
0.403000000000000247,-6.051882812241585086
0.404000000000000248,-6.020038938724990629
0.405000000000000249,-5.988343150738942633
0.406000000000000250,-5.956790802297638798
0.407000000000000250,-5.925377485103363817
0.408000000000000251,-5.894099021711896036
0.409000000000000252,-5.862951458751244793
0.410000000000000253,-5.831931060200103545
0.411000000000000254,-5.801034300732119675
0.412000000000000255,-5.770257859131487699
0.413000000000000256,-5.739598611785060811
0.414000000000000257,-5.709053626255630398
0.415000000000000258,-5.678620154940770881
0.416000000000000258,-5.648295628821178305
0.417000000000000259,-5.618077651302079367
0.418000000000000260,-5.587963992151000703
0.419000000000000261,-5.557952581534753911
0.420000000000000262,-5.528041504158328401
0.421000000000000263,-5.498228993507942697
0.422000000000000264,-5.468513426200293459
0.423000000000000265,-5.438893316439768810
0.424000000000000266,-5.409367310585148303
0.425000000000000266,-5.379934181827016104
0.426000000000000267,-5.350592824976931006
0.427000000000000268,-5.321342251369203247
0.428000000000000269,-5.292181583875830597
0.429000000000000270,-5.263110052035059994
0.430000000000000271,-5.234126987293794109
0.431000000000000272,-5.205231818363897034
0.432000000000000273,-5.176424066692314696
0.433000000000000274,-5.147703342044751551
0.434000000000000274,-5.119069338202530517
0.435000000000000275,-5.090521828772075708
0.436000000000000276,-5.062060663106429992
0.437000000000000277,-5.033685762337967162
0.438000000000000278,-5.005397115521483364
0.439000000000000279,-4.977194775886713884
0.440000000000000280,-4.949078857199130432
0.441000000000000281,-4.921049530227938007
0.442000000000000282,-4.893107019320058093
0.443000000000000282,-4.865251599078718847
0.444000000000000283,-4.837483591145367079
0.445000000000000284,-4.809803361083454298
0.446000000000000285,-4.782211315362554949
0.447000000000000286,-4.754707898441433045
0.448000000000000287,-4.727293589948300401
0.449000000000000288,-4.699968901956813383
0.450000000000000289,-4.672734376356072694
0.451000000000000290,-4.645590582312967065
0.452000000000000290,-4.618538113825189306
0.453000000000000291,-4.591577587363138591
0.454000000000000292,-4.564709639599046298
0.455000000000000293,-4.537934925221481564
0.456000000000000294,-4.511254114833538331
0.457000000000000295,-4.484667892932875155
0.458000000000000296,-4.458176955971842936
0.459000000000000297,-4.431782010495936674
0.460000000000000298,-4.405483771358722045
0.461000000000000298,-4.379282960011511960
0.462000000000000299,-4.353180302865988338
0.463000000000000300,-4.327176529727978505
0.464000000000000301,-4.301272372300653402
0.465000000000000302,-4.275468562755351698
0.466000000000000303,-4.249765832368346707
0.467000000000000304,-4.224164910221722913
0.468000000000000305,-4.198666521966784693
0.469000000000000306,-4.173271388648154279
0.470000000000000306,-4.147980225587022396
0.471000000000000307,-4.122793741321734373
0.472000000000000308,-4.097712636604228464
0.473000000000000309,-4.072737603450581112
0.474000000000000310,-4.047869324244119937
0.475000000000000311,-4.023108470889519950
0.476000000000000312,-3.998455704016338874
0.477000000000000313,-3.973911672230423964
0.478000000000000314,-3.949477011411731464
0.479000000000000314,-3.925152344057067921
0.480000000000000315,-3.900938278666269632
0.481000000000000316,-3.876835409170450220
0.482000000000000317,-3.852844314400849957
0.483000000000000318,-3.828965557596974101
0.484000000000000319,-3.805199685952605826
0.485000000000000320,-3.781547230198454734
0.486000000000000321,-3.758008704220076712
0.487000000000000322,-3.734584604709818567
0.488000000000000322,-3.711275410851565315
0.489000000000000323,-3.688081584037065319
0.490000000000000324,-3.665003567612641344
0.491000000000000325,-3.642041786655153324
0.492000000000000326,-3.619196647776027564
0.493000000000000327,-3.596468538952334537
0.494000000000000328,-3.573857829383731310
0.495000000000000329,-3.551364869374332045
0.496000000000000330,-3.528989990238367902
0.497000000000000330,-3.506733504228727760
0.498000000000000331,-3.484595704487344570
0.499000000000000332,-3.462576865016534278
0.500000000000000333,-3.440677240670301451
0.501000000000000334,-3.418897067164765158
0.502000000000000335,-3.397236561106810715
0.503000000000000336,-3.375695920040120424
0.504000000000000337,-3.354275322507759061
0.505000000000000338,-3.332974928130506331
0.506000000000000338,-3.311794877700175554
0.507000000000000339,-3.290735293287135654
0.508000000000000340,-3.269796278361327690
0.509000000000000341,-3.248977917926068049
0.510000000000000342,-3.228280278663913982
0.511000000000000343,-3.207703409093961788
0.512000000000000344,-3.187247339739917251
0.513000000000000345,-3.166912083308299763
0.514000000000000346,-3.146697634876201910
0.515000000000000346,-3.126603972087990790
0.516000000000000347,-3.106631055360387528
0.517000000000000348,-3.086778828095410709
0.518000000000000349,-3.067047216900591344
0.519000000000000350,-3.047436131816017912
0.520000000000000351,-3.027945466547659947
0.521000000000000352,-3.008575098706538498
0.522000000000000353,-2.989324890053245198
0.523000000000000353,-2.970194686747388513
0.524000000000000354,-2.951184319601566131
0.525000000000000355,-2.932293604339374582
0.526000000000000356,-2.913522341857158970
0.527000000000000357,-2.894870318489040528
0.528000000000000358,-2.876337306274916017
0.529000000000000359,-2.857923063231024408
0.530000000000000360,-2.839627333622797511
0.531000000000000361,-2.821449848239622415
0.532000000000000361,-2.803390324671243494
0.533000000000000362,-2.785448467585469601
0.534000000000000363,-2.767623969006947071
0.535000000000000364,-2.749916508596666365
0.536000000000000365,-2.732325753931997170
0.537000000000000366,-2.714851360786975309
0.538000000000000367,-2.697492973412589645
0.539000000000000368,-2.680250224816878024
0.540000000000000369,-2.663122737044568478
0.541000000000000369,-2.646110121456110242
0.542000000000000370,-2.629211979005853017
0.543000000000000371,-2.612427900519203039
0.544000000000000372,-2.595757466968588112
0.545000000000000373,-2.579200249748047735
0.546000000000000374,-2.562755810946289348
0.547000000000000375,-2.546423703618059253
0.548000000000000376,-2.530203472053696778
0.549000000000000377,-2.514094652046722445
0.550000000000000377,-2.498096771159318941
0.551000000000000378,-2.482209348985615183
0.552000000000000379,-2.466431897412643348
0.553000000000000380,-2.450763920878849866
0.554000000000000381,-2.435204916630079097
0.555000000000000382,-2.419754374972941324
0.556000000000000383,-2.404411779525435833
0.557000000000000384,-2.389176607464807311
0.558000000000000385,-2.374048329772509458
0.559000000000000385,-2.359026411476236262
0.560000000000000386,-2.344110311888935705
0.561000000000000387,-2.329299484844766788
0.562000000000000388,-2.314593378931934620
0.563000000000000389,-2.299991437722334719
0.564000000000000390,-2.285493099998008315
0.565000000000000391,-2.271097799974315823
0.566000000000000392,-2.256804967519835170
0.567000000000000393,-2.242614028372924562
0.568000000000000393,-2.228524404354927491
0.569000000000000394,-2.214535513580002224
0.570000000000000395,-2.200646770661564222
0.571000000000000396,-2.186857586915281093
0.572000000000000397,-2.173167370558666711
0.573000000000000398,-2.159575526907214993
0.574000000000000399,-2.146081458567086653
0.575000000000000400,-2.132684565624347606
0.576000000000000401,-2.119384245830732372
0.577000000000000401,-2.106179894785975115
0.578000000000000402,-2.093070906116662577
0.579000000000000403,-2.080056671651654199
0.580000000000000404,-2.067136581594053002
0.581000000000000405,-2.054310024689752989
0.582000000000000406,-2.041576388392556840
0.583000000000000407,-2.028935059025896326
0.584000000000000408,-2.016385421941163880
0.585000000000000409,-2.003926861672669979
0.586000000000000409,-1.991558762089244539
0.587000000000000410,-1.979280506542516971
0.588000000000000411,-1.967091478011880668
0.589000000000000412,-1.954991059246172558
0.590000000000000413,-1.942978632902093494
0.591000000000000414,-1.931053581679400777
0.592000000000000415,-1.919215288452889467
0.593000000000000416,-1.907463136401195358
0.594000000000000417,-1.895796509132453789
0.595000000000000417,-1.884214790806857831
0.596000000000000418,-1.872717366256091420
0.597000000000000419,-1.861303621099762662
0.598000000000000420,-1.849972941858774700
0.599000000000000421,-1.838724716065740283
0.600000000000000422,-1.827558332372431149
0.601000000000000423,-1.816473180654324837
0.602000000000000424,-1.805468652112260486
0.603000000000000425,-1.794544139371262670
0.604000000000000425,-1.783699036576553709
0.605000000000000426,-1.772932739486803744
0.606000000000000427,-1.762244645564644774
0.607000000000000428,-1.751634154064496629
0.608000000000000429,-1.741100666117733509
0.609000000000000430,-1.730643584815239278
0.610000000000000431,-1.720262315287386823
