# GoldBrush_PRO-AC
# h[nm],U(h)[kJ/mol]
0.149999999999999994,22.667612970639719805
0.150999999999999995,19.290186807190536911
0.151999999999999996,16.820232986712191803
0.152999999999999997,14.559042107062461824
0.153999999999999998,12.279128704177889375
0.154999999999999999,9.962610877559891165
0.156000000000000000,7.663739436186098430
0.157000000000000001,5.443485156098480715
0.158000000000000002,3.343942305771565149
0.159000000000000002,1.383141782123226138
0.160000000000000003,-0.440975218540418656
0.161000000000000004,-2.143598794322354451
0.162000000000000005,-3.746215950476130097
0.163000000000000006,-5.271225245756867572
0.164000000000000007,-6.738345435978044584
0.165000000000000008,-8.162672596043664797
0.166000000000000009,-9.554036799662934953
0.167000000000000010,-10.917265176875588395
0.168000000000000010,-12.252994310189478711
0.169000000000000011,-13.558744714302076062
0.170000000000000012,-14.830047232539261159
0.171000000000000013,-16.061481957581349889
0.172000000000000014,-17.247548799387395491
0.173000000000000015,-18.383333548149490611
0.174000000000000016,-19.464965039664704705
0.175000000000000017,-20.489879743708144133
0.176000000000000018,-21.456922032238736620
0.177000000000000018,-22.366313752008498028
0.178000000000000019,-23.219527468895549305
0.179000000000000020,-24.019095468808878024
0.180000000000000021,-24.768382541173057376
0.181000000000000022,-25.471345664413483689
0.182000000000000023,-26.132298614401680226
0.183000000000000024,-26.755694661616608698
0.184000000000000025,-27.345936174772965899
0.185000000000000026,-27.907216244356625623
0.186000000000000026,-28.443394424538393395
0.187000000000000027,-28.957906350504487136
0.188000000000000028,-29.453705265870446794
0.189000000000000029,-29.933232315433507154
0.190000000000000030,-30.398411736636660407
0.191000000000000031,-30.850666732508578605
0.192000000000000032,-31.290951747952085782
0.193000000000000033,-31.719797026544757301
0.194000000000000034,-32.137361632652421406
0.195000000000000034,-32.543491530044413196
0.196000000000000035,-32.937779769739087499
0.197000000000000036,-33.319626322184959122
0.198000000000000037,-33.688295566055572294
0.199000000000000038,-34.042969899022843094
0.200000000000000039,-34.382798351996363806
0.201000000000000040,-34.706939459514188684
0.202000000000000041,-35.014597961184669828
0.203000000000000042,-35.305055181264847874
0.204000000000000042,-35.577693156817240094
0.205000000000000043,-35.832012762202673173
0.206000000000000044,-36.067646212796049099
0.207000000000000045,-36.284364428233338629
0.208000000000000046,-36.482079799992533253
0.209000000000000047,-36.660844944494265008
0.210000000000000048,-36.820848035851554414
0.211000000000000049,-36.962405306292609453
0.212000000000000050,-37.085951281154287074
0.213000000000000050,-37.192027282805746324
0.214000000000000051,-37.281268697089942066
0.215000000000000052,-37.354391449600271358
0.216000000000000053,-37.412178089657068369
0.217000000000000054,-37.455463829129655551
0.218000000000000055,-37.485122832818646543
0.219000000000000056,-37.502055008189245200
0.220000000000000057,-37.507173495766714666
0.221000000000000058,-37.501393018141811808
0.222000000000000058,-37.485619205755519090
0.223000000000000059,-37.460738981712360385
0.224000000000000060,-37.427612055942383051
0.225000000000000061,-37.387063551099643632
0.226000000000000062,-37.339877758559254062
0.227000000000000063,-37.286793002594123436
0.228000000000000064,-37.228497574057669794
0.229000000000000065,-37.165626681414877908
0.230000000000000066,-37.098760356469973942
0.231000000000000066,-37.028422244344312730
0.232000000000000067,-36.955079201864975857
0.233000000000000068,-36.879141625241103952
0.234000000000000069,-36.800964426450320843
0.235000000000000070,-36.720848577861474382
0.236000000000000071,-36.639043146031198717
0.237000000000000072,-36.555747738099526600
0.238000000000000073,-36.471115287558880880
0.239000000000000073,-36.385255110191863537
0.240000000000000074,-36.298236165494351724
0.241000000000000075,-36.210090463770562508
0.242000000000000076,-36.120816564173757968
0.243000000000000077,-36.030383114158766489
0.244000000000000078,-35.938732386011494668
0.245000000000000079,-35.845783771247667460
0.246000000000000080,-35.751437198661065509
0.247000000000000081,-35.655576446597386564
0.248000000000000081,-35.558072324592558289
0.249000000000000082,-35.458785703811379619
0.250000000000000111,-35.357570379733886057
0.251000000000000112,-35.254275754244922325
0.252000000000000113,-35.148749327684001287
0.253000000000000114,-35.040838994500759895
0.254000000000000115,-34.930395138943787003
0.255000000000000115,-34.817272529690271199
0.256000000000000116,-34.701332014513212698
0.257000000000000117,-34.582442017993663796
0.258000000000000118,-34.460479846930937242
0.259000000000000119,-34.335332809501871054
0.260000000000000120,-34.206899155385414701
0.261000000000000121,-34.075088845020147232
0.262000000000000122,-33.939824156915605613
0.263000000000000123,-33.801040142512810860
0.264000000000000123,-33.658684938499952466
0.265000000000000124,-33.512719946754465639
0.266000000000000125,-33.363119892217682150
0.267000000000000126,-33.209872769027882100
0.268000000000000127,-33.052979685157353629
0.269000000000000128,-32.892454615631777415
0.270000000000000129,-32.728324074168583024
0.271000000000000130,-32.560626712766904234
0.272000000000000131,-32.389412858427057529
0.273000000000000131,-32.214743995778775343
0.274000000000000132,-32.036692203968797799
0.275000000000000133,-31.855339555703075405
0.276000000000000134,-31.670777485867073864
0.277000000000000135,-31.483106136665089281
0.278000000000000136,-31.292433685731264603
0.279000000000000137,-31.098875663177512507
0.280000000000000138,-30.902554263059364814
0.281000000000000139,-30.703597654265706751
0.282000000000000139,-30.502139295373332573
0.283000000000000140,-30.298317257557311422
0.284000000000000141,-30.092273559213179368
0.285000000000000142,-29.884153515530737621
0.286000000000000143,-29.674105105861563914
0.287000000000000144,-29.462278361345124011
0.288000000000000145,-29.248824774902328016
0.289000000000000146,-29.033896735370376518
0.290000000000000147,-28.817646987239243117
0.291000000000000147,-28.600228117158792429
0.292000000000000148,-28.381792068114965133
0.293000000000000149,-28.162489681924064655
0.294000000000000150,-27.942470270465697979
0.295000000000000151,-27.721881215865892045
0.296000000000000152,-27.500867599652345064
0.297000000000000153,-27.279571860733046407
0.298000000000000154,-27.058133481896003758
0.299000000000000155,-26.836688704391416849
0.300000000000000155,-26.615370270037391975
0.301000000000000156,-26.394307190184939316
0.302000000000000157,-26.173624540786569526
0.303000000000000158,-25.953443282735566555
0.304000000000000159,-25.733880106577210256
0.305000000000000160,-25.515047300639128736
0.306000000000000161,-25.297052641585178634
0.307000000000000162,-25.079999306363539802
0.308000000000000163,-24.863985804494948439
0.309000000000000163,-24.649105929631428324
0.310000000000000164,-24.435448729306404658
0.311000000000000165,-24.223098491795429510
0.312000000000000166,-24.012134749010812129
0.313000000000000167,-23.802632294362499721
0.314000000000000168,-23.594661214532408167
0.315000000000000169,-23.388286934127396677
0.316000000000000170,-23.183570272198629425
0.317000000000000171,-22.980567509640376755
0.318000000000000171,-22.779330466509435382
0.319000000000000172,-22.579906588336957185
0.320000000000000173,-22.382339040536798791
0.321000000000000174,-22.186666810048425447
0.322000000000000175,-21.992924813387581651
0.323000000000000176,-21.801144010314004618
0.324000000000000177,-21.611351522362070909
0.325000000000000178,-21.423570755517296504
0.326000000000000179,-21.237821526358871438
0.327000000000000179,-21.054120191025432973
0.328000000000000180,-20.872479776397860007
0.329000000000000181,-20.692910112930050559
0.330000000000000182,-20.515417968593528286
0.331000000000000183,-20.340007183437599281
0.332000000000000184,-20.166678804301003680
0.333000000000000185,-19.995431219244284904
0.334000000000000186,-19.826260291304940608
0.335000000000000187,-19.659159491208672677
0.336000000000000187,-19.494120028700685054
0.337000000000000188,-19.331130982189996814
0.338000000000000189,-19.170179426428216374
0.339000000000000190,-19.011250557970974739
0.340000000000000191,-18.854327818195656619
0.341000000000000192,-18.699393013674615815
0.342000000000000193,-18.546426433725070382
0.343000000000000194,-18.395406964980175246
0.344000000000000195,-18.246312202846045381
0.345000000000000195,-18.099118559729653555
0.346000000000000196,-17.953801369941011501
0.347000000000000197,-17.810334991190540421
0.348000000000000198,-17.668692902619181240
0.349000000000000199,-17.528847799313773237
0.350000000000000200,-17.390771683274984127
0.351000000000000201,-17.254435950817839540
0.352000000000000202,-17.119811476397824634
0.353000000000000203,-16.986868692866384123
0.354000000000000203,-16.855577668170408145
0.355000000000000204,-16.725908178519922842
0.356000000000000205,-16.597829778056805594
0.357000000000000206,-16.471311865065604962
0.358000000000000207,-16.346323744774434061
0.359000000000000208,-16.222834688800912062
0.360000000000000209,-16.100813991303446926
0.361000000000000210,-15.980231021903785305
0.362000000000000210,-15.861055275451107605
0.363000000000000211,-15.743256418702008759
0.364000000000000212,-15.626804333994261498
0.365000000000000213,-15.511669159995090439
0.366000000000000214,-15.397821329607330298
0.367000000000000215,-15.285231605118720921
0.368000000000000216,-15.173871110681378838
0.369000000000000217,-15.063711362209588174
0.370000000000000218,-14.954724294785037841
0.371000000000000218,-14.846882287659150634
0.372000000000000219,-14.740158186942291962
0.373000000000000220,-14.634525326069834250
0.374000000000000221,-14.529957544134415315
0.375000000000000222,-14.426429202173641997
0.376000000000000223,-14.323915197501111862
0.377000000000000224,-14.222390976168398424
0.378000000000000225,-14.121832543643861868
0.379000000000000226,-14.022216473793235991
0.380000000000000226,-13.923519916245449934
0.381000000000000227,-13.825720602225397116
0.382000000000000228,-13.728796848933933816
0.383000000000000229,-13.632727562553466072
0.384000000000000230,-13.537492239955579265
0.385000000000000231,-13.443070969185466623
0.386000000000000232,-13.349444428795610662
0.387000000000000233,-13.256593886099341972
0.388000000000000234,-13.164501194412764562
0.389000000000000234,-13.073148789351426657
0.390000000000000235,-12.982519684245877656
0.391000000000000236,-12.892597464738297930
0.392000000000000237,-12.803366282620036287
0.393000000000000238,-12.714810848967850632
0.394000000000000239,-12.626916426634474888
0.395000000000000240,-12.539668822146934346
0.396000000000000241,-12.453054377063981661
0.397000000000000242,-12.367059958841883471
0.398000000000000242,-12.281672951255753645
0.399000000000000243,-12.196881244421511781
0.400000000000000244,-12.112673224461516952
0.401000000000000245,-12.029037762855177007
0.402000000000000246,-11.945964205513524448
0.403000000000000247,-11.863442361615126330
0.404000000000000248,-11.781462492238762962
0.405000000000000249,-11.700015298826468069
0.406000000000000250,-11.619091911508782289
0.407000000000000250,-11.538683877322352345
0.408000000000000251,-11.458783148348297587
0.409000000000000252,-11.379382069798273491
0.410000000000000253,-11.300473368073321367
0.411000000000000254,-11.222050138819444243
0.412000000000000255,-11.144105835001974825
0.413000000000000256,-11.066634255019758726
0.414000000000000257,-10.989629530878437080
0.415000000000000258,-10.913086116441084172
0.416000000000000258,-10.836998775773054149
0.417000000000000259,-10.761362571596578164
0.418000000000000260,-10.686172853869724264
0.419000000000000261,-10.611425248502865060
0.420000000000000262,-10.537115646225009513
0.421000000000000263,-10.463240191611239638
0.422000000000000264,-10.389795272281286742
0.423000000000000265,-10.316777508278660136
0.424000000000000266,-10.244183741638645202
0.425000000000000266,-10.172011026152633306
0.426000000000000267,-10.100256617335414688
0.427000000000000268,-10.028917962601441971
0.428000000000000269,-9.957992691655070061
0.429000000000000270,-9.887478607099266625
0.430000000000000271,-9.817373675266587441
0.431000000000000272,-9.747676017275503924
0.432000000000000273,-9.678383900314624810
0.433000000000000274,-9.609495729156840582
0.434000000000000274,-9.541010037904737118
0.435000000000000275,-9.472925481968333727
0.436000000000000276,-9.405240830275543473
0.437000000000000277,-9.337954957715387749
0.438000000000000278,-9.271066837813625838
0.439000000000000279,-9.204575535640049821
0.440000000000000280,-9.138480200946217380
0.441000000000000281,-9.072780061532299101
0.442000000000000282,-9.007474416841192877
0.443000000000000282,-8.942562631777866144
0.444000000000000283,-8.878044130751609586
0.445000000000000284,-8.813918391938674546
0.446000000000000285,-8.750184941762388036
0.447000000000000286,-8.686843349587977769
0.448000000000000287,-8.623893222628618460
0.449000000000000288,-8.561334201059683124
0.450000000000000289,-8.499165953337440627
0.451000000000000290,-8.437388171718687602
0.452000000000000290,-8.376000567977561317
0.453000000000000291,-8.315002869315593514
0.454000000000000292,-8.254394814461136320
0.455000000000000293,-8.194176149954035537
0.456000000000000294,-8.134346626611536735
0.457000000000000295,-8.074905996171152012
0.458000000000000296,-8.015854008106348516
0.459000000000000297,-7.957190406610824773
0.460000000000000298,-7.898914927747007653
0.461000000000000298,-7.841027296754572440
0.462000000000000299,-7.783527225514605519
0.463000000000000300,-7.726414410165202362
0.464000000000000301,-7.669688528864045729
0.465000000000000302,-7.613349239693866011
0.466000000000000303,-7.557396178706364154
0.467000000000000304,-7.501828958100401401
0.468000000000000305,-7.446647164530288521
0.469000000000000306,-7.391850357539920147
0.470000000000000306,-7.337438068118697920
0.471000000000000307,-7.283409797375031580
0.472000000000000308,-7.229765015323556199
0.473000000000000309,-7.176503159781860930
0.474000000000000310,-7.123623635372959839
0.475000000000000311,-7.071125812629517782
0.476000000000000312,-7.019009027196153383
0.477000000000000313,-6.967272579125834753
0.478000000000000314,-6.915915732266928906
0.479000000000000314,-6.864937713737144342
0.480000000000000315,-6.814337713480813186
0.481000000000000316,-6.764114883906127140
0.482000000000000317,-6.714268339598810087
0.483000000000000318,-6.664797157108976577
0.484000000000000319,-6.615700374807842010
0.485000000000000320,-6.566976992811207836
0.486000000000000321,-6.518625972966484383
0.487000000000000322,-6.470646238900302549
0.488000000000000322,-6.423036676123717648
0.489000000000000323,-6.375796132192149912
0.490000000000000324,-6.328923416917232814
0.491000000000000325,-6.282417302627851363
0.492000000000000326,-6.236276524477685435
0.493000000000000327,-6.190499780796725915
0.494000000000000328,-6.145085733484214607
0.495000000000000329,-6.100033008440594706
0.496000000000000330,-6.055340196036119949
0.497000000000000330,-6.011005851613797191
0.498000000000000331,-5.967028496024498807
0.499000000000000332,-5.923406616192075091
0.500000000000000333,-5.880138665706371448
0.501000000000000334,-5.837223065442200820
0.502000000000000335,-5.794658204202248086
0.503000000000000336,-5.752442439382152273
0.504000000000000337,-5.710574097655841008
0.505000000000000338,-5.669051475679470542
0.506000000000000338,-5.627872840812231381
0.507000000000000339,-5.587036431852434148
0.508000000000000340,-5.546540459787335564
0.509000000000000341,-5.506383108555175987
0.510000000000000342,-5.466562535818026980
0.511000000000000343,-5.427076873744036689
0.512000000000000344,-5.387924229797780740
0.513000000000000345,-5.349102687537445888
0.514000000000000346,-5.310610307417627851
0.515000000000000346,-5.272445127596568248
0.516000000000000347,-5.234605164746757744
0.517000000000000348,-5.197088414867819139
0.518000000000000349,-5.159892854100640136
0.519000000000000350,-5.123016439541832945
0.520000000000000351,-5.086457110057586384
0.521000000000000352,-5.050212787096023170
0.522000000000000353,-5.014281375497231963
0.523000000000000353,-4.978660764300193442
0.524000000000000354,-4.943348827545884561
0.525000000000000355,-4.908343425075758937
0.526000000000000356,-4.873642403325057160
0.527000000000000357,-4.839243596110209822
0.528000000000000358,-4.805144825409792375
0.529000000000000359,-4.771343902138455384
0.530000000000000360,-4.737838626913299045
0.531000000000000361,-4.704626790812225678
0.532000000000000361,-4.671706176123739063
0.533000000000000362,-4.639074557087833561
0.534000000000000363,-4.606729700627554713
0.535000000000000364,-4.574669367070779202
0.536000000000000365,-4.542891310862001930
0.537000000000000366,-4.511393281263684329
0.538000000000000367,-4.480173023046951641
0.539000000000000368,-4.449228277171319412
0.540000000000000369,-4.418556781453238713
0.541000000000000369,-4.388156271223199845
0.542000000000000370,-4.358024479971245313
0.543000000000000371,-4.328159139980639836
0.544000000000000372,-4.298557982949605005
0.545000000000000373,-4.269218740600938311
0.546000000000000374,-4.240139145279401056
0.547000000000000375,-4.211316930536765923
0.548000000000000376,-4.182749831704466459
0.549000000000000377,-4.154435586453741003
0.550000000000000377,-4.126371935343204456
0.551000000000000378,-4.098556622353872747
0.552000000000000379,-4.070987395411538756
0.553000000000000380,-4.043662006896529881
0.554000000000000381,-4.016578214140817060
0.555000000000000382,-3.989733779912548961
0.556000000000000383,-3.963126472887920304
0.557000000000000384,-3.936754068110536853
0.558000000000000385,-3.910614347438237992
0.559000000000000385,-3.884705099977458165
0.560000000000000386,-3.859024122505180010
0.561000000000000387,-3.833569219878578682
0.562000000000000388,-3.808338205432426626
0.563000000000000389,-3.783328901364306773
0.564000000000000390,-3.758539139107803351
0.565000000000000391,-3.733966759693716053
0.566000000000000392,-3.709609614099450337
0.567000000000000393,-3.685465563586656224
0.568000000000000393,-3.661532480027276826
0.569000000000000394,-3.637808246218098951
0.570000000000000395,-3.614290756183996756
0.571000000000000396,-3.590977915469908854
0.572000000000000397,-3.567867641421801572
0.573000000000000398,-3.544957863456673408
0.574000000000000399,-3.522246523321800105
0.575000000000000400,-3.499731575343357548
0.576000000000000401,-3.477410986664570380
0.577000000000000401,-3.455282737473562626
0.578000000000000402,-3.433344821221042675
0.579000000000000403,-3.411595244828023343
0.580000000000000404,-3.390032028883690263
0.581000000000000405,-3.368653207833656182
0.582000000000000406,-3.347456830158674901
0.583000000000000407,-3.326440958544075066
0.584000000000000408,-3.305603670040027087
0.585000000000000409,-3.284943056212827006
0.586000000000000409,-3.264457223287376308
0.587000000000000410,-3.244144292281020192
0.588000000000000411,-3.224002399128932161
0.589000000000000412,-3.204029694801177275
0.590000000000000413,-3.184224345411679646
0.591000000000000414,-3.164584532319222099
0.592000000000000415,-3.145108452220680029
0.593000000000000416,-3.125794317236624931
0.594000000000000417,-3.106640354989508079
0.595000000000000417,-3.087644808674572250
0.596000000000000418,-3.068805937123640248
0.597000000000000419,-3.050122014862002739
0.598000000000000420,-3.031591332158510621
0.599000000000000421,-3.013212195069077559
0.600000000000000422,-2.994982925473737012
0.601000000000000423,-2.976901861107437153
0.602000000000000424,-2.958967355584705139
0.603000000000000425,-2.941177778418354816
0.604000000000000425,-2.923531515032416372
0.605000000000000426,-2.906026966769404307
0.606000000000000427,-2.888662550892118208
0.607000000000000428,-2.871436700580088708
