# GoldBrush_GLUSCA-JS
# h[nm],U(h)[kJ/mol]
0.149999999999999994,49.889381417822363574
0.150999999999999995,47.343823311301953538
0.151999999999999996,45.129594722294747555
0.152999999999999997,43.087471107099027279
0.153999999999999998,41.138639468384283759
0.154999999999999999,39.248143143413571465
0.156000000000000000,37.403412009142336103
0.157000000000000001,35.602140924920831822
0.158000000000000002,33.845817451780192187
0.159000000000000002,32.136553710546301943
0.160000000000000003,30.475766097232348528
0.161000000000000004,28.863822120776887914
0.162000000000000005,27.300140068577292141
0.163000000000000006,25.783455655136485518
0.164000000000000007,24.312108424737459700
0.165000000000000008,22.884281772671361210
0.166000000000000009,21.498175468982744007
0.167000000000000010,20.152112566362653467
0.168000000000000010,18.844592611211570699
0.169000000000000011,17.574305881427612519
0.170000000000000012,16.340122473385207513
0.171000000000000013,15.141067550731017732
0.172000000000000014,13.976291133340717820
0.173000000000000015,12.845038062074261020
0.174000000000000016,11.746621497437182313
0.175000000000000017,10.680401574668964670
0.176000000000000018,9.645769615878897696
0.177000000000000018,8.642137514581264668
0.178000000000000019,7.668931466487936000
0.179000000000000020,6.725589032211123808
0.180000000000000021,5.811558503445566792
0.181000000000000022,4.926299639766193117
0.182000000000000023,4.069284998863454739
0.183000000000000024,3.240001262829269368
0.184000000000000025,2.437950142376704044
0.185000000000000026,1.662648604088948545
0.186000000000000026,0.913628304325965090
0.187000000000000027,0.190434223676125752
0.188000000000000028,-0.507377422314552740
0.189000000000000029,-1.180241864885807734
0.190000000000000030,-1.828588892477731154
0.191000000000000031,-2.452846212473345666
0.192000000000000032,-3.053442888326638016
0.193000000000000033,-3.630812688615797867
0.194000000000000034,-4.185397204655175507
0.195000000000000034,-4.717648618036596631
0.196000000000000035,-5.228032026402371635
0.197000000000000036,-5.717027262953252809
0.198000000000000037,-6.185130171213164552
0.199000000000000038,-6.632853320381217443
0.200000000000000039,-7.060726167531785613
0.201000000000000040,-7.469294690605781106
0.202000000000000041,-7.859120530434945628
0.203000000000000042,-8.230779691003188958
0.204000000000000042,-8.584860854954591503
0.205000000000000043,-8.921963376276583091
0.206000000000000044,-9.242695014448274904
0.207000000000000045,-9.547669474504363762
0.208000000000000046,-9.837503815790389794
0.209000000000000047,-10.112815789033517078
0.210000000000000048,-10.374221157060430798
0.211000000000000049,-10.622331049370831835
0.212000000000000050,-10.857749395098496237
0.213000000000000050,-11.081070472901711099
0.214000000000000051,-11.292876610229580336
0.215000000000000052,-11.493736058378981824
0.216000000000000053,-11.684201063928501441
0.217000000000000054,-11.864806151617610652
0.218000000000000055,-12.036066628612660523
0.219000000000000056,-12.198477315421110134
0.220000000000000057,-12.352511504519668506
0.221000000000000058,-12.498620144064076953
0.222000000000000058,-12.637231240856381831
0.223000000000000059,-12.768749474044884806
0.224000000000000060,-12.893556008808101154
0.225000000000000061,-13.012008497499106596
0.226000000000000062,-13.124441254369097365
0.227000000000000063,-13.231165589015779105
0.228000000000000064,-13.332470283074210116
0.229000000000000065,-13.428622194349619789
0.230000000000000066,-13.519866972543212569
0.231000000000000066,-13.606429870908897328
0.232000000000000067,-13.688516638563598349
0.233000000000000068,-13.766314478724416048
0.234000000000000069,-13.839993058830810213
0.235000000000000070,-13.909705559300331146
0.236000000000000071,-13.975589748536327406
0.237000000000000072,-14.037769072732677600
0.238000000000000073,-14.096353749982108994
0.239000000000000073,-14.151441859173587545
0.240000000000000074,-14.203120415145097155
0.241000000000000075,-14.251466422526615219
0.242000000000000076,-14.296547901653379853
0.243000000000000077,-14.338424880842760345
0.244000000000000078,-14.377150350201258533
0.245000000000000079,-14.412771172955245902
0.246000000000000080,-14.445328951076737312
0.247000000000000081,-14.474860842699921903
0.248000000000000081,-14.501400329493609576
0.249000000000000082,-14.524977932768351252
0.250000000000000111,-14.545621877655346310
0.251000000000000112,-14.563358705196534970
0.252000000000000113,-14.578213832635052327
0.253000000000000114,-14.590212062591394471
0.254000000000000115,-14.599378042158537738
0.255000000000000115,-14.605736673248490121
0.256000000000000116,-14.609313475777971902
0.257000000000000117,-14.610134905494220448
0.258000000000000118,-14.608228628415796280
0.259000000000000119,-14.603623754001821666
0.260000000000000120,-14.596351029268296529
0.261000000000000121,-14.586442996145313700
0.262000000000000122,-14.573934114417236074
0.263000000000000123,-14.558860852611360315
0.264000000000000123,-14.541261749202941900
0.265000000000000124,-14.521177446486884577
0.266000000000000125,-14.498650699432875655
0.267000000000000126,-14.473726361791936057
0.268000000000000127,-14.446451351661874440
0.269000000000000128,-14.416874598647742900
0.270000000000000129,-14.385046974673491249
0.271000000000000130,-14.351021210414469209
0.272000000000000131,-14.314851799228033968
0.273000000000000131,-14.276594890363250911
0.274000000000000132,-14.236308173131664745
0.275000000000000133,-14.194050753620420124
0.276000000000000134,-14.149883025427218541
0.277000000000000135,-14.103866535795523518
0.278000000000000136,-14.056063848427848839
0.279000000000000137,-14.006538404156042787
0.280000000000000138,-13.955354380550829774
0.281000000000000139,-13.902576551458675880
0.282000000000000139,-13.848270147362914173
0.283000000000000140,-13.792500717378308295
0.284000000000000141,-13.735333993604081471
0.285000000000000142,-13.676835758479914062
0.286000000000000143,-13.617071715713212399
0.287000000000000144,-13.556107365273238230
0.288000000000000145,-13.494007882879753168
0.289000000000000146,-13.430838004349354264
0.290000000000000147,-13.366661915102806546
0.291000000000000147,-13.301543145080538366
0.292000000000000148,-13.235544469261625977
0.293000000000000149,-13.168727813933244875
0.294000000000000150,-13.101154168813556211
0.295000000000000151,-13.032883505090078202
0.296000000000000152,-12.963974699398747248
0.297000000000000153,-12.894485463735097852
0.298000000000000154,-12.824472281258490369
0.299000000000000155,-12.753990347923252813
0.300000000000000155,-12.683093519845879626
0.301000000000000156,-12.611834266296181539
0.302000000000000157,-12.540263628181053335
0.303000000000000158,-12.468431181873189217
0.304000000000000159,-12.396385008222887691
0.305000000000000160,-12.324171666578836337
0.306000000000000161,-12.251836173634121252
0.307000000000000162,-12.179421986905186515
0.308000000000000163,-12.106970992645207374
0.309000000000000163,-12.034523497988406149
0.310000000000000164,-11.962118227118482494
0.311000000000000165,-11.889792321252102170
0.312000000000000166,-11.817581342227672536
0.313000000000000167,-11.745519279489673892
0.314000000000000168,-11.673638560260075181
0.315000000000000169,-11.601970062690352137
0.316000000000000170,-11.530543131790595979
0.317000000000000171,-11.459385597935559886
0.318000000000000171,-11.388523797751700428
0.319000000000000172,-11.317982597194063743
0.320000000000000173,-11.247785416626681965
0.321000000000000174,-11.177954257726010923
0.322000000000000175,-11.108509732032489481
0.323000000000000176,-11.039471090981495038
0.324000000000000177,-10.970856257251380583
0.325000000000000178,-10.902681857272460419
0.326000000000000179,-10.834963254747714601
0.327000000000000179,-10.767714585042437392
0.328000000000000180,-10.700948790306689773
0.329000000000000181,-10.634677655201423718
0.330000000000000182,-10.568911843105308179
0.331000000000000183,-10.503660932686468499
0.332000000000000184,-10.438933454729385275
0.333000000000000185,-10.374736929113934636
0.334000000000000186,-10.311077901849788674
0.335000000000000187,-10.247961982075468157
0.336000000000000187,-10.185393878937592405
0.337000000000000188,-10.123377438271457862
0.338000000000000189,-10.061915679010038360
0.339000000000000190,-10.001010829253889511
0.340000000000000191,-9.940664361939649751
0.341000000000000192,-9.880877030050372767
0.342000000000000193,-9.821648901315281677
0.343000000000000194,-9.762979392351947894
0.344000000000000195,-9.704867302207798474
0.345000000000000195,-9.647310845262751400
0.346000000000000196,-9.590307683458576093
0.347000000000000197,-9.533854957824686949
0.348000000000000198,-9.477949319273795581
0.349000000000000199,-9.422586958644405541
0.350000000000000200,-9.367763635970536740
0.351000000000000201,-9.313474708962230508
0.352000000000000202,-9.259715160683395396
0.353000000000000203,-9.206479626416372852
0.354000000000000203,-9.153762419705312681
0.355000000000000204,-9.101557557572842683
0.356000000000000205,-9.049858784906907871
0.357000000000000206,-8.998659598016852001
0.358000000000000207,-8.947953267359700646
0.359000000000000208,-8.897732859439599906
0.360000000000000209,-8.847991257885066574
0.361000000000000210,-8.798721183710233262
0.362000000000000210,-8.749915214767819194
0.363000000000000211,-8.701565804402807913
0.364000000000000212,-8.653665299317168547
0.365000000000000213,-8.606205956656877376
0.366000000000000214,-8.559179960333667125
0.367000000000000215,-8.512579436594741367
0.368000000000000216,-8.466396468854540558
0.369000000000000217,-8.420623111803248406
0.370000000000000218,-8.375251404807563915
0.371000000000000218,-8.330273384619534482
0.372000000000000219,-8.285681097409947071
0.373000000000000220,-8.241466610143048044
0.374000000000000221,-8.197622021309673102
0.375000000000000222,-8.154139471036209841
0.376000000000000223,-8.111011150586957541
0.377000000000000224,-8.068229311277560711
0.378000000000000225,-8.025786272817450495
0.379000000000000226,-7.983674431098981117
0.380000000000000226,-7.941886265451328697
0.381000000000000227,-7.900414345376765013
0.382000000000000228,-7.859251336787240305
0.383000000000000229,-7.818390007758750926
0.384000000000000230,-7.777823233821067106
0.385000000000000231,-7.737544002800103904
0.386000000000000232,-7.697545419230024777
0.387000000000000233,-7.657820708351972705
0.388000000000000234,-7.618363219716030699
0.389000000000000234,-7.579166430402864307
0.390000000000000235,-7.540223947880972055
0.391000000000000236,-7.501529512515476839
0.392000000000000237,-7.463076999743798012
0.393000000000000238,-7.424860421933432875
0.394000000000000239,-7.386873929936572658
0.395000000000000240,-7.349111814356054317
0.396000000000000241,-7.311568506536739065
0.397000000000000242,-7.274238579296023133
0.398000000000000242,-7.237116747406957984
0.399000000000000243,-7.200197867846862998
0.400000000000000244,-7.163476939824175993
0.401000000000000245,-7.126949104595780682
0.402000000000000246,-7.090609645086732193
0.403000000000000247,-7.054453985323883458
0.404000000000000248,-7.018477689694613275
0.405000000000000249,-6.982676462041449206
0.406000000000000250,-6.947046144603024054
0.407000000000000250,-6.911582716811430771
0.408000000000000251,-6.876282293955709335
0.409000000000000252,-6.841141125720866967
0.410000000000000253,-6.806155594611359660
0.411000000000000254,-6.771322214267851969
0.412000000000000255,-6.736637627685468033
0.413000000000000256,-6.702098605341665127
0.414000000000000257,-6.667702043241314769
0.415000000000000258,-6.633444960886461850
0.416000000000000258,-6.599324499177771308
0.417000000000000259,-6.565337918254402716
0.418000000000000260,-6.531482595278875536
0.419000000000000261,-6.497756022172953116
0.420000000000000262,-6.464155803310580595
0.421000000000000263,-6.430679653173409172
0.422000000000000264,-6.397325393974266028
0.423000000000000265,-6.364090953253674243
0.424000000000000266,-6.330974361454283716
0.425000000000000266,-6.297973749477755234
0.426000000000000267,-6.265087346228465748
0.427000000000000268,-6.232313476148198639
0.428000000000000269,-6.199650556745668339
0.429000000000000270,-6.167097096124583899
0.430000000000000271,-6.134651690513736710
0.431000000000000272,-6.102313021802382664
0.432000000000000273,-6.070079855083965192
0.433000000000000274,-6.037951036211145706
0.434000000000000274,-6.005925489364759784
0.435000000000000275,-5.974002214639309472
0.436000000000000276,-5.942180285647337357
0.437000000000000277,-5.910458847144862915
0.438000000000000278,-5.878837112679970112
0.439000000000000279,-5.847314362266452292
0.440000000000000280,-5.815889940084224108
0.441000000000000281,-5.784563252208188011
0.442000000000000282,-5.753333764367017267
0.443000000000000282,-5.722200999733205506
0.444000000000000283,-5.691164536745679570
0.445000000000000284,-5.660224006966053878
0.446000000000000285,-5.629379092969566400
0.447000000000000286,-5.598629526271662549
0.448000000000000287,-5.567975085290934878
0.449000000000000288,-5.537415593349276577
0.450000000000000289,-5.506950916709766553
0.451000000000000290,-5.476580962652887408
0.452000000000000290,-5.446305677591547934
0.453000000000000291,-5.416125045225263612
0.454000000000000292,-5.386039084733836191
0.455000000000000293,-5.356047849010744599
0.456000000000000294,-5.326151422936483470
0.457000000000000295,-5.296349921691878571
0.458000000000000296,-5.266643489111520360
0.459000000000000297,-5.237032296077270388
0.460000000000000298,-5.207516538951781904
0.461000000000000298,-5.178096438051968953
0.462000000000000299,-5.148772236162265870
0.463000000000000300,-5.119544197087458670
0.464000000000000301,-5.090412604244887618
0.465000000000000302,-5.061377759295783818
0.466000000000000303,-5.032439980815348157
0.467000000000000304,-5.003599603001315899
0.468000000000000305,-4.974856974420627687
0.469000000000000306,-4.946212456793773526
0.470000000000000306,-4.917666423816454468
0.471000000000000307,-4.889219260018027313
0.472000000000000308,-4.860871359656387725
0.473000000000000309,-4.832623125648690454
0.474000000000000310,-4.804474968537469692
0.475000000000000311,-4.776427305491615982
0.476000000000000312,-4.748480559341703433
0.477000000000000313,-4.720635157649068603
0.478000000000000314,-4.692891531808106365
0.479000000000000314,-4.665250116181254292
0.480000000000000315,-4.637711347265987882
0.481000000000000316,-4.610275662893347004
0.482000000000000317,-4.582943501457321211
0.483000000000000318,-4.555715301174524612
0.484000000000000319,-4.528591499373553653
0.485000000000000320,-4.501572531813434530
0.486000000000000321,-4.474658832030513622
0.487000000000000322,-4.447850830713216297
0.488000000000000322,-4.421148955104029277
0.489000000000000323,-4.394553628428130132
0.490000000000000324,-4.368065269348021751
0.491000000000000325,-4.341684291443593580
0.492000000000000326,-4.315411102716939062
0.493000000000000327,-4.289246105121426567
0.494000000000000328,-4.263189694114309702
0.495000000000000329,-4.237242258232379655
0.496000000000000330,-4.211404178689990729
0.497000000000000330,-4.185675828998924430
0.498000000000000331,-4.160057574609462350
0.499000000000000332,-4.134549772572156279
0.500000000000000333,-4.109152771219645395
0.501000000000000334,-4.083866909868034689
0.502000000000000335,-4.058692518537197813
0.503000000000000336,-4.033629917689556699
0.504000000000000337,-4.008679417986681592
0.505000000000000338,-3.983841320063268743
0.506000000000000338,-3.959115914317917095
0.507000000000000339,-3.934503480720203505
0.508000000000000340,-3.910004288633538660
0.509000000000000341,-3.885618596653328982
0.510000000000000342,-3.861346652459901385
0.511000000000000343,-3.837188692685744140
0.512000000000000344,-3.813144942796576231
0.513000000000000345,-3.789215616985773583
0.514000000000000346,-3.765400918081705406
0.515000000000000346,-3.741701037467520141
0.516000000000000347,-3.718116155012919144
0.517000000000000348,-3.694646439017560624
0.518000000000000349,-3.671292046165555600
0.519000000000000350,-3.648053121490760109
0.520000000000000351,-3.624929798352364507
0.521000000000000352,-3.601922198420452137
0.522000000000000353,-3.579030431671085033
0.523000000000000353,-3.556254596390567180
0.524000000000000354,-3.533594779188538926
0.525000000000000355,-3.511051055019469125
0.526000000000000356,-3.488623487212263008
0.527000000000000357,-3.466312127507620744
0.528000000000000358,-3.444117016102783424
0.529000000000000359,-3.422038181703379589
0.530000000000000360,-3.400075641582023245
0.531000000000000361,-3.378229401643378260
0.532000000000000361,-3.356499456495360967
0.533000000000000362,-3.334885789526201627
0.534000000000000363,-3.313388372987085884
0.535000000000000364,-3.292007168080073320
0.536000000000000365,-3.270742125051046223
0.537000000000000366,-3.249593183287411424
0.538000000000000367,-3.228560271420300776
0.539000000000000368,-3.207643307431041535
0.540000000000000369,-3.186842198761600464
0.541000000000000369,-3.166156842428860418
0.542000000000000370,-3.145587125142395912
0.543000000000000371,-3.125132923425611331
0.544000000000000372,-3.104794103739985545
0.545000000000000373,-3.084570522612231080
0.546000000000000374,-3.064462026764156910
0.547000000000000375,-3.044468453245050554
0.548000000000000376,-3.024589629566394766
0.549000000000000377,-3.004825373838738045
0.550000000000000377,-2.985175494910508487
0.551000000000000378,-2.965639792508659056
0.552000000000000379,-2.946218057380951549
0.553000000000000380,-2.926910071439698502
0.554000000000000381,-2.907715607906847133
0.555000000000000382,-2.888634431460267216
0.556000000000000383,-2.869666298381023939
0.557000000000000384,-2.850810956701605114
0.558000000000000385,-2.832068146354896676
0.559000000000000385,-2.813437599323797222
0.560000000000000386,-2.794919039791362358
0.561000000000000387,-2.776512184291354934
0.562000000000000388,-2.758216741859080834
0.563000000000000389,-2.740032414182409504
0.564000000000000390,-2.721958895752873975
0.565000000000000391,-2.703995874016744683
0.566000000000000392,-2.686143029525994930
0.567000000000000393,-2.668400036089059402
0.568000000000000393,-2.650766560921278270
0.569000000000000394,-2.633242264794974030
0.570000000000000395,-2.615826802189079370
0.571000000000000396,-2.598519821438195265
0.572000000000000397,-2.581320964881068214
0.573000000000000398,-2.564229869008371132
0.574000000000000399,-2.547246164609739516
0.575000000000000400,-2.530369476920001581
0.576000000000000401,-2.513599425764515782
0.577000000000000401,-2.496935625703625039
0.578000000000000402,-2.480377686176070906
0.579000000000000403,-2.463925211641414315
0.580000000000000404,-2.447577801721358526
0.581000000000000405,-2.431335051339945430
0.582000000000000406,-2.415196550862573677
0.583000000000000407,-2.399161886233804442
0.584000000000000408,-2.383230639113922855
0.585000000000000409,-2.367402387014201359
0.586000000000000409,-2.351676703430833903
0.587000000000000410,-2.336053157977540984
0.588000000000000411,-2.320531316516758924
0.589000000000000412,-2.305110741289443155
0.590000000000000413,-2.289790991043416213
0.591000000000000414,-2.274571621160259127
0.592000000000000415,-2.259452183780736867
0.593000000000000416,-2.244432227928688128
0.594000000000000417,-2.229511299633418986
0.595000000000000417,-2.214688942050563991
0.596000000000000418,-2.199964695581356544
0.597000000000000419,-2.185338097990388029
0.598000000000000420,-2.170808684521733589
0.599000000000000421,-2.156375988013532030
0.600000000000000422,-2.142039539010942129
0.601000000000000423,-2.127798865877504220
0.602000000000000424,-2.113653494904887964
0.603000000000000425,-2.099602950421016967
0.604000000000000425,-2.085646754896579580
0.605000000000000426,-2.071784429049906340
0.606000000000000427,-2.058015491950238918
0.607000000000000428,-2.044339461119337731
0.608000000000000429,-2.030755852631501046
0.609000000000000430,-2.017264181211923635
0.610000000000000431,-2.003863960333464256
