# GoldBrush_ETHENE-AC
# h[nm],U(h)[kJ/mol]
0.200000000000000011,41.240874620591895905
0.201000000000000012,39.124517131850510054
0.202000000000000013,37.841064238309073176
0.203000000000000014,36.936246689517119535
0.204000000000000015,36.157175520358869392
0.205000000000000016,35.377725277019308692
0.206000000000000016,34.547952186853173373
0.207000000000000017,33.660601945423451298
0.208000000000000018,32.729606909208051491
0.209000000000000019,31.776858259629683801
0.210000000000000020,30.824573917306516080
0.211000000000000021,29.891351615525007190
0.212000000000000022,28.990563267077895659
0.213000000000000023,28.130161254824589179
0.214000000000000024,27.313267581733395417
0.215000000000000024,26.539131959434040908
0.216000000000000025,25.804196965362688587
0.217000000000000026,25.103114066079534439
0.218000000000000027,24.429626177900694017
0.219000000000000028,23.777279950471516656
0.220000000000000029,23.139961141250804388
0.221000000000000030,22.512264495280355447
0.222000000000000031,21.889719265463188691
0.223000000000000032,21.268895670404653231
0.224000000000000032,20.647418174418270098
0.225000000000000033,20.023909890571882642
0.226000000000000034,19.397889626088524295
0.227000000000000035,18.769639769097892668
0.228000000000000036,18.140059788135452834
0.229000000000000037,17.510516849773871684
0.230000000000000038,16.882702109916817079
0.231000000000000039,16.258498676526606630
0.232000000000000040,15.639865099253611902
0.233000000000000040,15.028736504195501666
0.234000000000000041,14.426944129104347425
0.235000000000000042,13.836152984086330875
0.236000000000000043,13.257816618957596333
0.237000000000000044,12.693147474375647832
0.238000000000000045,12.143100985463631147
0.239000000000000046,11.608371453613393953
0.240000000000000047,11.089397668920074835
0.241000000000000048,10.586376321657620991
0.242000000000000048,10.099281360604985380
0.243000000000000049,9.627887617691390787
0.244000000000000050,9.171797205297124833
0.245000000000000051,8.730467391209760564
0.246000000000000052,8.303238856440016136
0.247000000000000053,7.889363435241816269
0.248000000000000054,7.488030619372691987
0.249000000000000055,7.098392276289781755
0.250000000000000056,6.719585181461435575
0.251000000000000056,6.350751097277465895
0.252000000000000057,5.991054245016469437
0.253000000000000058,5.639696112474775980
0.254000000000000059,5.295927619131817643
0.255000000000000060,4.959058724383969441
0.256000000000000061,4.628465613872942086
0.257000000000000062,4.303595635809528197
0.258000000000000063,3.983970185015535126
0.259000000000000064,3.669185748710836581
0.260000000000000064,3.358913336322660204
0.261000000000000065,3.052896517159054746
0.262000000000000066,2.750948285920313374
0.263000000000000067,2.452946967853992355
0.264000000000000068,2.158831363894910371
0.265000000000000069,1.868595322251678237
0.266000000000000070,1.582281907367316665
0.267000000000000071,1.299977320638175282
0.268000000000000071,1.021804710266569050
0.269000000000000072,0.747917990592041892
0.270000000000000073,0.478495774554765052
0.271000000000000074,0.213735506874324355
0.272000000000000075,-0.046152129706868328
0.273000000000000076,-0.300948477006218074
0.274000000000000077,-0.550431787840561015
0.275000000000000078,-0.794381703328073341
0.276000000000000079,-1.032583298837856045
0.277000000000000079,-1.264830685957704315
0.278000000000000080,-1.490930166261838608
0.279000000000000081,-1.710702939940923928
0.280000000000000082,-1.923987378558676742
0.281000000000000083,-2.130640876389544580
0.282000000000000084,-2.330541299040783443
0.283000000000000085,-2.523588051446537417
0.284000000000000086,-2.709702789919399724
0.285000000000000087,-2.888829804834271542
0.286000000000000087,-3.060936101778030327
0.287000000000000088,-3.226011209701043381
0.288000000000000089,-3.384066744824377970
0.289000000000000090,-3.535135758857902655
0.290000000000000091,-3.679271899531641132
0.291000000000000092,-3.816548410595808072
0.292000000000000093,-3.947056997356198416
0.293000000000000094,-4.070906582531214291
0.294000000000000095,-4.188221975788181339
0.295000000000000095,-4.299142478779815590
0.296000000000000096,-4.403820445891154733
0.297000000000000097,-4.502419819254021682
0.298000000000000098,-4.595114654916799601
0.299000000000000099,-4.682087655394590264
0.300000000000000100,-4.763528722188414832
0.301000000000000101,-4.839633540268043710
0.302000000000000102,-4.910602204974425788
0.303000000000000103,-4.976637900325914465
0.304000000000000103,-5.037945636314566933
0.305000000000000104,-5.094731051462376925
0.306000000000000105,-5.147199285675677416
0.307000000000000106,-5.195553927292145602
0.308000000000000107,-5.239996037160392639
0.309000000000000108,-5.280723251626658232
0.310000000000000109,-5.317928965426173882
0.311000000000000110,-5.351801594685872132
0.312000000000000111,-5.382523919538698465
0.313000000000000111,-5.410272505223528761
0.314000000000000112,-5.435217199996260184
0.315000000000000113,-5.457520707702037122
0.316000000000000114,-5.477338232452536815
0.317000000000000115,-5.494817192510686787
0.318000000000000116,-5.510097000204253526
0.319000000000000117,-5.523308904464572677
0.320000000000000118,-5.534575892413102771
0.321000000000000119,-5.544012646291916369
0.322000000000000119,-5.551725551950570825
0.323000000000000120,-5.557812755056614762
0.324000000000000121,-5.562364261186760750
0.325000000000000122,-5.565462075976137513
0.326000000000000123,-5.567180381550758561
0.327000000000000124,-5.567585745539822994
0.328000000000000125,-5.566737359056787682
0.329000000000000126,-5.564687300147605598
0.330000000000000127,-5.561480819329207570
0.331000000000000127,-5.557156643978070854
0.332000000000000128,-5.551747298475144810
0.333000000000000129,-5.545279437167762282
0.334000000000000130,-5.537774187368998291
0.335000000000000131,-5.529247499778794150
0.336000000000000132,-5.519710503877105268
0.337000000000000133,-5.509169866006287997
0.338000000000000134,-5.497628148026310946
0.339000000000000135,-5.485084164591126132
0.340000000000000135,-5.471533337256804685
0.341000000000000136,-5.456968043790724643
0.342000000000000137,-5.441377961205716929
0.343000000000000138,-5.424750401192776295
0.344000000000000139,-5.407070636770405336
0.345000000000000140,-5.388322219107386069
0.346000000000000141,-5.368487283608311955
0.347000000000000142,-5.347546844477541583
0.348000000000000143,-5.325481077097068194
0.349000000000000143,-5.302269587666847528
0.350000000000000144,-5.277891669662763796
0.351000000000000145,-5.252326546767048576
0.352000000000000146,-5.225553602019283872
0.353000000000000147,-5.197552593022608747
0.354000000000000148,-5.168303853119930125
0.355000000000000149,-5.137788478528781511
0.356000000000000150,-5.105988501491189879
0.357000000000000151,-5.072887049556610073
0.358000000000000151,-5.038468491172092278
0.359000000000000152,-5.002718567804235406
0.360000000000000153,-4.965624512862830464
0.361000000000000154,-4.927175157736138900
0.362000000000000155,-4.887361025283224691
0.363000000000000156,-4.846174411159552164
0.364000000000000157,-4.803609453378526517
0.365000000000000158,-4.759662190534328374
0.366000000000000159,-4.714330609129864236
0.367000000000000159,-4.667614680468884281
0.368000000000000160,-4.619516387583287198
0.369000000000000161,-4.570039742675108485
0.370000000000000162,-4.519190795558819751
0.371000000000000163,-4.466977633592829733
0.372000000000000164,-4.413410373589809588
0.373000000000000165,-4.358501146194362796
0.374000000000000166,-4.302264073213045492
0.375000000000000167,-4.244715238376719491
0.376000000000000167,-4.185872652008446160
0.377000000000000168,-4.125756210061801710
0.378000000000000169,-4.064387647985109098
0.379000000000000170,-4.001790489856334787
0.380000000000000171,-3.937989993221685303
0.381000000000000172,-3.873013090058565755
0.382000000000000173,-3.806888324270063073
0.383000000000000174,-3.739645786104512926
0.384000000000000175,-3.671317043879085418
0.385000000000000175,-3.601935073371710594
0.386000000000000176,-3.531534185230477796
0.387000000000000177,-3.460149950734386692
0.388000000000000178,-3.387819126223941879
0.389000000000000179,-3.314579576504430580
0.390000000000000180,-3.240470197509474737
0.391000000000000181,-3.165530838496732891
0.392000000000000182,-3.089802224032716982
0.393000000000000183,-3.013325876008142501
0.394000000000000183,-2.936144035910711825
0.395000000000000184,-2.858299587567402877
0.396000000000000185,-2.779835980553981400
0.397000000000000186,-2.700797154455659488
0.398000000000000187,-2.621227464148873310
0.399000000000000188,-2.541171606261124261
0.400000000000000189,-2.460674546952900332
0.401000000000000190,-2.379781451153044181
0.402000000000000191,-2.298537613367297006
0.403000000000000191,-2.216988390167705880
0.404000000000000192,-2.135179134459763706
0.405000000000000193,-2.053155131613304540
0.406000000000000194,-1.970961537532909258
0.407000000000000195,-1.888643318733981946
0.408000000000000196,-1.806245194480987859
0.409000000000000197,-1.723811581035779694
0.410000000000000198,-1.641386538055354505
0.411000000000000199,-1.559013717170355973
0.412000000000000199,-1.476736312768130333
0.413000000000000200,-1.394597014997058793
0.414000000000000201,-1.312637965002074081
0.415000000000000202,-1.230900712394984442
0.416000000000000203,-1.149426174957473235
0.417000000000000204,-1.068254600568835588
0.418000000000000205,-0.987425531345698770
0.419000000000000206,-0.906977769976026971
0.420000000000000207,-0.826949348225212710
0.421000000000000207,-0.747377497588312956
0.422000000000000208,-0.668298622058298708
0.423000000000000209,-0.589748272977194676
0.424000000000000210,-0.511761125933555716
0.425000000000000211,-0.434370959667059242
0.426000000000000212,-0.357610636938409887
0.427000000000000213,-0.281512087320437865
0.428000000000000214,-0.206106291864354724
0.429000000000000214,-0.131423269593202469
0.430000000000000215,-0.057492065773077174
0.431000000000000216,0.015659258088537964
0.432000000000000217,0.088003632569382345
0.433000000000000218,0.159514987036618094
0.434000000000000219,0.230168254782270848
0.435000000000000220,0.299939376643957090
0.436000000000000221,0.368805303165446241
0.437000000000000222,0.436743995351815406
0.438000000000000222,0.503734424074020692
0.439000000000000223,0.569756568177746336
0.440000000000000224,0.634791411351182666
0.441000000000000225,0.698820937806184261
0.442000000000000226,0.761828126826700758
0.443000000000000227,0.823796946238158689
0.444000000000000228,0.884712344850668964
0.445000000000000229,0.944560243928391552
0.446000000000000230,1.003327527736626923
0.447000000000000230,1.061002033217407270
0.448000000000000231,1.117572538843493390
0.449000000000000232,1.173028752699754040
0.450000000000000233,1.227361299839930142
0.451000000000000234,1.280561708965775924
0.452000000000000235,1.332622398474491821
0.453000000000000236,1.383536661919315014
0.454000000000000237,1.433298652926913608
0.455000000000000238,1.481903369614219201
0.456000000000000238,1.529346638545995507
0.457000000000000239,1.575625098273462310
0.458000000000000240,1.620736182492804378
0.459000000000000241,1.664678102861554709
0.460000000000000242,1.707449831509222360
0.461000000000000243,1.749051083277684215
0.462000000000000244,1.789482297725317750
0.463000000000000245,1.828744620927928555
0.464000000000000246,1.866839887108068918
0.465000000000000246,1.903770600123244616
0.466000000000000247,1.939539914842365986
0.467000000000000248,1.974151618438497735
0.468000000000000249,2.007610111624839710
0.469000000000000250,2.039920389859749772
0.470000000000000251,2.071088024545402639
0.471000000000000252,2.101119144243646097
0.472000000000000253,2.130020415931397793
0.473000000000000254,2.157799026316951085
0.474000000000000254,2.184462663237438207
0.475000000000000255,2.210019497156621604
0.476000000000000256,2.234478162781288635
0.477000000000000257,2.257847740813337278
0.478000000000000258,2.280137739853878465
0.479000000000000259,2.301358078474555757
0.480000000000000260,2.321519067470457109
0.481000000000000261,2.340631392308092362
0.482000000000000262,2.358706095780935819
0.483000000000000262,2.375754560884351996
0.484000000000000263,2.391788493920715908
0.485000000000000264,2.406819907844915729
0.486000000000000265,2.420861105859478890
0.487000000000000266,2.433924665267954701
0.488000000000000267,2.446023421594428093
0.489000000000000268,2.457170452976232156
0.490000000000000269,2.467379064836476399
0.491000000000000270,2.476662774842096404
0.492000000000000270,2.485035298152740602
0.493000000000000271,2.492510532965034553
0.494000000000000272,2.499102546356315457
0.495000000000000273,2.504825560431269693
0.496000000000000274,2.509693938774444799
0.497000000000000275,2.513722173211111688
0.498000000000000276,2.516924870878358256
0.499000000000000277,2.519316741607995347
0.500000000000000222,2.520912585622248514
0.501000000000000334,2.521727281542926580
0.502000000000000224,2.521775774714229090
0.503000000000000336,2.521073065839097183
0.504000000000000226,2.519634199928535434
0.505000000000000338,2.517474255563082242
0.506000000000000227,2.514608334465180395
0.507000000000000339,2.511051551381021874
0.508000000000000229,2.506819024270019014
0.509000000000000341,2.501925864799841470
0.510000000000000231,2.496387169144725249
0.511000000000000343,2.490218009084444795
0.512000000000000233,2.483433423401218754
0.513000000000000345,2.476048409571455444
0.514000000000000234,2.468077915749205431
0.515000000000000346,2.459536833037904380
0.516000000000000236,2.450439988046860584
0.517000000000000348,2.440802135728722622
0.518000000000000238,2.430637952494160370
0.519000000000000350,2.419962029599640907
0.520000000000000240,2.408788866804290940
0.521000000000000352,2.397132866291526110
0.522000000000000242,2.385008326851205673
0.523000000000000353,2.372429438317778860
0.524000000000000243,2.359410276260045514
0.525000000000000355,2.345964796917849871
0.526000000000000245,2.332106832381154238
0.527000000000000357,2.317850086006728816
0.528000000000000247,2.303208128067791183
0.529000000000000359,2.288194391631772628
0.530000000000000249,2.272822168661438269
0.531000000000000361,2.257104606334501273
0.532000000000000250,2.241054703576941254
0.533000000000000362,2.224685307805091217
0.534000000000000252,2.208009111871761299
0.535000000000000364,2.191038651211360211
0.536000000000000254,2.173786301179390090
0.537000000000000366,2.156264274581253915
0.538000000000000256,2.138484619385754293
0.539000000000000368,2.120459216618316045
0.540000000000000258,2.102199778429323374
0.541000000000000369,2.083717846332654222
0.542000000000000259,2.065024789609910094
0.543000000000000371,2.046131803875467892
0.544000000000000261,2.027049909797884020
0.545000000000000373,2.007789951972968279
0.546000000000000263,1.988362597944086430
0.547000000000000375,1.968778337365051367
0.548000000000000265,1.949047481301394047
0.549000000000000377,1.929180161665375648
0.550000000000000266,1.909186330780682450
0.551000000000000378,1.889075761072292137
0.552000000000000268,1.868858044877516944
0.553000000000000380,1.848542594373934422
0.554000000000000270,1.828138641620234095
0.555000000000000382,1.807655238705870415
0.556000000000000272,1.787101258005687754
0.557000000000000384,1.766485392535524834
0.558000000000000274,1.745816156405092912
0.559000000000000385,1.725101885364287213
0.560000000000000275,1.704350737439361385
0.561000000000000387,1.683570693655255024
0.562000000000000277,1.662769558840666573
0.563000000000000389,1.641954962512272020
0.564000000000000279,1.621134359834838223
0.565000000000000391,1.600315032653780722
0.566000000000000281,1.579504090597061206
0.567000000000000393,1.558708472243093279
0.568000000000000282,1.537934946351704690
0.569000000000000394,1.517190113154969877
0.570000000000000284,1.496480405705134187
0.571000000000000396,1.475812091276512916
0.572000000000000286,1.455191272818767256
0.573000000000000398,1.434623890458620155
0.574000000000000288,1.414115723047480344
0.575000000000000400,1.393672389752201424
0.576000000000000290,1.373299351686618541
0.577000000000000401,1.353001913581171944
0.578000000000000291,1.332785225488391401
0.579000000000000403,1.312654284521769465
0.580000000000000293,1.292613936625827353
0.581000000000000405,1.272668878375040169
0.582000000000000295,1.252823658799653517
0.583000000000000407,1.233082681236068234
0.584000000000000297,1.213450205199998244
0.585000000000000409,1.193930348280215936
0.586000000000000298,1.174527088051190660
0.587000000000000410,1.155244264002549093
0.588000000000000300,1.136085579483796959
0.589000000000000412,1.117054603662346768
0.590000000000000302,1.098154773493381198
0.591000000000000414,1.079389395699739129
0.592000000000000304,1.060761648760442766
0.593000000000000416,1.042274584906182300
0.594000000000000306,1.023931132120440513
0.595000000000000417,1.005734096144724976
0.596000000000000307,0.987686162486681951
0.597000000000000419,0.969789898429642250
0.598000000000000309,0.952047755042438992
0.599000000000000421,0.934462069188260358
0.600000000000000311,0.917035065531351279
0.601000000000000423,0.899768858540433092
0.602000000000000313,0.882665454487846057
0.603000000000000425,0.865726753443243013
0.604000000000000314,0.848954551261003609
0.605000000000000426,0.832350541560260226
0.606000000000000316,0.815916317696775528
0.607000000000000428,0.799653374725683208
0.608000000000000318,0.783563111354346420
0.609000000000000430,0.767646831884461367
0.610000000000000320,0.751905748142767449
0.611000000000000432,0.736340981399478123
0.612000000000000322,0.720953564273935421
0.613000000000000433,0.705744442626671686
0.614000000000000323,0.690714477437370356
0.615000000000000435,0.675864446668070329
0.616000000000000325,0.661195047111136747
0.617000000000000437,0.646706896221363792
0.618000000000000327,0.632400533931840703
0.619000000000000439,0.618276424453003459
0.620000000000000329,0.604334958054516758
0.621000000000000441,0.590576452829521314
0.622000000000000330,0.577001156440903107
0.623000000000000442,0.563609247849169881
0.624000000000000332,0.550400839021697563
0.625000000000000444,0.537375976622899376
0.626000000000000334,0.524534643685182767
0.627000000000000446,0.511876761260292690
0.628000000000000336,0.499402190050900863
0.629000000000000448,0.487110732022150494
0.630000000000000338,0.475002131993025434
0.631000000000000449,0.463076079207258906
0.632000000000000339,0.451332208883745867
0.633000000000000451,0.439770103746205954
0.634000000000000341,0.428389295532055681
0.635000000000000453,0.417189266480286758
0.636000000000000343,0.406169450798392728
0.637000000000000455,0.395329236108096393
0.638000000000000345,0.384667964870003432
0.639000000000000457,0.374184935786959494
0.640000000000000346,0.363879405186231297
0.641000000000000458,0.353750588380361053
0.642000000000000348,0.343797661006817967
0.643000000000000460,0.334019760346324635
0.644000000000000350,0.324415986620001373
0.645000000000000462,0.314985404265248625
0.646000000000000352,0.305727043190521353
0.647000000000000464,0.296639900008921542
0.648000000000000353,0.287722939250819987
0.649000000000000465,0.278975094555424963
0.650000000000000355,0.270395269841529284
0.651000000000000467,0.261982340457403817
0.652000000000000357,0.253735154310022026
0.653000000000000469,0.245652532973682058
0.654000000000000359,0.237733272778156479
0.655000000000000471,0.229976145876486043
0.656000000000000361,0.222379901292573429
0.657000000000000473,0.214943265948659118
0.658000000000000362,0.207664945672895174
0.659000000000000474,0.200543626187103641
0.660000000000000364,0.193577974074925330
0.661000000000000476,0.186766637730461371
0.662000000000000366,0.180108248287647210
0.663000000000000478,0.173601420530457434
0.664000000000000368,0.167244753784177774
0.665000000000000480,0.161036832787861045
0.666000000000000369,0.154976228548218270
0.667000000000000481,0.149061499175067114
0.668000000000000371,0.143291190698584481
0.669000000000000483,0.137663837868502004
