# GoldBrush_DMEP-AC
# h[nm],U(h)[kJ/mol]
0.200000000000000011,99.467068115852143251
0.201000000000000012,96.936248113193627773
0.202000000000000013,94.743122042004316086
0.203000000000000014,92.731004454646424051
0.204000000000000015,90.808100040400134390
0.205000000000000016,88.924762468450268216
0.206000000000000016,87.057711190957121516
0.207000000000000017,85.199292177861877917
0.208000000000000018,83.350353362758454523
0.209000000000000019,81.515675154813948211
0.210000000000000020,79.701176805151774829
0.211000000000000021,77.912331103132714816
0.212000000000000022,76.153378729598685482
0.213000000000000023,74.427051994071391050
0.214000000000000024,72.734605244867566398
0.215000000000000024,71.076013407438225045
0.216000000000000025,69.450246620250936758
0.217000000000000026,67.855562215926525482
0.218000000000000027,66.289778721332183409
0.219000000000000028,64.750512704153351251
0.220000000000000029,63.235370133102513535
0.221000000000000030,61.742090921770362399
0.222000000000000031,60.268649599655034876
0.223000000000000032,58.813317421991449407
0.224000000000000032,57.374692300057930083
0.225000000000000033,55.951703148706144475
0.226000000000000034,54.543594926876927786
0.227000000000000035,53.149900015720469071
0.228000000000000036,51.770400794259799682
0.229000000000000037,50.405087439928990989
0.230000000000000038,49.054114169176941118
0.231000000000000039,47.717756383311666468
0.232000000000000040,46.396370519640115049
0.233000000000000040,45.090357837461617407
0.234000000000000041,43.800132893601357864
0.235000000000000042,42.526097078345060254
0.236000000000000043,41.268617281956544218
0.237000000000000044,40.028009534808163039
0.238000000000000045,38.804527300280284408
0.239000000000000046,37.598353988866350051
0.240000000000000047,36.409599194789841192
0.241000000000000048,35.238298124209009643
0.242000000000000048,34.084413679029978539
0.243000000000000049,32.947840675791056242
0.244000000000000050,31.828411709354007542
0.245000000000000051,30.725904211512563791
0.246000000000000052,29.640048301266347153
0.247000000000000053,28.570535073323064523
0.248000000000000054,27.517025021986494693
0.249000000000000055,26.479156347139667815
0.250000000000000056,25.456552936206900739
0.251000000000000056,24.448831859845377323
0.252000000000000057,23.455610259079342939
0.253000000000000058,22.476511537314713962
0.254000000000000059,21.511170802030125770
0.255000000000000060,20.559239527970476047
0.256000000000000061,19.620389436519946713
0.257000000000000062,18.694315604842795864
0.258000000000000063,17.780738833645969521
0.259000000000000064,16.879407314367366411
0.260000000000000064,15.990097645573786878
0.261000000000000065,15.112615254715610291
0.262000000000000066,14.246794285469508878
0.263000000000000067,13.392497013040832954
0.264000000000000068,12.549612850298050404
0.265000000000000069,11.718057006758737515
0.266000000000000070,10.897768860503147081
0.267000000000000071,10.088710100285803506
0.268000000000000071,9.290862691660034756
0.269000000000000072,8.504226717003021463
0.270000000000000073,7.728818135088246777
0.271000000000000074,6.964666501432826173
0.272000000000000075,6.211812686160165242
0.273000000000000076,5.470306621659262625
0.274000000000000077,4.740205107965085318
0.275000000000000078,4.021569699590711977
0.276000000000000079,3.314464693558679897
0.277000000000000079,2.618955234637772911
0.278000000000000080,1.935105550321414736
0.279000000000000081,1.262977324893717723
0.280000000000000082,0.602628219032485979
0.281000000000000083,-0.045889461208201254
0.282000000000000084,-0.682529944509864372
0.283000000000000085,-1.307255024007092814
0.284000000000000086,-1.920034938890595955
0.285000000000000087,-2.520849111686395805
0.286000000000000087,-3.109686746274951119
0.287000000000000088,-3.686547292761904515
0.288000000000000089,-4.251440786153910523
0.289000000000000090,-4.804388066447282668
0.290000000000000091,-5.345420888218356481
0.291000000000000092,-5.874581928134782416
0.292000000000000093,-6.391924698998151300
0.293000000000000094,-6.897513379000362654
0.294000000000000095,-7.391422564842002885
0.295000000000000095,-7.873736957237730039
0.296000000000000096,-8.344550987130961772
0.297000000000000097,-8.803968390675036559
0.298000000000000098,-9.252101740717922240
0.299000000000000099,-9.689071942166513907
0.300000000000000100,-10.115007698210563447
0.301000000000000101,-10.530044953968015875
0.302000000000000102,-10.934326323675568560
0.303000000000000103,-11.328000507103528349
0.304000000000000103,-11.711221700421710068
0.305000000000000104,-12.084149006294397921
0.306000000000000105,-12.446945847537747909
0.307000000000000106,-12.799779388237755740
0.308000000000000107,-13.142819965804411808
0.309000000000000108,-13.476240537029388733
0.310000000000000109,-13.800216140824622002
0.311000000000000110,-14.114923379945622628
0.312000000000000111,-14.420539923652899716
0.313000000000000111,-14.717244032931910525
0.314000000000000112,-15.005214109582649229
0.315000000000000113,-15.284628270201238820
0.316000000000000114,-15.555663945809062199
0.317000000000000115,-15.818497507639216693
0.318000000000000116,-16.073303919366033199
0.319000000000000117,-16.320256415859166310
0.320000000000000118,-16.559526208359681476
0.321000000000000119,-16.791282215811513367
0.322000000000000119,-17.015690821934125410
0.323000000000000120,-17.232915657493840911
0.324000000000000121,-17.443117407118911899
0.325000000000000122,-17.646453639906223287
0.326000000000000123,-17.843078662985469407
0.327000000000000124,-18.033143397137983754
0.328000000000000125,-18.216795273511785069
0.329000000000000126,-18.394178150429763008
0.330000000000000127,-18.565432249255170660
0.331000000000000127,-18.730694108254464680
0.332000000000000128,-18.890096553383607159
0.333000000000000129,-19.043768684917324663
0.334000000000000130,-19.191835878841622787
0.335000000000000131,-19.334419801938203420
0.336000000000000132,-19.471638439501600004
0.337000000000000133,-19.603606134649396608
0.338000000000000134,-19.730433638208662472
0.339000000000000135,-19.852228168187892265
0.340000000000000135,-19.969093477875176745
0.341000000000000136,-20.081129931635032904
0.342000000000000137,-20.188434587512400498
0.343000000000000138,-20.291101285788904818
0.344000000000000139,-20.389220742675217224
0.345000000000000140,-20.482880648362900899
0.346000000000000141,-20.572165768699086641
0.347000000000000142,-20.657158049788268528
0.348000000000000143,-20.737936724866109728
0.349000000000000143,-20.814578422830869897
0.350000000000000144,-20.887157277858158011
0.351000000000000145,-20.955745039564565246
0.352000000000000146,-21.020411183224727125
0.353000000000000147,-21.081223019584363954
0.354000000000000148,-21.138245803849152082
0.355000000000000149,-21.191542843465168033
0.356000000000000150,-21.241175604341442806
0.357000000000000151,-21.287203815198871837
0.358000000000000151,-21.329685569761789310
0.359000000000000152,-21.368677426539445463
0.360000000000000153,-21.404234505974180536
0.361000000000000154,-21.436410584760729137
0.362000000000000155,-21.465258187168259951
0.363000000000000156,-21.490828673221432865
0.364000000000000157,-21.513172323620437965
0.365000000000000158,-21.532338421302920750
0.366000000000000159,-21.548375329570660597
0.367000000000000159,-21.561330566724141278
0.368000000000000160,-21.571250877166047388
0.369000000000000161,-21.578182298951517737
0.370000000000000162,-21.582170227778732396
0.371000000000000163,-21.583259477427834128
0.372000000000000164,-21.581494336669074130
0.373000000000000165,-21.576918622673517234
0.374000000000000166,-21.569575730970338867
0.375000000000000167,-21.559508682004572933
0.376000000000000167,-21.546760164358381928
0.377000000000000168,-21.531372574706566070
0.378000000000000169,-21.513388054584147824
0.379000000000000170,-21.492848524050188530
0.380000000000000171,-21.469795712337166549
0.381000000000000172,-21.444271185579911077
0.382000000000000173,-21.416316371722096790
0.383000000000000174,-21.385972582701356259
0.384000000000000175,-21.353281034016738715
0.385000000000000175,-21.318282861784165760
0.386000000000000176,-21.281019137387257700
0.387000000000000177,-21.241530879831280743
0.388000000000000178,-21.199859065909219424
0.389000000000000179,-21.156044638288321380
0.390000000000000180,-21.110128511625507741
0.391000000000000181,-21.062151576819353238
0.392000000000000182,-21.012154703505032671
0.393000000000000183,-20.960178740897603689
0.394000000000000183,-20.906264517087201682
0.395000000000000184,-20.850452836887988894
0.396000000000000185,-20.792784478340589516
0.397000000000000186,-20.733300187965493677
0.398000000000000187,-20.672040674862607545
0.399000000000000188,-20.609046603749494153
0.400000000000000189,-20.544358587028060725
0.401000000000000190,-20.478017175966975572
0.402000000000000191,-20.410062851083988988
0.403000000000000191,-20.340536011809422945
0.404000000000000192,-20.269476965509248600
0.405000000000000193,-20.196925915942983920
0.406000000000000194,-20.122922951228694899
0.407000000000000195,-20.047508031384388971
0.408000000000000196,-19.970720975511788708
0.409000000000000197,-19.892601448685674370
0.410000000000000198,-19.813188948608907225
0.411000000000000199,-19.732522792090001928
0.412000000000000199,-19.650642101397490791
0.413000000000000200,-19.567585790542157298
0.414000000000000201,-19.483392551535455794
0.415000000000000202,-19.398100840669435740
0.416000000000000203,-19.311748864860991404
0.417000000000000204,-19.224374568100309091
0.418000000000000205,-19.136015618040794095
0.419000000000000206,-19.046709392765404090
0.420000000000000207,-18.956492967761377599
0.421000000000000207,-18.865403103133495222
0.422000000000000208,-18.773476231083026988
0.423000000000000209,-18.680748443677874349
0.424000000000000210,-18.587255480936811125
0.425000000000000211,-18.493032719248667206
0.426000000000000212,-18.398115160145550817
0.427000000000000213,-18.302537419446771594
0.428000000000000214,-18.206333716788861921
0.429000000000000214,-18.109537865554713676
0.430000000000000215,-18.012183263213497497
0.431000000000000216,-17.914302882081457824
0.432000000000000217,-17.815929260511691012
0.433000000000000218,-17.717094494520072345
0.434000000000000219,-17.617830229852707191
0.435000000000000220,-17.518167654499187336
0.436000000000000221,-17.418137491654448468
0.437000000000000222,-17.317769993131129524
0.438000000000000222,-17.217094933222917064
0.439000000000000223,-17.116141603018547812
0.440000000000000224,-17.014938805165012781
0.441000000000000225,-16.913514849077550650
0.442000000000000226,-16.811897546593474573
0.443000000000000227,-16.710114208065416364
0.444000000000000228,-16.608191638889778119
0.445000000000000229,-16.506156136464436912
0.446000000000000230,-16.404033487569890326
0.447000000000000230,-16.301848966167277410
0.448000000000000231,-16.199627331605817915
0.449000000000000232,-16.097392827232116730
0.450000000000000233,-15.995169179393304404
0.451000000000000234,-15.892979596825227873
0.452000000000000235,-15.790846770417150680
0.453000000000000236,-15.688792873343327727
0.454000000000000237,-15.586839561552420008
0.455000000000000238,-15.485007974604659609
0.456000000000000238,-15.383318736846987917
0.457000000000000239,-15.281791958916050689
0.458000000000000240,-15.180447239558725769
0.459000000000000241,-15.079303667759740293
0.460000000000000242,-14.978379825166133088
0.461000000000000243,-14.877693788797651919
0.462000000000000244,-14.777263134032969205
0.463000000000000245,-14.677104937860542933
0.464000000000000246,-14.577235782384093454
0.465000000000000246,-14.477671758571784011
0.466000000000000247,-14.378428470238613812
0.467000000000000248,-14.279521038251669296
0.468000000000000249,-14.180964104947776150
0.469000000000000250,-14.082771838753263438
0.470000000000000251,-13.984957938995654203
0.471000000000000252,-13.887535640897150202
0.472000000000000253,-13.790517720740217200
0.473000000000000254,-13.693916501195081636
0.474000000000000254,-13.597743856799926476
0.475000000000000255,-13.502011219583945234
0.476000000000000256,-13.406729584824208956
0.477000000000000257,-13.311909516927119768
0.478000000000000258,-13.217561155425437747
0.479000000000000259,-13.123694221082280009
0.480000000000000260,-13.030318022093439367
0.481000000000000261,-12.937441460379664804
0.482000000000000262,-12.845073037960736073
0.483000000000000262,-12.753220863403578633
0.484000000000000263,-12.661892658336295625
0.485000000000000264,-12.571095764021034569
0.486000000000000265,-12.480837147978068202
0.487000000000000266,-12.391123410654097725
0.488000000000000267,-12.301960792127909272
0.489000000000000268,-12.213355178846741822
0.490000000000000269,-12.125312110386778031
0.491000000000000270,-12.037836786231757458
0.492000000000000270,-11.950934072563427435
0.493000000000000271,-11.864608509058220065
0.494000000000000272,-11.778864315684494102
0.495000000000000273,-11.693705399494856323
0.496000000000000274,-11.609135361408574383
0.497000000000000275,-11.525157502978897739
0.498000000000000276,-11.441774833140657464
0.499000000000000277,-11.358990074933503323
0.500000000000000222,-11.276805672196354990
0.501000000000000334,-11.195223796228992441
0.502000000000000224,-11.114246352416747854
0.503000000000000336,-11.033874986814293351
0.504000000000000226,-10.954111092685341333
0.505000000000000338,-10.874955816994209101
0.506000000000000227,-10.796410066846648945
0.507000000000000339,-10.718474515876158293
0.508000000000000229,-10.641149610573464201
0.509000000000000341,-10.564435576555851526
0.510000000000000231,-10.488332424774302609
0.511000000000000343,-10.412839957655382506
0.512000000000000233,-10.337957775176189301
0.513000000000000345,-10.263685280869610850
0.514000000000000234,-10.190021687758548552
0.515000000000000346,-10.116966024216495157
0.516000000000000236,-10.044517139753525115
0.517000000000000348,-9.972673710725368679
0.518000000000000238,-9.901434245964754410
0.519000000000000350,-9.830797092333108722
0.520000000000000240,-9.760760440191869947
0.521000000000000352,-9.691322328791979857
0.522000000000000242,-9.622480651580771038
0.523000000000000353,-9.554233161425219834
0.524000000000000243,-9.486577475750925359
0.525000000000000355,-9.419511081596004587
0.526000000000000245,-9.353031340579516240
0.527000000000000357,-9.287135493783669205
0.528000000000000247,-9.221820666549742640
0.529000000000000359,-9.157083873187094269
0.530000000000000249,-9.092922021595338578
0.531000000000000361,-9.029331917799277463
0.532000000000000250,-8.966310270396812498
0.533000000000000362,-8.903853694919551032
0.534000000000000252,-8.841958718106486259
0.535000000000000364,-8.780621782090609173
0.536000000000000254,-8.719839248499027917
0.537000000000000366,-8.659607402466386716
0.538000000000000256,-8.599922456562516970
0.539000000000000368,-8.540780554634110899
0.540000000000000258,-8.482177775561424937
0.541000000000000369,-8.424110136929963133
0.542000000000000259,-8.366573598618234797
0.543000000000000371,-8.309564066301685870
0.544000000000000261,-8.253077394873795214
0.545000000000000373,-8.197109391784799470
0.546000000000000263,-8.141655820298899116
0.547000000000000375,-8.086712402670483968
0.548000000000000265,-8.032274823240523887
0.549000000000000377,-7.978338731453467503
0.550000000000000266,-7.924899744795949275
0.551000000000000378,-7.871953451657796919
0.552000000000000268,-7.819495414116516940
0.553000000000000380,-7.767521170645958151
0.554000000000000270,-7.716026238750326449
0.555000000000000382,-7.665006117524177043
0.556000000000000272,-7.614456290139813177
0.557000000000000384,-7.564372226262551457
0.558000000000000274,-7.514749384395441822
0.559000000000000385,-7.465583214153890701
0.560000000000000275,-7.416869158471723900
0.561000000000000387,-7.368602655739370455
0.562000000000000277,-7.320779141875433993
0.563000000000000389,-7.273394052332591286
0.564000000000000279,-7.226442824039027713
0.565000000000000391,-7.179920897276275582
0.566000000000000281,-7.133823717494794714
0.567000000000000393,-7.088146737068082182
0.568000000000000282,-7.042885416986749192
0.569000000000000394,-6.998035228493243665
0.570000000000000284,-6.953591654658707100
0.571000000000000396,-6.909550191902717131
0.572000000000000286,-6.865906351457292445
0.573000000000000398,-6.822655660775919451
0.574000000000000288,-6.779793664889031568
0.575000000000000400,-6.737315927706710283
0.576000000000000290,-6.695218033269919822
0.577000000000000401,-6.653495586951111207
0.578000000000000291,-6.612144216605503111
0.579000000000000403,-6.571159573673853060
0.580000000000000293,-6.530537334237979330
0.581000000000000405,-6.490273200029858636
0.582000000000000295,-6.450362899395562621
0.583000000000000407,-6.410802188214839603
0.584000000000000297,-6.371586850777496203
0.585000000000000409,-6.332712700617507018
0.586000000000000298,-6.294175581305919032
0.587000000000000410,-6.255971367203427391
0.588000000000000300,-6.218095964173740775
0.589000000000000412,-6.180545310258494851
0.590000000000000302,-6.143315376314905762
0.591000000000000414,-6.106402166616910598
0.592000000000000304,-6.069801719420840236
0.593000000000000416,-6.033510107496409702
0.594000000000000306,-5.997523438624149605
0.595000000000000417,-5.961837856059894136
0.596000000000000307,-5.926449538967452746
0.597000000000000419,-5.891354702820151168
0.598000000000000309,-5.856549599772247205
0.599000000000000421,-5.822030519000877646
0.600000000000000311,-5.787793787019603897
0.601000000000000423,-5.753835767964099013
0.602000000000000313,-5.720152863851071245
0.603000000000000425,-5.686741514810876197
0.604000000000000314,-5.653598199295006843
0.605000000000000426,-5.620719434258746539
0.606000000000000316,-5.588101775320206244
0.607000000000000428,-5.555741816896082597
0.608000000000000318,-5.523636192315185767
0.609000000000000430,-5.491781573910155423
0.610000000000000320,-5.460174673088350694
0.611000000000000432,-5.428812240382308474
0.612000000000000322,-5.397691065480704431
0.613000000000000433,-5.366807977240268812
0.614000000000000323,-5.336159843679444847
0.615000000000000435,-5.305743571954318227
0.616000000000000325,-5.275556108317532633
0.617000000000000437,-5.245594438060686038
0.618000000000000327,-5.215855585440933417
0.619000000000000439,-5.186336613592236411
0.620000000000000329,-5.157034624421961588
0.621000000000000441,-5.127946758493278523
0.622000000000000330,-5.099070194893976726
0.623000000000000442,-5.070402151092171295
0.624000000000000332,-5.041939882779486126
0.625000000000000444,-5.013680683702150809
0.626000000000000334,-4.985621885480584936
0.627000000000000446,-4.957760857417857991
0.628000000000000336,-4.930095006297623428
0.629000000000000448,-4.902621776171858237
0.630000000000000338,-4.875338648138987097
0.631000000000000449,-4.848243140112688643
0.632000000000000339,-4.821332806581993147
0.633000000000000451,-4.794605238362873223
0.634000000000000341,-4.768058062341976822
0.635000000000000453,-4.741688941212677477
0.636000000000000343,-4.715495573203988933
0.637000000000000455,-4.689475691802626578
0.638000000000000345,-4.663627065468678445
0.639000000000000457,-4.637947497345073167
0.640000000000000346,-4.612434824961468394
0.641000000000000458,-4.587086919932563234
0.642000000000000348,-4.561901687651483961
0.643000000000000460,-4.536877066978310502
0.644000000000000350,-4.512011029924240191
0.645000000000000462,-4.487301581331550437
0.646000000000000352,-4.462746758549786641
0.647000000000000464,-4.438344631108290805
0.648000000000000353,-4.414093300385597551
0.649000000000000465,-4.389990899275638903
0.650000000000000355,-4.366035591851383124
0.651000000000000467,-4.342225573025805474
0.652000000000000357,-4.318559068210761076
0.653000000000000469,-4.295034332973692415
0.654000000000000359,-4.271649652692709687
0.655000000000000471,-4.248403342209951639
0.656000000000000361,-4.225293745483756247
0.657000000000000473,-4.202319235239538209
0.658000000000000362,-4.179478212619877731
