# GoldBrush_AMAN-AC
# h[nm],U(h)[kJ/mol]
0.200000000000000011,139.009300935595376814
0.201000000000000012,134.821828875029751771
0.202000000000000013,131.420251468439403197
0.203000000000000014,128.488034018724476937
0.204000000000000015,125.827062734157905766
0.205000000000000016,123.318163291841386808
0.206000000000000016,120.893476105359269468
0.207000000000000017,118.517427757208992034
0.208000000000000018,116.173872680828893067
0.209000000000000019,113.857612008551768668
0.210000000000000020,111.568974196115021869
0.211000000000000021,109.310500825499119060
0.212000000000000022,107.085048956318431124
0.213000000000000023,104.894820252417531492
0.214000000000000024,102.740973597197779554
0.215000000000000024,100.623584902876714864
0.216000000000000025,98.541795183967494154
0.217000000000000026,96.494043241810899758
0.218000000000000027,94.478318230180803994
0.219000000000000028,92.492394286147629145
0.220000000000000029,90.534027589834835226
0.221000000000000030,88.601108115318567116
0.222000000000000031,86.691765779725614038
0.223000000000000032,84.804435038627019594
0.224000000000000032,82.937884201856491018
0.225000000000000033,81.091216571424197923
0.226000000000000034,79.263850444838041653
0.227000000000000035,77.455484443802248506
0.228000000000000036,75.666053768896460952
0.229000000000000037,73.895682012606783928
0.230000000000000038,72.144632194021653504
0.231000000000000039,70.413259774548976111
0.232000000000000040,68.701969611618864064
0.233000000000000040,67.011178122828553683
0.234000000000000041,65.341281369345978192
0.235000000000000042,63.692629319171373936
0.236000000000000043,62.065506207673955430
0.237000000000000044,60.460116661778251057
0.238000000000000045,58.876577081491497268
0.239000000000000046,57.314911664601162045
0.240000000000000047,55.775052404629221314
0.241000000000000048,54.256842377107531661
0.242000000000000048,52.760041644928435289
0.243000000000000049,51.284335151408335207
0.244000000000000050,49.829342022683064783
0.245000000000000051,48.394625763326800438
0.246000000000000052,46.979704896063104513
0.247000000000000053,45.584063664526901505
0.248000000000000054,44.207162484563355065
0.249000000000000055,42.848447892572693263
0.250000000000000056,41.507361797604367837
0.251000000000000056,40.183349896444049421
0.252000000000000057,38.875869157396508058
0.253000000000000058,37.584394318722786466
0.254000000000000059,36.308423381848534461
0.255000000000000060,35.047482107802927942
0.256000000000000061,33.801127548264254585
0.257000000000000062,32.568950660550193277
0.258000000000000063,31.350578069404832604
0.259000000000000064,30.145673048028619689
0.260000000000000064,28.953935796988741203
0.261000000000000065,27.775103102942630073
0.262000000000000066,26.608947459973386174
0.263000000000000067,25.455275735216535082
0.264000000000000068,24.313927457746586924
0.265000000000000069,23.184772805744859880
0.266000000000000070,22.067710362105795951
0.267000000000000071,20.962664703124847421
0.268000000000000071,19.869583878987146619
0.269000000000000072,18.788436838637057491
0.270000000000000073,17.719210845420349187
0.271000000000000074,16.661908923788484316
0.272000000000000075,15.616547371442397463
0.273000000000000076,14.583153365657754108
0.274000000000000077,13.561762687233620994
0.275000000000000078,12.552417580587050594
0.276000000000000079,11.555164764006027767
0.277000000000000079,10.570053599983877390
0.278000000000000080,9.597134431900482099
0.279000000000000081,8.636457090076637755
0.280000000000000082,7.688069567403823967
0.281000000000000083,6.752016862318659385
0.282000000000000084,5.828339984834267185
0.283000000000000085,4.917075119631054925
0.284000000000000086,4.018252938821160747
0.285000000000000087,3.131898055911940926
0.286000000000000087,2.258028611668746688
0.287000000000000088,1.396655981995146956
0.288000000000000089,0.547784597579809018
0.289000000000000090,-0.288588135123361400
0.290000000000000091,-1.112471822031890323
0.291000000000000092,-1.923882989019090717
0.292000000000000093,-2.722844919036400135
0.293000000000000094,-3.509387428527299679
0.294000000000000095,-4.283546592468762348
0.295000000000000095,-5.045364426897860355
0.296000000000000096,-5.794888537251736693
0.297000000000000097,-6.532171740288285733
0.298000000000000098,-7.257271666769112173
0.299000000000000099,-7.970250351490335561
0.300000000000000100,-8.671173816645268317
0.301000000000000101,-9.360111653909289231
0.302000000000000102,-10.037136610050115593
0.303000000000000103,-10.702324180301804546
0.304000000000000103,-11.355752213191003364
0.305000000000000104,-11.997500529983506468
0.306000000000000105,-12.627650561423447328
0.307000000000000106,-13.246285003971788541
0.308000000000000107,-13.853487497316322674
0.309000000000000108,-14.449342324521472491
0.310000000000000109,-15.033934135816414468
0.311000000000000110,-15.607347696678356641
0.312000000000000111,-16.169667660563153078
0.313000000000000111,-16.720978366355858213
0.314000000000000112,-17.261363660368527206
0.315000000000000113,-17.790906742493699966
0.316000000000000114,-18.309690035931652119
0.317000000000000115,-18.817795079744517039
0.318000000000000116,-19.315302443350581996
0.319000000000000117,-19.802291661954861013
0.320000000000000118,-20.278841191816212586
0.321000000000000119,-20.745028384175995484
0.322000000000000119,-21.200929476615108626
0.323000000000000120,-21.646619600565180974
0.324000000000000121,-22.082172803674708916
0.325000000000000122,-22.507662085717988987
0.326000000000000123,-22.923159446734906908
0.327000000000000124,-23.328735946100884746
0.328000000000000125,-23.724461771246513564
0.329000000000000126,-24.110406314775250536
0.330000000000000127,-24.486638258763811393
0.331000000000000127,-24.853225665071683181
0.332000000000000128,-25.210236070533660779
0.333000000000000129,-25.557736585960963538
0.334000000000000130,-25.895793997930553587
0.335000000000000131,-26.224474872400850956
0.336000000000000132,-26.543845659249676316
0.337000000000000133,-26.853972796891930841
0.338000000000000134,-27.154922816195330881
0.339000000000000135,-27.446762442972453044
0.340000000000000135,-27.729558698390178506
0.341000000000000136,-28.003378996695630576
0.342000000000000137,-28.268291239718092100
0.343000000000000138,-28.524363907662490192
0.344000000000000139,-28.771666145767483158
0.345000000000000140,-29.010267846453494656
0.346000000000000141,-29.240239726638698414
0.347000000000000142,-29.461653399950421317
0.348000000000000143,-29.674581443606609099
0.349000000000000143,-29.879097459786429170
0.350000000000000144,-30.075276131352360665
0.351000000000000145,-30.263193271824434305
0.352000000000000146,-30.442925869545980788
0.353000000000000147,-30.614552126013840905
0.354000000000000148,-30.778151488378647116
0.355000000000000149,-30.933804676150423063
0.356000000000000150,-31.081593702171893767
0.357000000000000151,-31.221601887946423659
0.358000000000000151,-31.353913873430883541
0.359000000000000152,-31.478615621422779469
0.360000000000000153,-31.595794416690580420
0.361000000000000154,-31.705538860010637592
0.362000000000000155,-31.807938857289638435
0.363000000000000156,-31.903085603962637151
0.364000000000000157,-31.991071564867496591
0.365000000000000158,-32.071990449805682033
0.366000000000000159,-32.145937185005365677
0.367000000000000159,-32.213007880709781716
0.368000000000000160,-32.273299795116592747
0.369000000000000161,-32.326911294898032168
0.370000000000000162,-32.373941812532464724
0.371000000000000163,-32.414491800679122946
0.372000000000000164,-32.448662683826725583
0.373000000000000165,-32.476556807445675190
0.374000000000000166,-32.498277384871386175
0.375000000000000167,-32.513928442141974529
0.376000000000000167,-32.523614761011799601
0.377000000000000168,-32.527441820355811331
0.378000000000000169,-32.525515736175940162
0.379000000000000170,-32.517943200414904936
0.380000000000000171,-32.504831418776724661
0.381000000000000172,-32.486288047746924690
0.382000000000000173,-32.462421130998926344
0.383000000000000174,-32.433339035366188341
0.384000000000000175,-32.399150386552143743
0.385000000000000175,-32.359964004743147825
0.386000000000000176,-32.315888840282056549
0.387000000000000177,-32.267033909552097271
0.388000000000000178,-32.213508231213936028
0.389000000000000179,-32.155420762930312151
0.390000000000000180,-32.092880338705604970
0.391000000000000181,-32.025995606959995143
0.392000000000000182,-31.954874969450280275
0.393000000000000183,-31.879626521141915418
0.394000000000000183,-31.800357991129924784
0.395000000000000184,-31.717176684698653588
0.396000000000000185,-31.630189426603628533
0.397000000000000186,-31.539502505651832109
0.398000000000000187,-31.445221620649903116
0.399000000000000188,-31.347451827783459066
0.400000000000000189,-31.246297489484021526
0.401000000000000190,-31.141862224834547135
0.402000000000000191,-31.034248861557863108
0.403000000000000191,-30.923559389627161664
0.404000000000000192,-30.809894916532289955
0.405000000000000193,-30.693355624229457845
0.406000000000000194,-30.574040727798216466
0.407000000000000195,-30.452048435823705574
0.408000000000000196,-30.327475912517929402
0.409000000000000197,-30.200419241589607111
0.410000000000000198,-30.070973391867756419
0.411000000000000199,-29.939232184680282245
0.412000000000000199,-29.805288262985158099
0.413000000000000200,-29.669233062248299149
0.414000000000000201,-29.531156783058968074
0.415000000000000202,-29.391148365470154857
0.416000000000000203,-29.249295465049023335
0.417000000000000204,-29.105684430619266578
0.418000000000000205,-28.960400283675120647
0.419000000000000206,-28.813526699444203416
0.420000000000000207,-28.665145989574273955
0.421000000000000207,-28.515339086417348824
0.422000000000000208,-28.364185528881915133
0.423000000000000209,-28.211763449823671124
0.424000000000000210,-28.058149564942574727
0.425000000000000211,-27.903419163153152738
0.426000000000000212,-27.747646098393989433
0.427000000000000213,-27.590902782840736052
0.428000000000000214,-27.433260181486751605
0.429000000000000214,-27.274787808053996940
0.430000000000000215,-27.115553722196580111
0.431000000000000216,-26.955624527958889303
0.432000000000000217,-26.795065373449176604
0.433000000000000218,-26.633939951689796999
0.434000000000000219,-26.472310502604688764
0.435000000000000220,-26.310237816104717012
0.436000000000000221,-26.147781236231104174
0.437000000000000222,-25.984998666317615346
0.438000000000000222,-25.821946575131903501
0.439000000000000223,-25.658680003956835236
0.440000000000000224,-25.495252574572592863
0.441000000000000225,-25.331716498100782076
0.442000000000000226,-25.168122584672314446
0.443000000000000227,-25.004520253880599512
0.444000000000000228,-24.840957545982902843
0.445000000000000229,-24.677481133812495528
0.446000000000000230,-24.514136335364987929
0.447000000000000230,-24.350967127023118053
0.448000000000000231,-24.188016157384382154
0.449000000000000232,-24.025324761656698058
0.450000000000000233,-23.862932976588414391
0.451000000000000234,-23.700879555898701767
0.452000000000000235,-23.539201986176255588
0.453000000000000236,-23.377936503213771147
0.454000000000000237,-23.217118108747641259
0.455000000000000238,-23.056780587571829244
0.456000000000000238,-22.896956524996731730
0.457000000000000239,-22.737677324623923880
0.458000000000000240,-22.578973226408919572
0.459000000000000241,-22.420873324984349040
0.460000000000000242,-22.263405588217569431
0.461000000000000243,-22.106596875976499916
0.462000000000000244,-21.950472959079498025
0.463000000000000245,-21.795058538404404658
0.464000000000000246,-21.640377264134365021
0.465000000000000246,-21.486451755117364826
0.466000000000000247,-21.333303618318112171
0.467000000000000248,-21.180953468341318313
0.468000000000000249,-21.029420947006389753
0.469000000000000250,-20.878724742954034355
0.470000000000000251,-20.728882611266470803
0.471000000000000252,-20.579911393083136772
0.472000000000000253,-20.431827035195237130
0.473000000000000254,-20.284644609602349163
0.474000000000000254,-20.138378333015964472
0.475000000000000255,-19.993041586294523881
0.476000000000000256,-19.848646933796239011
0.477000000000000257,-19.705206142635837807
0.478000000000000258,-19.562730201832465582
0.479000000000000259,-19.421229341336520235
0.480000000000000260,-19.280713050923910856
0.481000000000000261,-19.141190098946534448
0.482000000000000262,-19.002668550928920155
0.483000000000000262,-18.865155788001072068
0.484000000000000263,-18.728658525158316195
0.485000000000000264,-18.593182829339671258
0.486000000000000265,-18.458734137316454849
0.487000000000000266,-18.325317273383706862
0.488000000000000267,-18.192936466847275057
0.489000000000000268,-18.061595369300189162
0.490000000000000269,-17.931297071681960631
0.491000000000000270,-17.802044121115578434
0.492000000000000270,-17.673838537516694203
0.493000000000000271,-17.546681829970545152
0.494000000000000272,-17.420575012872266285
0.495000000000000273,-17.295518621826559524
0.496000000000000274,-17.171512729303511691
0.497000000000000275,-17.048556960047228870
0.498000000000000276,-16.926650506234619087
0.499000000000000277,-16.805792142382031784
0.500000000000000222,-16.685980239997483920
0.501000000000000334,-16.567212781977030289
0.502000000000000224,-16.449487376743672229
0.503000000000000336,-16.332801272127625225
0.504000000000000226,-16.217151368987529736
0.505000000000000338,-16.102534234571319161
0.506000000000000227,-15.988946115617419963
0.507000000000000339,-15.876382951195205706
0.508000000000000229,-15.764840385285868507
0.509000000000000341,-15.654313779103205206
0.510000000000000231,-15.544798223155984473
0.511000000000000343,-15.436288549051653263
0.512000000000000233,-15.328779341043414775
0.513000000000000345,-15.222264947321022532
0.514000000000000234,-15.116739491047633592
0.515000000000000346,-15.012196881143230698
0.516000000000000236,-14.908630822817396933
0.517000000000000348,-14.806034827852400326
0.518000000000000238,-14.704402224639371966
0.519000000000000350,-14.603726167969014682
0.520000000000000240,-14.503999648579750215
0.521000000000000352,-14.405215502465186006
0.522000000000000242,-14.307366419943743807
0.523000000000000353,-14.210444954492725600
0.524000000000000243,-14.114443531349802896
0.525000000000000355,-14.019354455884382560
0.526000000000000245,-13.925169921742064361
0.527000000000000357,-13.831882018764625641
0.528000000000000247,-13.739482740689027196
0.529000000000000359,-13.647963992628035612
0.530000000000000249,-13.557317598335879794
0.531000000000000361,-13.467535307261851329
0.532000000000000250,-13.378608801395298400
0.533000000000000362,-13.290529701904839399
0.534000000000000252,-13.203289575575567483
0.535000000000000364,-13.116879941047013602
0.536000000000000254,-13.031292274855676538
0.537000000000000366,-12.946518017284930124
0.538000000000000256,-12.862548578026240520
0.539000000000000368,-12.779375341654434450
0.540000000000000258,-12.696989672921040082
0.541000000000000369,-12.615382921868366850
0.542000000000000259,-12.534546428768477355
0.543000000000000371,-12.454471528889662579
0.544000000000000261,-12.375149557094418995
0.545000000000000373,-12.296571852271842573
0.546000000000000263,-12.218729761608212669
0.547000000000000375,-12.141614644698510261
0.548000000000000265,-12.065217877503021882
0.549000000000000377,-11.989530856151457527
0.550000000000000266,-11.914545000598618429
0.551000000000000378,-11.840251758134325399
0.552000000000000268,-11.766642606751258171
0.553000000000000380,-11.693709058373604748
0.554000000000000270,-11.621442661950062814
0.555000000000000382,-11.549835006413866623
0.556000000000000272,-11.478877723513608800
0.557000000000000384,-11.408562490517260457
0.558000000000000274,-11.338881032793153736
0.559000000000000385,-11.269825126270268001
0.560000000000000275,-11.201386599781518072
0.561000000000000387,-11.133557337292383949
0.562000000000000277,-11.066329280018221581
0.563000000000000389,-10.999694428432970739
0.564000000000000279,-10.933644844172185628
0.565000000000000391,-10.868172651833068798
0.566000000000000281,-10.803270040674492591
0.567000000000000393,-10.738929266219441772
0.568000000000000282,-10.675142651762993040
0.569000000000000394,-10.611902589787927553
0.570000000000000284,-10.549201543291136574
0.571000000000000396,-10.487032047022941228
0.572000000000000286,-10.425386708642214728
0.573000000000000398,-10.364258209789378284
0.574000000000000288,-10.303639307080155518
0.575000000000000400,-10.243522833022108642
0.576000000000000290,-10.183901696856544561
0.577000000000000401,-10.124768885327922519
0.578000000000000291,-10.066117463383221775
0.579000000000000403,-10.007940574803246392
0.580000000000000293,-9.950231442768359358
0.581000000000000405,-9.892983370360392215
0.582000000000000295,-9.836189741003275699
0.583000000000000407,-9.779844018843981246
0.584000000000000297,-9.723939749076190964
0.585000000000000409,-9.668470558208317911
0.586000000000000298,-9.613430154278162831
0.587000000000000410,-9.558812327015662191
0.588000000000000300,-9.504610947956056322
0.589000000000000412,-9.450819970504804601
0.590000000000000302,-9.397433429956395301
0.591000000000000414,-9.344445443468558210
0.592000000000000304,-9.291850209993658183
0.593000000000000416,-9.239642010168804376
0.594000000000000306,-9.187815206166495940
0.595000000000000417,-9.136364241507100914
0.596000000000000307,-9.085283640834953545
0.597000000000000419,-9.034568009659354360
0.598000000000000309,-8.984212034062135643
0.599000000000000421,-8.934210480372980712
0.600000000000000311,-8.884558194814145438
0.601000000000000423,-8.835250103115660281
0.602000000000000313,-8.786281210102618644
0.603000000000000425,-8.737646599255487700
0.604000000000000314,-8.689341432245132779
0.605000000000000426,-8.641360948443260526
0.606000000000000316,-8.593700464409961270
0.607000000000000428,-8.546355373359066476
0.608000000000000318,-8.499321144602834721
0.609000000000000430,-8.452593322976664325
0.610000000000000320,-8.406167528245280351
0.611000000000000432,-8.360039454491063893
0.612000000000000322,-8.314204869485831040
0.613000000000000433,-8.268659614046788064
0.614000000000000323,-8.223399601377758827
0.615000000000000435,-8.178420816396542392
0.616000000000000325,-8.133719315049305010
0.617000000000000437,-8.089291223612780968
0.618000000000000327,-8.045132737985337457
0.619000000000000439,-8.001240122967375967
0.620000000000000329,-7.957609711532194652
0.621000000000000441,-7.914237904087841002
0.622000000000000330,-7.871121167730791512
0.623000000000000442,-7.828256035492101361
0.624000000000000332,-7.785639105576811048
0.625000000000000444,-7.743267040597158868
0.626000000000000334,-7.701136566800340866
0.627000000000000446,-7.659244473291343169
0.628000000000000336,-7.617587611251582125
0.629000000000000448,-7.576162893153727040
0.630000000000000338,-7.534967291973536874
0.631000000000000449,-7.493997840398945343
0.632000000000000339,-7.453251630037174280
0.633000000000000451,-7.412725810620218958
0.634000000000000341,-7.372417589209258715
0.635000000000000453,-7.332324229398416549
0.636000000000000343,-7.292443050518360614
0.637000000000000455,-7.252771426840096680
0.638000000000000345,-7.213306786779535074
0.639000000000000457,-7.174046612102917386
0.640000000000000346,-7.134988437133928940
0.641000000000000458,-7.096129847962356685
0.642000000000000348,-7.057468481655130077
0.643000000000000460,-7.019002025469651684
0.644000000000000350,-6.980728216070106740
0.645000000000000462,-6.942644838746742764
0.646000000000000352,-6.904749726638709895
0.647000000000000464,-6.867040759960396201
0.648000000000000353,-6.829515865231989835
0.649000000000000465,-6.792173014513968710
0.650000000000000355,-6.755010224646300188
0.651000000000000467,-6.718025556492134953
0.652000000000000357,-6.681217114186587480
0.653000000000000469,-6.644583044390458326
0.654000000000000359,-6.608121535549472014
0.655000000000000471,-6.571830817158824445
0.656000000000000361,-6.535709159033603832
