# GoldBrush_CS-5993-AC
# h[nm],U(h)[kJ/mol]
0.149999999999999994,33.991957824944307731
0.150999999999999995,30.464547365279905478
0.151999999999999996,27.596566988314897628
0.152999999999999997,25.034971048500107571
0.153999999999999998,22.629497728603915618
0.154999999999999999,20.327985935996583322
0.156000000000000000,18.119987403049581332
0.157000000000000001,16.008496528543936677
0.158000000000000002,13.997374345338451818
0.159000000000000002,12.087015641766052809
0.160000000000000003,10.273942954150751206
0.161000000000000004,8.551945305413294562
0.162000000000000005,6.913540453062283930
0.163000000000000006,5.351210710655934122
0.164000000000000007,3.858230355024077962
0.165000000000000008,2.429087834866568762
0.166000000000000009,1.059585263272608602
0.167000000000000010,-0.253281102679033421
0.168000000000000010,-1.511563474556551157
0.169000000000000011,-2.716652147162424757
0.170000000000000012,-3.869558545813823081
0.171000000000000013,-4.971158642427025320
0.172000000000000014,-6.022380205576118861
0.173000000000000015,-7.024329478550223271
0.174000000000000016,-7.978360972468772516
0.175000000000000017,-8.886098823233039568
0.176000000000000018,-9.749420380440744438
0.177000000000000018,-10.570413111726871591
0.178000000000000019,-11.351315143519167705
0.179000000000000020,-12.094448314187541627
0.180000000000000021,-12.802150856983038452
0.181000000000000022,-13.476715016633013633
0.182000000000000023,-14.120333203414094925
0.183000000000000024,-14.735054800476827808
0.184000000000000025,-15.322754511040987069
0.185000000000000026,-15.885112172543850662
0.186000000000000026,-16.423603261853855884
0.187000000000000027,-16.939498841951252217
0.188000000000000028,-17.433873421493352396
0.189000000000000029,-17.907619077615148484
0.190000000000000030,-18.361464193394489541
0.191000000000000031,-18.795995251944646043
0.192000000000000032,-19.211680280592148051
0.193000000000000033,-19.608892727204821682
0.194000000000000034,-19.987934757240452655
0.195000000000000034,-20.349059169625942189
0.196000000000000035,-20.692489331161773691
0.197000000000000036,-21.018436715132782666
0.198000000000000037,-21.327115795323635439
0.199000000000000038,-21.618756189055979178
0.200000000000000039,-21.893612061289143611
0.201000000000000040,-22.151968896673576381
0.202000000000000041,-22.394147819052996340
0.203000000000000042,-22.620507690240302168
0.204000000000000042,-22.831445254270029466
0.205000000000000043,-23.027393612257039734
0.206000000000000044,-23.208819318988449965
0.207000000000000045,-23.376218387878250127
0.208000000000000046,-23.530111478192839769
0.209000000000000047,-23.671038519573048831
0.210000000000000048,-23.799553005655663895
0.211000000000000049,-23.916216162610162144
0.212000000000000050,-24.021591170983523256
0.213000000000000050,-24.116237591479460889
0.214000000000000051,-24.200706118064214678
0.215000000000000052,-24.275533755766229405
0.216000000000000053,-24.341239496222392802
0.217000000000000054,-24.398320541770843306
0.218000000000000055,-24.447249108918267524
0.219000000000000056,-24.488469824431771116
0.220000000000000057,-24.522397712147071758
0.221000000000000058,-24.549416755798713297
0.222000000000000058,-24.569879012669090912
0.223000000000000059,-24.584104244479142665
0.224000000000000060,-24.592380025540993671
0.225000000000000061,-24.594962283577249451
0.226000000000000062,-24.592076225589938332
0.227000000000000063,-24.583917599539109489
0.228000000000000064,-24.570654242175415050
0.229000000000000065,-24.552427863976500788
0.230000000000000066,-24.529356023589404145
0.231000000000000066,-24.501534246318250609
0.232000000000000067,-24.469038243869015048
0.233000000000000068,-24.431926195637025501
0.234000000000000069,-24.390241055179231466
0.235000000000000070,-24.344012849046492875
0.236000000000000071,-24.293260938770892210
0.237000000000000072,-24.237996220432972194
0.238000000000000073,-24.178223239807387301
0.239000000000000073,-24.113942204551854331
0.240000000000000074,-24.045150878219487822
0.241000000000000075,-23.971846344006998208
0.242000000000000076,-23.894026629075231227
0.243000000000000077,-23.811692182978266175
0.244000000000000078,-23.724847206202543504
0.245000000000000079,-23.633500827041231673
0.246000000000000080,-23.537668127014597985
0.247000000000000081,-23.437371016794980250
0.248000000000000081,-23.332638966113652401
0.249000000000000082,-23.223509592425557457
0.250000000000000111,-23.110029114197917721
0.251000000000000112,-22.992252675581923427
0.252000000000000113,-22.870244549939307888
0.253000000000000114,-22.744078230238503835
0.254000000000000115,-22.613836414726524282
0.255000000000000115,-22.479610896534744313
0.256000000000000116,-22.341502366005133950
0.257000000000000117,-22.199620134542705330
0.258000000000000118,-22.054081788721624946
0.259000000000000119,-21.905012783212463034
0.260000000000000120,-21.752545980865722441
0.261000000000000121,-21.596821147995278523
0.262000000000000122,-21.437984412564951242
0.263000000000000123,-21.276187692601151724
0.264000000000000123,-21.111588101744189316
0.265000000000000124,-20.944347338417664162
0.266000000000000125,-20.774631064647554268
0.267000000000000126,-20.602608280105044969
0.268000000000000127,-20.428450696487576721
0.269000000000000128,-20.252332116894027791
0.270000000000000129,-20.074427824397965026
0.271000000000000130,-19.894913983580597261
0.272000000000000131,-19.713967058355766682
0.273000000000000131,-19.531763249005386740
0.274000000000000132,-19.348477950947287951
0.275000000000000133,-19.164285237380543236
0.276000000000000134,-18.979357367596055184
0.277000000000000135,-18.793864322405301692
0.278000000000000136,-18.607973367825739075
0.279000000000000137,-18.421848647870085358
0.280000000000000138,-18.235650807017314889
0.281000000000000139,-18.049536642695109379
0.282000000000000139,-17.863658787877991330
0.283000000000000140,-17.678165423700086478
0.284000000000000141,-17.493200021797044030
0.285000000000000142,-17.308901115926722980
0.286000000000000143,-17.125402102272182958
0.287000000000000144,-16.942831067702517345
0.288000000000000145,-16.761310645155827359
0.289000000000000146,-16.580957895213806808
0.290000000000000147,-16.401884212857101630
0.291000000000000147,-16.224195258325018187
0.292000000000000148,-16.047990910949916810
0.293000000000000149,-15.873365244796053375
0.294000000000000150,-15.700406524902666305
0.295000000000000151,-15.529197222911884424
0.296000000000000152,-15.359814050851230860
0.297000000000000153,-15.192328011839066448
0.298000000000000154,-15.026804466486519019
0.299000000000000155,-14.863303213781943413
0.300000000000000155,-14.701878585262212695
0.301000000000000156,-14.542579551298624452
0.302000000000000157,-14.385449838353286722
0.303000000000000158,-14.230528056094033929
0.304000000000000159,-14.077847833291011526
0.305000000000000160,-13.927437961456536897
0.306000000000000161,-13.779322545230092700
0.307000000000000162,-13.633521158552657226
0.308000000000000163,-13.490049005718166342
0.309000000000000163,-13.348917086434699542
0.310000000000000164,-13.210132364073075451
0.311000000000000165,-13.073697936326251323
0.312000000000000166,-12.939613207548569918
0.313000000000000167,-12.807874062089226186
0.314000000000000168,-12.678473037979259175
0.315000000000000169,-12.551399500375675089
0.316000000000000170,-12.426639814209714530
0.317000000000000171,-12.304177515528655462
0.318000000000000171,-12.183993481061852648
0.319000000000000172,-12.066066095581749806
0.320000000000000173,-11.950371416669360869
0.321000000000000174,-11.836883336530870992
0.322000000000000175,-11.725573740548011159
0.323000000000000176,-11.616412662279024914
0.324000000000000177,-11.509368434659903002
0.325000000000000178,-11.404407837186687047
0.326000000000000179,-11.301496238889310320
0.327000000000000179,-11.200597736935458570
0.328000000000000180,-11.101675290729373202
0.329000000000000181,-11.004690851395634965
0.330000000000000182,-10.909605486560902676
0.331000000000000183,-10.816379500369118105
0.332000000000000184,-10.724972548685441254
0.333000000000000185,-10.635343749463746832
0.334000000000000186,-10.547451788269667006
0.335000000000000187,-10.461255018967730024
0.336000000000000187,-10.376711559595921841
0.337000000000000188,-10.293779383464832122
0.338000000000000189,-10.212416405530950314
0.339000000000000190,-10.132580564105150955
0.340000000000000191,-10.054229897967472240
0.341000000000000192,-9.977322618968923251
0.342000000000000193,-9.901817180208684732
0.343000000000000194,-9.827672339882914443
0.344000000000000195,-9.754847220907457483
0.345000000000000195,-9.683301366422305989
0.346000000000000196,-9.612994791290626395
0.347000000000000197,-9.543888029708927689
0.348000000000000198,-9.475942179048475467
0.349000000000000199,-9.409118940050548829
0.350000000000000200,-9.343380653500393151
0.351000000000000201,-9.278690333506043331
0.352000000000000202,-9.215011697509241984
0.353000000000000203,-9.152309193156238365
0.354000000000000203,-9.090548022156173857
0.355000000000000204,-9.029694161254449014
0.356000000000000205,-8.969714380447873836
0.357000000000000206,-8.910576258567072472
0.358000000000000207,-8.852248196350425147
0.359000000000000208,-8.794699427132169234
0.360000000000000209,-8.737900025265265214
0.361000000000000210,-8.681820912397597567
0.362000000000000210,-8.626433861717700324
0.363000000000000211,-8.571711500283743845
0.364000000000000212,-8.517627309546842440
0.365000000000000213,-8.464155624176914472
0.366000000000000214,-8.411271629296555474
0.367000000000000215,-8.358951356225221119
0.368000000000000216,-8.307171676833181806
0.369000000000000217,-8.255910296601362219
0.370000000000000218,-8.205145746480168256
0.371000000000000218,-8.154857373637186768
0.372000000000000219,-8.105025331180318204
0.373000000000000220,-8.055630566939893100
0.374000000000000221,-8.006654811389861237
0.375000000000000222,-7.958080564785163347
0.376000000000000223,-7.909891083589032590
0.377000000000000224,-7.862070366260932808
0.378000000000000225,-7.814603138472739019
0.379000000000000226,-7.767474837817539779
0.380000000000000226,-7.720671598072657460
0.381000000000000227,-7.674180233075293067
0.382000000000000228,-7.627988220266443520
0.383000000000000229,-7.582083683955843867
0.384000000000000230,-7.536455378357807433
0.385000000000000231,-7.491092670445418378
0.386000000000000232,-7.445985522667504242
0.387000000000000233,-7.401124475570545869
0.388000000000000234,-7.356500630365073512
0.389000000000000234,-7.312105631473738931
0.390000000000000235,-7.267931649095780600
0.391000000000000236,-7.223971361820581194
0.392000000000000237,-7.180217939320567844
0.393000000000000238,-7.136665025151843977
0.394000000000000239,-7.093306719688702522
0.395000000000000240,-7.050137563216411607
0.396000000000000241,-7.007152519204661978
0.397000000000000242,-6.964346957782320047
0.398000000000000242,-6.921716639432448304
0.399000000000000243,-6.879257698924819309
0.400000000000000244,-6.836966629501634252
0.401000000000000245,-6.794840267330711114
0.402000000000000246,-6.752875776238856709
0.403000000000000247,-6.711070632736808150
0.404000000000000248,-6.669422611345941831
0.405000000000000249,-6.627929770235593487
0.406000000000000250,-6.586590437178644564
0.407000000000000250,-6.545403195832113497
0.408000000000000251,-6.504366872348187556
0.409000000000000252,-6.463480522320374178
0.410000000000000253,-6.422743418068321830
0.411000000000000254,-6.382155036264185455
0.412000000000000255,-6.341715045902377668
0.413000000000000256,-6.301423296613972269
0.414000000000000257,-6.261279807326109115
0.415000000000000258,-6.221284755266241362
0.416000000000000258,-6.181438465310373331
0.417000000000000259,-6.141741399673724899
0.418000000000000260,-6.102194147941991886
0.419000000000000261,-6.062797417440534353
0.420000000000000262,-6.023552023938629318
0.421000000000000263,-5.984458882685359526
0.422000000000000264,-5.945518999773288016
0.423000000000000265,-5.906733463825815988
0.424000000000000266,-5.868103438003704042
0.425000000000000266,-5.829630152325963266
0.426000000000000267,-5.791314896300026049
0.427000000000000268,-5.753159011855949245
0.428000000000000269,-5.715163886579053276
0.429000000000000270,-5.677330947235306624
0.430000000000000271,-5.639661653583583067
0.431000000000000272,-5.602157492468704092
0.432000000000000273,-5.564819972189168240
0.433000000000000274,-5.527650617133231137
0.434000000000000274,-5.490650962677029234
0.435000000000000275,-5.453822550338284003
0.436000000000000276,-5.417166923179143723
0.437000000000000277,-5.380685621451592127
0.438000000000000278,-5.344380178478909116
0.439000000000000279,-5.308252116766662532
0.440000000000000280,-5.272302944336595409
0.441000000000000281,-5.236534151276953430
0.442000000000000282,-5.200947206502695153
0.443000000000000282,-5.165543554719131514
0.444000000000000283,-5.130324613582539328
0.445000000000000284,-5.095291771051395635
0.446000000000000285,-5.060446382921889530
0.447000000000000286,-5.025789770541509327
0.448000000000000287,-4.991323218694458497
0.449000000000000288,-4.957047973652893624
0.450000000000000289,-4.922965241387921687
0.451000000000000290,-4.889076185934460916
0.452000000000000290,-4.855381927904165451
0.453000000000000291,-4.821883543140678796
0.454000000000000292,-4.788582061511633015
0.455000000000000293,-4.755478465831845192
0.456000000000000294,-4.722573690912389210
0.457000000000000295,-4.689868622730177350
0.458000000000000296,-4.657364097712966000
0.459000000000000297,-4.625060902134705110
0.460000000000000298,-4.592959771616266451
0.461000000000000298,-4.561061390726783848
0.462000000000000299,-4.529366392680926445
0.463000000000000300,-4.497875359127439410
0.464000000000000301,-4.466588820024613327
0.465000000000000302,-4.435507253598252930
0.466000000000000303,-4.404631086378010707
0.467000000000000304,-4.373960693307899383
0.468000000000000305,-4.343496397927093078
0.469000000000000306,-4.313238472617095809
0.470000000000000306,-4.283187138911592307
0.471000000000000307,-4.253342567865255219
0.472000000000000308,-4.223704880478143409
0.473000000000000309,-4.194274148172161709
0.474000000000000310,-4.165050393316341193
0.475000000000000311,-4.136033589797785126
0.476000000000000312,-4.107223663635213740
0.477000000000000313,-4.078620493632082677
0.478000000000000314,-4.050223912066498677
0.479000000000000314,-4.022033705415148042
0.480000000000000315,-3.994049615108571150
0.481000000000000316,-3.966271338315267680
0.482000000000000317,-3.938698528752150985
0.483000000000000318,-3.911330797519010360
0.484000000000000319,-3.884167713954692402
0.485000000000000320,-3.857208806512894661
0.486000000000000321,-3.830453563655395577
0.487000000000000322,-3.803901434760801781
0.488000000000000322,-3.777551831046855657
0.489000000000000323,-3.751404126504509939
0.490000000000000324,-3.725457658841999198
0.491000000000000325,-3.699711730437260648
0.492000000000000326,-3.674165609297074475
0.493000000000000327,-3.648818530021473716
0.494000000000000328,-3.623669694771907590
0.495000000000000329,-3.598718274241849535
0.496000000000000330,-3.573963408628492378
0.497000000000000330,-3.549404208604328037
0.498000000000000331,-3.525039756287425607
0.499000000000000332,-3.500869106209294923
0.500000000000000333,-3.476891286279284010
0.501000000000000334,-3.453105298744527207
0.502000000000000335,-3.429510121144490054
0.503000000000000336,-3.406104707259257403
0.504000000000000337,-3.382887988050699679
0.505000000000000338,-3.359858872595780532
0.506000000000000338,-3.337016249011240721
0.507000000000000339,-3.314358985368996535
0.508000000000000340,-3.291885930601627486
0.509000000000000341,-3.269595915397332853
0.510000000000000342,-3.247487753083841966
0.511000000000000343,-3.225560240500744413
0.512000000000000344,-3.203812158859785875
0.513000000000000345,-3.182242274592694820
0.514000000000000346,-3.160849340186149270
0.515000000000000346,-3.139632095003528356
0.516000000000000347,-3.118589266093089840
0.517000000000000348,-3.097719568982355121
0.518000000000000349,-3.077021708458332228
0.519000000000000350,-3.056494379333442257
0.520000000000000351,-3.036136267196891225
0.521000000000000352,-3.015946049151305708
0.522000000000000353,-2.995922394534511035
0.523000000000000353,-2.976063965626277952
0.524000000000000354,-2.956369418339994670
0.525000000000000355,-2.936837402899100002
0.526000000000000356,-2.917466564498297110
0.527000000000000357,-2.898255543949439517
0.528000000000000358,-2.879202978312115579
0.529000000000000359,-2.860307501508878136
0.530000000000000360,-2.841567744925186823
0.531000000000000361,-2.822982337994040414
0.532000000000000361,-2.804549908765372912
0.533000000000000362,-2.786269084460251566
0.534000000000000363,-2.768138492009984741
0.535000000000000364,-2.750156758580166283
0.536000000000000365,-2.732322512079807364
0.537000000000000366,-2.714634381655639306
0.538000000000000367,-2.697090998171695286
0.539000000000000368,-2.679690994674339688
0.540000000000000369,-2.662433006842822802
0.541000000000000369,-2.645315673425571834
0.542000000000000370,-2.628337636662323895
0.543000000000000371,-2.611497542692294616
0.544000000000000372,-2.594794041948526253
0.545000000000000373,-2.578225789538617363
0.546000000000000374,-2.561791445611993012
0.547000000000000375,-2.545489675713906941
0.548000000000000376,-2.529319151126391052
0.549000000000000377,-2.513278549196312106
0.550000000000000377,-2.497366553650758103
0.551000000000000378,-2.481581854899944428
0.552000000000000379,-2.465923150327884450
0.553000000000000380,-2.450389144570966682
0.554000000000000381,-2.434978549784706292
0.555000000000000382,-2.419690085898889897
0.556000000000000383,-2.404522480861261524
0.557000000000000384,-2.389474470870055711
0.558000000000000385,-2.374544800595530525
0.559000000000000385,-2.359732223390752726
0.560000000000000386,-2.345035501491842034
0.561000000000000387,-2.330453406207898315
0.562000000000000388,-2.315984718100844830
0.563000000000000389,-2.301628227155371409
0.564000000000000390,-2.287382732939238217
0.565000000000000391,-2.273247044754145740
0.566000000000000392,-2.259219981777369490
0.567000000000000393,-2.245300373194413446
0.568000000000000393,-2.231487058322861650
0.569000000000000394,-2.217778886727667764
0.570000000000000395,-2.204174718328094862
0.571000000000000396,-2.190673423496495964
0.572000000000000397,-2.177273883149173805
0.573000000000000398,-2.163974988829514334
0.574000000000000399,-2.150775642783590236
0.575000000000000400,-2.137674758028464517
0.576000000000000401,-2.124671258413371788
0.577000000000000401,-2.111764078673989964
0.578000000000000402,-2.098952164479999993
0.579000000000000403,-2.086234472476117485
0.580000000000000404,-2.073609970316806717
0.581000000000000405,-2.061077636694855553
0.582000000000000406,-2.048636461363992467
0.583000000000000407,-2.036285445155741947
0.584000000000000408,-2.024023599990705691
0.585000000000000409,-2.011849948884427253
0.586000000000000409,-1.999763525948028642
0.587000000000000410,-1.987763376383802294
0.588000000000000411,-1.975848556475912066
0.589000000000000412,-1.964018133576372449
0.590000000000000413,-1.952271186086488086
0.591000000000000414,-1.940606803433892136
0.592000000000000415,-1.929024086045360464
0.593000000000000416,-1.917522145315538662
0.594000000000000417,-1.906100103571760629
0.595000000000000417,-1.894757094035093292
0.596000000000000418,-1.883492260777724692
0.597000000000000419,-1.872304758676923253
0.598000000000000420,-1.861193753365603332
0.599000000000000421,-1.850158421179716850
0.600000000000000422,-1.839197949102568952
0.601000000000000423,-1.828311534706191566
0.602000000000000424,-1.817498386089917206
0.603000000000000425,-1.806757721816263595
0.604000000000000425,-1.796088770844266325
0.605000000000000426,-1.785490772460369469
0.606000000000000427,-1.774962976207000720
0.607000000000000428,-1.764504641808936070
0.608000000000000429,-1.754115039097567275
0.609000000000000430,-1.743793447933202456
