# GoldBrush_CS-110510-AC
# h[nm],U(h)[kJ/mol]
0.200000000000000011,80.340446604586503554
0.201000000000000012,76.925940256342400403
0.202000000000000013,74.253835128049672676
0.203000000000000014,71.967139973331470060
0.204000000000000015,69.853451945235249809
0.205000000000000016,67.795738875265030288
0.206000000000000016,65.737745511815703026
0.207000000000000017,63.660113321504489647
0.208000000000000018,61.564267185777268310
0.209000000000000019,59.461863004586099635
0.210000000000000020,57.368157049453031959
0.211000000000000021,55.298089625582122153
0.212000000000000022,53.264202644032408784
0.213000000000000023,51.275756935542801784
0.214000000000000024,49.338599225621436517
0.215000000000000024,47.455465201060761160
0.216000000000000025,45.626505362308364511
0.217000000000000026,43.849893161474568615
0.218000000000000027,42.122427062653862606
0.219000000000000028,40.440074856320372021
0.220000000000000029,38.798433817856221140
0.221000000000000030,37.193097175285899425
0.222000000000000031,35.619928157671111535
0.223000000000000032,34.075249376350321029
0.224000000000000032,32.555958748679302062
0.225000000000000033,31.059584572502551225
0.226000000000000034,29.584292405562894857
0.227000000000000035,28.128855607899161839
0.228000000000000036,26.692600129792644736
0.229000000000000037,25.275332625379000717
0.230000000000000038,23.877259413173252511
0.231000000000000039,22.498902300020517941
0.232000000000000040,21.141015901600333393
0.233000000000000040,19.804509867003041279
0.234000000000000041,18.490378362111215438
0.235000000000000042,17.199638287218014909
0.236000000000000043,15.933276989892059206
0.237000000000000044,14.692209670409548394
0.238000000000000045,13.477246247059827766
0.239000000000000046,12.289067134178091933
0.240000000000000047,11.128207168908776481
0.241000000000000048,9.995046786485122681
0.242000000000000048,8.889809472677635327
0.243000000000000049,7.812564502169202285
0.244000000000000050,6.763233990890853420
0.245000000000000051,5.741603338468193485
0.246000000000000052,4.747334205242236926
0.247000000000000053,3.779979249697456911
0.248000000000000054,2.838997940803506204
0.249000000000000055,1.923772851200532319
0.250000000000000056,1.033625927820821522
0.251000000000000056,0.167834323820293813
0.252000000000000057,-0.674354542289143710
0.253000000000000058,-1.493708958925526575
0.254000000000000059,-2.291000115571918627
0.255000000000000060,-3.066990648674775777
0.256000000000000061,-3.822424616442896106
0.257000000000000062,-4.558018934476090855
0.258000000000000063,-5.274456266171839047
0.259000000000000064,-5.972379330640674056
0.260000000000000064,-6.652386565864413015
0.261000000000000065,-7.315029065465298075
0.262000000000000066,-7.960808693114152845
0.263000000000000067,-8.590177268681156164
0.264000000000000068,-9.203536714137754871
0.265000000000000069,-9.801240044390798545
0.266000000000000070,-10.383593088143312499
0.267000000000000071,-10.950856826050248571
0.268000000000000071,-11.503250237428678915
0.269000000000000072,-12.040953552198617516
0.270000000000000073,-12.564111811220943338
0.271000000000000074,-13.072838645457078854
0.272000000000000075,-13.567220192136471013
0.273000000000000076,-14.047319074153785223
0.274000000000000077,-14.513178377040613753
0.275000000000000078,-14.964825565904778415
0.276000000000000079,-15.402276292577701255
0.277000000000000079,-15.825538050754749619
0.278000000000000080,-16.234613644073121463
0.279000000000000081,-16.629504438792849896
0.280000000000000082,-17.010213378983799259
0.281000000000000083,-17.376747747852370196
0.282000000000000084,-17.729121664051518792
0.283000000000000085,-18.067358306505759913
0.284000000000000086,-18.391491865455446231
0.285000000000000087,-18.701569221094782591
0.286000000000000087,-18.997651354366915655
0.287000000000000088,-19.279814497209713409
0.288000000000000089,-19.548151031844181347
0.289000000000000090,-19.802770150594660947
0.290000000000000091,-20.043798289253807354
0.291000000000000092,-20.271379348190475156
0.292000000000000093,-20.485674716272466611
0.293000000000000094,-20.686863113272572434
0.294000000000000095,-20.875140266772834963
0.295000000000000095,-21.050718439709854124
0.296000000000000096,-21.213825824637943640
0.297000000000000097,-21.364705820555204951
0.298000000000000098,-21.503616207763116108
0.299000000000000099,-21.630828235736572651
0.300000000000000100,-21.746625638387875767
0.301000000000000101,-21.851303590435996682
0.302000000000000102,-21.945167617856700559
0.303000000000000103,-22.028532474607963820
0.304000000000000103,-22.101720997009564940
0.305000000000000104,-22.165062946321246073
0.306000000000000105,-22.218893849219796266
0.307000000000000106,-22.263553845031061940
0.308000000000000107,-22.299386547738080822
0.309000000000000108,-22.326737929967023888
0.310000000000000109,-22.345955235355244639
0.311000000000000110,-22.357385924934494170
0.312000000000000111,-22.361376662423033679
0.313000000000000111,-22.358272342614053940
0.314000000000000112,-22.348415166378693186
0.315000000000000113,-22.332143765170780370
0.316000000000000114,-22.309792377329273450
0.317000000000000115,-22.281690077922764459
0.318000000000000116,-22.248160063369539330
0.319000000000000117,-22.209518991596244319
0.320000000000000118,-22.166076378066684072
0.321000000000000119,-22.118134047620568339
0.322000000000000119,-22.065985641706966192
0.323000000000000120,-22.009916180279482489
0.324000000000000121,-21.950201677337044970
0.325000000000000122,-21.887108808844683239
0.326000000000000123,-21.820894631550622478
0.327000000000000124,-21.751806351028466935
0.328000000000000125,-21.680081137113983658
0.329000000000000126,-21.605945984772642277
0.330000000000000127,-21.529617618325996631
0.331000000000000127,-21.451302436879871038
0.332000000000000128,-21.371196498732839331
0.333000000000000129,-21.289485542498944426
0.334000000000000130,-21.206345042651477684
0.335000000000000131,-21.121940297184252699
0.336000000000000132,-21.036426545090023410
0.337000000000000133,-20.949949111373165067
0.338000000000000134,-20.862643577342176116
0.339000000000000135,-20.774635973966390168
0.340000000000000135,-20.686042996129895499
0.341000000000000136,-20.596972235671028528
0.342000000000000137,-20.507522431159276977
0.343000000000000138,-20.417783732429434451
0.344000000000000139,-20.327837977966577654
0.345000000000000140,-20.237758983312595262
0.346000000000000141,-20.147612838745171615
0.347000000000000142,-20.057458214562792875
0.348000000000000143,-19.967346672393880169
0.349000000000000143,-19.877322981032797600
0.350000000000000144,-19.787425435391764239
0.351000000000000145,-19.697686177242637484
0.352000000000000146,-19.608131516508166214
0.353000000000000147,-19.518782251945712147
0.354000000000000148,-19.429653990149695630
0.355000000000000149,-19.340757461879718448
0.356000000000000150,-19.252098834800683846
0.357000000000000151,-19.163680021798231934
0.358000000000000151,-19.075498984107426281
0.359000000000000152,-18.987550028564765370
0.360000000000000153,-18.899824098363271929
0.361000000000000154,-18.812309056757012371
0.362000000000000155,-18.724989963225347367
0.363000000000000156,-18.637849341668420777
0.364000000000000157,-18.550867440263086650
0.365000000000000158,-18.464022482664287139
0.366000000000000159,-18.377290910288358816
0.367000000000000159,-18.290647615464528997
0.368000000000000160,-18.204066165287134282
0.369000000000000161,-18.117519016044418834
0.370000000000000162,-18.030977718140519528
0.371000000000000163,-17.944413111465486566
0.372000000000000164,-17.857795511202795069
0.373000000000000165,-17.771094884097156097
0.374000000000000166,-17.684281015235004730
0.375000000000000167,-17.597323665417938798
0.376000000000000167,-17.510192719234691339
0.377000000000000168,-17.422858323960117133
0.378000000000000169,-17.335291019430645321
0.379000000000000170,-17.247461859064522116
0.380000000000000171,-17.159342522211691318
0.381000000000000172,-17.070905418033373024
0.382000000000000173,-16.982123781124318640
0.383000000000000174,-16.892971759102326956
0.384000000000000175,-16.803424492399251733
0.385000000000000175,-16.713458186496204405
0.386000000000000176,-16.623050176852494531
0.387000000000000177,-16.532178986783307550
0.388000000000000178,-16.440824378545745077
0.389000000000000179,-16.348967397895641795
0.390000000000000180,-16.256590412379850363
0.391000000000000181,-16.163677143629893607
0.392000000000000182,-16.070212693922702130
0.393000000000000183,-15.976183567273665176
0.394000000000000183,-15.881577685325833471
0.395000000000000184,-15.786384398296593901
0.396000000000000185,-15.690594491240563713
0.397000000000000186,-15.594200185883909882
0.398000000000000187,-15.497195138281195881
0.399000000000000188,-15.399574432541594859
0.400000000000000189,-15.301334570866282903
0.401000000000000190,-15.202473460133475669
0.402000000000000191,-15.102990395262324341
0.403000000000000191,-15.002886039580412003
0.404000000000000192,-14.902162402414083076
0.405000000000000193,-14.800822814113971049
0.406000000000000194,-14.698871898721872498
0.407000000000000195,-14.596315544478434489
0.408000000000000196,-14.493160872364148517
0.409000000000000197,-14.389416202859502292
0.410000000000000198,-14.285091021103289322
0.411000000000000199,-14.180195940620881956
0.412000000000000199,-14.074742665787578488
0.413000000000000200,-13.968743953185276396
0.414000000000000201,-13.862213572003607709
0.415000000000000202,-13.755166263630030699
0.416000000000000203,-13.647617700566746279
0.417000000000000204,-13.539584444805285557
0.418000000000000205,-13.431083905783438581
0.419000000000000206,-13.322134298042666245
0.420000000000000207,-13.212754598697449282
0.421000000000000207,-13.102964504822548264
0.422000000000000208,-12.992784390857270438
0.423000000000000209,-12.882235266120664718
0.424000000000000210,-12.771338732525297388
0.425000000000000211,-12.660116942571859155
0.426000000000000212,-12.548592557701566008
0.427000000000000213,-12.436788707077599980
0.428000000000000214,-12.324728946862270718
0.429000000000000214,-12.212437220051230113
0.430000000000000215,-12.099937816921393363
0.431000000000000216,-11.987255336144878370
0.432000000000000217,-11.874414646616381575
0.433000000000000218,-11.761440850037537587
0.434000000000000219,-11.648359244297562753
0.435000000000000220,-11.535195287685599652
0.436000000000000221,-11.421974563966312388
0.437000000000000222,-11.308722748346838216
0.438000000000000222,-11.195465574359719341
0.439000000000000223,-11.082228801683134733
0.440000000000000224,-10.969038184916625411
0.441000000000000225,-10.855919443327568530
0.442000000000000226,-10.742898231580991109
0.443000000000000227,-10.630000111462244661
0.444000000000000228,-10.517250524600052941
0.445000000000000229,-10.404674766194666802
0.446000000000000230,-10.292297959753742731
0.447000000000000230,-10.180145032836565022
0.448000000000000231,-10.068240693805064367
0.449000000000000232,-9.956609409578209835
0.450000000000000233,-9.845275384384903461
0.451000000000000234,-9.734262539508428347
0.452000000000000235,-9.623594494014419354
0.453000000000000236,-9.513294546452524258
0.454000000000000237,-9.403385657521038610
0.455000000000000238,-9.293890433682136631
0.456000000000000238,-9.184831111714654384
0.457000000000000239,-9.076229544189930110
0.458000000000000240,-8.968107185855815899
0.459000000000000241,-8.860485080912402722
0.460000000000000242,-8.753383851163111018
0.461000000000000243,-8.646823685023264261
0.462000000000000244,-8.540824327368387259
0.463000000000000245,-8.435405070203250588
0.464000000000000246,-8.330584744132881525
0.465000000000000246,-8.226381710615806142
0.466000000000000247,-8.122813854979742842
0.467000000000000248,-8.019898580179500414
0.468000000000000249,-7.917652801276868324
0.469000000000000250,-7.816092940621682139
0.470000000000000251,-7.715234923713540915
0.471000000000000252,-7.615094175723180925
0.472000000000000253,-7.515685618652857336
0.473000000000000254,-7.417023669114631623
0.474000000000000254,-7.319122236705919882
0.475000000000000255,-7.221994722961379232
0.476000000000000256,-7.125654020860489268
0.477000000000000257,-7.030112514870381801
0.478000000000000258,-6.935382081503307816
0.479000000000000259,-6.841474090368725669
0.480000000000000260,-6.748399405699925246
0.481000000000000261,-6.656168388335322206
0.482000000000000262,-6.564790898135098196
0.483000000000000262,-6.474276296813724407
0.484000000000000263,-6.384633451169554164
0.485000000000000264,-6.295870736692694258
0.486000000000000265,-6.207996041532937603
0.487000000000000266,-6.121016770809623253
0.488000000000000267,-6.034939851245797904
0.489000000000000268,-5.949771736109418896
0.490000000000000269,-5.865518410444474640
0.491000000000000270,-5.782185396575653336
0.492000000000000270,-5.699777759870106486
0.493000000000000271,-5.618300114740681472
0.494000000000000272,-5.537756630875041886
0.495000000000000273,-5.458151039675619209
0.496000000000000274,-5.379486640895864369
0.497000000000000275,-5.301766309458312953
0.498000000000000276,-5.224992502440758635
0.499000000000000277,-5.149167266217011374
0.500000000000000222,-5.074292243739048303
0.501000000000000334,-5.000368681948016203
0.502000000000000224,-4.927397439301745230
0.503000000000000336,-4.855378993406681332
0.504000000000000226,-4.784313448743089836
0.505000000000000338,-4.714200544471911947
0.506000000000000227,-4.645039662313064532
0.507000000000000339,-4.576829834484220427
0.508000000000000229,-4.509569751690618133
0.509000000000000341,-4.443257771155742830
0.510000000000000231,-4.377891924684168323
0.511000000000000343,-4.313469926747016459
0.512000000000000233,-4.249989182582075031
0.513000000000000345,-4.187446796299792773
0.514000000000000234,-4.125839578987873679
0.515000000000000346,-4.065164056806263915
0.516000000000000236,-4.005416479065952551
0.517000000000000348,-3.946592826284169409
0.518000000000000238,-3.888688818209816045
0.519000000000000350,-3.831699921812491194
0.520000000000000240,-3.775621359229471175
0.521000000000000352,-3.720448115664712674
0.522000000000000242,-3.666174947234662085
0.523000000000000353,-3.612796388755630694
0.524000000000000243,-3.560306761468029713
0.525000000000000355,-3.508700180692746695
0.526000000000000245,-3.457970563415554643
0.527000000000000357,-3.408111635795211036
0.528000000000000247,-3.359116940591801104
0.529000000000000359,-3.310979844511353853
0.530000000000000249,-3.263693545463746126
0.531000000000000361,-3.217251079730473862
0.532000000000000250,-3.171645329039677996
0.533000000000000362,-3.126869027545432278
0.534000000000000252,-3.082914768709086761
0.535000000000000364,-3.039775012080151662
0.536000000000000254,-2.997442089974840407
0.537000000000000366,-2.955908214050071869
0.538000000000000256,-2.915165481771576417
0.539000000000000368,-2.875205882774110933
0.540000000000000258,-2.836021305112822688
0.541000000000000369,-2.797603541404101612
0.542000000000000259,-2.759944294855228630
0.543000000000000371,-2.723035185181541529
0.544000000000000261,-2.686867754410599662
0.545000000000000373,-2.651433472572476191
0.546000000000000263,-2.616723743275848335
0.547000000000000375,-2.582729909169236837
0.548000000000000265,-2.549443257287446141
0.549000000000000377,-2.516855024282672826
0.550000000000000266,-2.484956401540535431
0.551000000000000378,-2.453738540180878669
0.552000000000000268,-2.423192555943622040
0.553000000000000380,-2.393309533959790070
0.554000000000000270,-2.364080533408210449
0.555000000000000382,-2.335496592058114107
0.556000000000000272,-2.307548730698373962
0.557000000000000384,-2.280227957453698995
0.558000000000000274,-2.253525271988748635
0.559000000000000385,-2.227431669600592024
0.560000000000000275,-2.201938145200585950
0.561000000000000387,-2.177035697186315399
0.562000000000000277,-2.152715331204657634
0.563000000000000389,-2.128968063806856215
0.564000000000000279,-2.105784925996717849
0.565000000000000391,-2.083156966672926824
0.566000000000000281,-2.061075255966646314
0.567000000000000393,-2.039530888475547865
0.568000000000000282,-2.018514986395543609
0.569000000000000394,-1.998018702551320969
0.570000000000000284,-1.978033223327123835
0.571000000000000396,-1.958549771498947933
0.572000000000000286,-1.939559608969624538
0.573000000000000398,-1.921054039407978475
0.574000000000000288,-1.903024410793620502
0.575000000000000400,-1.885462117868704102
0.576000000000000290,-1.868358604498051800
0.577000000000000401,-1.851705365939147585
0.578000000000000291,-1.835493951023450254
0.579000000000000403,-1.819715964250439910
0.580000000000000293,-1.804363067795989650
0.581000000000000405,-1.789426983436449792
0.582000000000000295,-1.774899494390035359
0.583000000000000407,-1.760772447076962788
0.584000000000000297,-1.747037752799877719
0.585000000000000409,-1.733687389346104002
0.586000000000000298,-1.720713402513204260
0.587000000000000410,-1.708107907559381689
0.588000000000000300,-1.695863090580261856
0.589000000000000412,-1.683971209813522218
0.590000000000000302,-1.672424596872923885
0.591000000000000414,-1.661215657913261534
0.592000000000000304,-1.650336874727679204
0.593000000000000416,-1.639780805778880080
0.594000000000000306,-1.629540087165749496
0.595000000000000417,-1.619607433526811135
0.596000000000000307,-1.609975638881997018
0.597000000000000419,-1.600637577414230295
0.598000000000000309,-1.591586204192259713
0.599000000000000421,-1.582814555836089765
0.600000000000000311,-1.574315751126592833
0.601000000000000423,-1.566082991560557414
0.602000000000000313,-1.558109561852692115
0.603000000000000425,-1.550388830385833971
0.604000000000000314,-1.542914249610910504
0.605000000000000426,-1.535679356397795514
0.606000000000000316,-1.528677772338597363
0.607000000000000428,-1.521903204004511956
0.608000000000000318,-1.515349443157724352
0.609000000000000430,-1.509010366919498525
0.610000000000000320,-1.502879937895808649
0.611000000000000432,-1.496952204261736030
0.612000000000000322,-1.491221299805866929
0.613000000000000433,-1.485681443935907176
0.614000000000000323,-1.480326941646725958
0.615000000000000435,-1.475152183451995169
0.616000000000000325,-1.470151645280569408
0.617000000000000437,-1.465319888338798338
0.618000000000000327,-1.460651558939847439
0.619000000000000439,-1.456141388301139372
0.620000000000000329,-1.451784192311043498
0.621000000000000441,-1.447574871265820295
0.622000000000000330,-1.443508409577923812
0.623000000000000442,-1.439579875456648672
0.624000000000000332,-1.435784420562152386
0.625000000000000444,-1.432117279633861040
0.626000000000000334,-1.428573770094182072
0.627000000000000446,-1.425149291628538872
0.628000000000000336,-1.421839325742609406
0.629000000000000448,-1.418639435297712081
0.630000000000000338,-1.415545264025237504
0.631000000000000449,-1.412552536020991178
0.632000000000000339,-1.409657055220320032
0.633000000000000451,-1.406854704854853866
0.634000000000000341,-1.404141446891686185
0.635000000000000453,-1.401513321455841066
0.636000000000000343,-1.398966446236702854
0.637000000000000455,-1.396497015879351045
0.638000000000000345,-1.394101301361371892
0.639000000000000457,-1.391775649356015165
0.640000000000000346,-1.389516481582337315
0.641000000000000458,-1.387320294143086663
0.642000000000000348,-1.385183656850950795
0.643000000000000460,-1.383103212543896232
0.644000000000000350,-1.381075676390217222
0.645000000000000462,-1.379097835183933141
0.646000000000000352,-1.377166546631140687
0.647000000000000464,-1.375278738627956798
0.648000000000000353,-1.373431408530608744
0.649000000000000465,-1.371621622418245368
0.650000000000000355,-1.369846514349047251
0.651000000000000467,-1.368103285610137165
0.652000000000000357,-1.366389203961873466
0.653000000000000469,-1.364701602876961406
0.654000000000000359,-1.363037880774977229
0.655000000000000471,-1.361395500252678747
0.656000000000000361,-1.359771987310659735
0.657000000000000473,-1.358164930576759577
0.658000000000000362,-1.356571980526686705
0.659000000000000474,-1.354990848702252393
