# GoldBrush_THEOBROMINE-AC
# h[nm],U(h)[kJ/mol]
0.200000000000000011,113.689749729728376337
0.201000000000000012,111.208980378108478249
0.202000000000000013,108.521192172991234770
0.203000000000000014,105.788060482521544259
0.204000000000000015,103.096900490037953091
0.205000000000000016,100.488376269573834065
0.206000000000000016,97.975253961188855101
0.207000000000000017,95.554802957480006853
0.208000000000000018,93.216751000318453180
0.209000000000000019,90.948176767011688071
0.210000000000000020,88.736334782690008183
0.211000000000000021,86.570119938008915028
0.212000000000000022,84.440667666924412060
0.213000000000000023,82.341431936370369726
0.214000000000000024,80.267972118766692802
0.215000000000000024,78.217600539829703621
0.216000000000000025,76.188986675522301084
0.217000000000000026,74.181775324595122356
0.218000000000000027,72.196249889848147063
0.219000000000000028,70.233054643216576096
0.220000000000000029,68.292978918831295232
0.221000000000000030,66.376799655249612897
0.222000000000000031,64.485175193155995998
0.223000000000000032,62.618581717162804523
0.224000000000000032,60.777283488953550261
0.225000000000000033,58.961328547497046770
0.226000000000000034,57.170562501492028673
0.227000000000000035,55.404654175208818856
0.228000000000000036,53.663128039451251539
0.229000000000000037,51.945399470879486614
0.230000000000000038,50.250809882520997007
0.231000000000000039,48.578659630811628745
0.232000000000000040,46.928237323138830561
0.233000000000000040,45.298844729378778595
0.234000000000000041,43.689816952932133631
0.235000000000000042,42.100537856412458382
0.236000000000000043,40.530450980876914002
0.237000000000000044,38.979066361648236239
0.238000000000000045,37.445963743660769296
0.239000000000000046,35.930792748681000148
0.240000000000000047,34.433270557743675511
0.241000000000000048,32.953177654978638600
0.242000000000000048,31.490352142195149554
0.243000000000000049,30.044683084068719126
0.244000000000000050,28.616103287045110193
0.245000000000000051,27.204581855371610999
0.246000000000000052,25.810116808201122751
0.247000000000000053,24.432727984772519392
0.248000000000000054,23.072450411848794971
0.249000000000000055,21.729328259878307961
0.250000000000000056,20.403409472281275328
0.251000000000000056,19.094741116033826955
0.252000000000000057,17.803365471257137642
0.253000000000000058,16.529316852553233019
0.254000000000000059,15.272619134970568666
0.255000000000000060,14.033283942262499977
0.256000000000000061,12.811309444003729396
0.257000000000000062,11.606679700626340690
0.258000000000000063,10.419364491008154872
0.259000000000000064,9.249319555391609882
0.260000000000000064,8.096487186668021252
0.261000000000000065,6.960797105006325758
0.262000000000000066,5.842167554050092804
0.263000000000000067,4.740506561123707385
0.264000000000000068,3.655713308779053872
0.265000000000000069,2.587679570330066348
0.266000000000000070,1.536291167558541559
0.267000000000000071,0.501429414351028391
0.268000000000000071,-0.517027484488196576
0.269000000000000072,-1.519203104723974462
0.270000000000000073,-2.505221564959781322
0.271000000000000074,-3.475206395525912484
0.272000000000000075,-4.429279525564745690
0.273000000000000076,-5.367560396043564275
0.274000000000000077,-6.290165203001246930
0.275000000000000078,-7.197206272332164367
0.276000000000000079,-8.088791564818683000
0.277000000000000079,-8.965024307930423930
0.278000000000000080,-9.826002749085075649
0.279000000000000081,-10.671820023595831373
0.280000000000000082,-11.502564129378201940
0.281000000000000083,-12.318317999631753779
0.282000000000000084,-13.119159664115320751
0.283000000000000085,-13.905162489270839643
0.284000000000000086,-14.676395487293754982
0.285000000000000087,-15.432923684262664921
0.286000000000000087,-16.174808537610640968
0.287000000000000088,-16.902108393512836670
0.288000000000000089,-17.614878975160802810
0.289000000000000090,-18.313173893373480894
0.290000000000000091,-18.997045171533855523
0.291000000000000092,-19.666543777430621986
0.292000000000000093,-20.321720155201241198
0.293000000000000094,-20.962624751210995555
0.294000000000000095,-21.589308528345437566
0.295000000000000095,-22.201823463835701489
0.296000000000000096,-22.800223026363866552
0.297000000000000097,-23.384562628807394447
0.298000000000000098,-23.954900053567929064
0.299000000000000099,-24.511295847988723295
0.300000000000000100,-25.053813687890880146
0.301000000000000101,-25.582520707751676525
0.302000000000000102,-26.097487796503010316
0.303000000000000103,-26.598789858349174864
0.304000000000000103,-27.086506038382594852
0.305000000000000104,-27.560719913122461833
0.306000000000000105,-28.021519646408229676
0.307000000000000106,-28.468998111352085800
0.308000000000000107,-28.903252979292897606
0.309000000000000108,-29.324386776898155205
0.310000000000000109,-29.732506912735527038
0.311000000000000110,-30.127725674778144338
0.312000000000000111,-30.510160200426479804
0.313000000000000111,-30.879932420719903519
0.314000000000000112,-31.237168980479310676
0.315000000000000113,-31.582001136168635469
0.316000000000000114,-31.914564633289973727
0.317000000000000115,-32.234999565136376987
0.318000000000000116,-32.543450214719698010
0.319000000000000117,-32.840064881670798513
0.320000000000000118,-33.124995695876350510
0.321000000000000119,-33.398398419573666729
0.322000000000000119,-33.660432239572195101
0.323000000000000120,-33.911259551210108043
0.324000000000000121,-34.151045735588574814
0.325000000000000122,-34.379958931553879609
0.326000000000000123,-34.598169803822393931
0.327000000000000124,-34.805851308564669466
0.328000000000000125,-35.003178457684128944
0.329000000000000126,-35.190328082943935328
0.330000000000000127,-35.367478601013189632
0.331000000000000127,-35.534809780421483083
0.332000000000000128,-35.692502511329223580
0.333000000000000129,-35.840738578941497394
0.334000000000000130,-35.979700441313738679
0.335000000000000131,-36.109571012223412367
0.336000000000000132,-36.230533449705283999
0.337000000000000133,-36.342770950779438976
0.338000000000000134,-36.446466552831580543
0.339000000000000135,-36.541802942040447988
0.340000000000000135,-36.628962269185976197
0.341000000000000136,-36.708125973112615270
0.342000000000000137,-36.779474612067978967
0.343000000000000138,-36.843187703084424811
0.344000000000000139,-36.899443569524109421
0.345000000000000140,-36.948419196862168690
0.346000000000000141,-36.990290096741773596
0.347000000000000142,-37.025230179296265476
0.348000000000000143,-37.053411633698807748
0.349000000000000143,-37.075004816867640045
0.350000000000000144,-37.090178150226492448
0.351000000000000145,-37.099098024393107664
0.352000000000000146,-37.101928711646039005
0.353000000000000147,-37.098832285998618374
0.354000000000000148,-37.089968550691267524
0.355000000000000149,-37.075494972897203638
0.356000000000000150,-37.055566625423068672
0.357000000000000151,-37.030336135174586332
0.358000000000000151,-36.999953638147708546
0.359000000000000152,-36.964566740698145964
0.360000000000000153,-36.924320486836521127
0.361000000000000154,-36.879357331291210187
0.362000000000000155,-36.829817118079148486
0.363000000000000156,-36.775837064322423942
0.364000000000000157,-36.717551749048695342
0.365000000000000158,-36.655093106714410567
0.366000000000000159,-36.588590425191164002
0.367000000000000159,-36.518170347958786692
0.368000000000000160,-36.443956880252414976
0.369000000000000161,-36.366071398914669999
0.370000000000000162,-36.284632665709622756
0.371000000000000163,-36.199756843860839695
0.372000000000000164,-36.111557517581033494
0.373000000000000165,-36.020145714368808854
0.374000000000000166,-35.925629929853478473
0.375000000000000167,-35.828116154976939356
0.376000000000000167,-35.727707905308847103
0.377000000000000168,-35.624506252298665743
0.378000000000000169,-35.518609856276185610
0.379000000000000170,-35.410115001020031400
0.380000000000000171,-35.299115629720994036
0.381000000000000172,-35.185703382175823606
0.382000000000000173,-35.069967633053963141
0.383000000000000174,-34.951995531088513758
0.384000000000000175,-34.831872039049756040
0.385000000000000175,-34.709679974367453781
0.386000000000000176,-34.585500050275982176
0.387000000000000177,-34.459410917362774285
0.388000000000000178,-34.331489205409319254
0.389000000000000179,-34.201809565419090120
0.390000000000000180,-34.070444711735405008
0.391000000000000181,-33.937465464157654083
0.392000000000000182,-33.802940789971266611
0.393000000000000183,-33.666937845813016850
0.394000000000000183,-33.529522019298951818
0.395000000000000184,-33.390756970348583366
0.396000000000000185,-33.250704672143761798
0.397000000000000186,-33.109425451666687934
0.398000000000000187,-32.966978029766110581
0.399000000000000188,-32.823419560705900722
0.400000000000000189,-32.678805671154570689
0.401000000000000190,-32.533190498579031669
0.402000000000000191,-32.386626729009776682
0.403000000000000191,-32.239165634148697848
0.404000000000000192,-32.090857107794747094
0.405000000000000193,-31.941749701565633757
0.406000000000000194,-31.791890659897774185
0.407000000000000195,-31.641325954309291291
0.408000000000000196,-31.490100316914009682
0.409000000000000197,-31.338257273177113404
0.410000000000000198,-31.185839173905897326
0.411000000000000199,-31.032887226470865727
0.412000000000000199,-30.879441525255380441
0.413000000000000200,-30.725541081333517468
0.414000000000000201,-30.571223851378185543
0.415000000000000202,-30.416526765802604615
0.416000000000000203,-30.261485756140864112
0.417000000000000204,-30.106135781673664553
0.418000000000000205,-29.950510855307506120
0.419000000000000206,-29.794644068716330310
0.420000000000000207,-29.638567616755874923
0.421000000000000207,-29.482312821162121708
0.422000000000000208,-29.325910153545542869
0.423000000000000209,-29.169389257694540163
0.424000000000000210,-29.012778971201193201
0.425000000000000211,-28.856107346423534921
0.426000000000000212,-28.699401670799311148
0.427000000000000213,-28.542688486525623404
0.428000000000000214,-28.385993609620623346
0.429000000000000214,-28.229342148382261968
0.430000000000000215,-28.072758521260443132
0.431000000000000216,-27.916266474158430100
0.432000000000000217,-27.759889097179716089
0.433000000000000218,-27.603648840836541467
0.434000000000000219,-27.447567531736183355
0.435000000000000220,-27.291666387761370771
0.436000000000000221,-27.135966032760741484
0.437000000000000222,-26.980486510765238961
0.438000000000000222,-26.825247299746443730
0.439000000000000223,-26.670267324932318331
0.440000000000000224,-26.515564971695784635
0.441000000000000225,-26.361158098031229002
0.442000000000000226,-26.207064046634162224
0.443000000000000227,-26.053299656598106537
0.444000000000000228,-25.899881274743655979
0.445000000000000229,-25.746824766593242373
0.446000000000000230,-25.594145527005586871
0.447000000000000230,-25.441858490483063804
0.448000000000000231,-25.289978141165185832
0.449000000000000232,-25.138518522520531207
0.450000000000000233,-24.987493246749860276
0.451000000000000234,-24.836915503911967562
0.452000000000000235,-24.686798070784249148
0.453000000000000236,-24.537153319468718138
0.454000000000000237,-24.387993225754915017
0.455000000000000238,-24.239329377249610786
0.456000000000000238,-24.091172981283879295
0.457000000000000239,-23.943534872606949904
0.458000000000000240,-23.796425520876628212
0.459000000000000241,-23.649855037954758075
0.460000000000000242,-23.503833185017057872
0.461000000000000243,-23.358369379485129258
0.462000000000000244,-23.213472701789065411
0.463000000000000245,-23.069151901967867246
0.464000000000000246,-22.925415406115483563
0.465000000000000246,-22.782271322679129355
0.466000000000000247,-22.639727448616742578
0.467000000000000248,-22.497791275419913859
0.468000000000000249,-22.356469995008446006
0.469000000000000250,-22.215770505502277388
0.470000000000000251,-22.075699416876290115
0.471000000000000252,-21.936263056503243263
0.472000000000000253,-21.797467474589954151
0.473000000000000254,-21.659318449511157922
0.474000000000000254,-21.521821493045841578
0.475000000000000255,-21.384981855519932026
0.476000000000000256,-21.248804530859736417
0.477000000000000257,-21.113294261559520493
0.478000000000000258,-20.978455543567015695
0.479000000000000259,-20.844292631090162615
0.480000000000000260,-20.710809541328220718
0.481000000000000261,-20.578010059130125597
0.482000000000000262,-20.445897741583010543
0.483000000000000262,-20.314475922533450358
0.484000000000000263,-20.183747717043715397
0.485000000000000264,-20.053716025785583099
0.486000000000000265,-19.924383539373589969
0.487000000000000266,-19.795752742639731281
0.488000000000000267,-19.667825918851580269
0.489000000000000268,-19.540605153875397093
0.490000000000000269,-19.414092340285844074
0.491000000000000270,-19.288289181423841967
0.492000000000000270,-19.163197195403721906
0.493000000000000271,-19.038817719071140289
0.494000000000000272,-18.915151911912840177
0.495000000000000273,-18.792200759919083453
0.496000000000000274,-18.669965079400121510
0.497000000000000275,-18.548445520757219640
0.498000000000000276,-18.427642572209187222
0.499000000000000277,-18.307556563475191780
0.500000000000000222,-18.188187669414325853
0.501000000000000334,-18.069535913622747358
0.502000000000000224,-17.951601171988816219
0.503000000000000336,-17.834383176206550559
0.504000000000000226,-17.717881517248251555
0.505000000000000338,-17.602095648796080241
0.506000000000000227,-17.487024890633634300
0.507000000000000339,-17.372668431997073668
0.508000000000000229,-17.259025334886722192
0.509000000000000341,-17.146094537338765207
0.510000000000000231,-17.033874856657980956
0.511000000000000343,-16.922364992610702927
0.512000000000000233,-16.811563530579238801
0.513000000000000345,-16.701468944676804540
0.514000000000000234,-16.592079600824156671
0.515000000000000346,-16.483393759786881816
0.516000000000000236,-16.375409580174483892
0.517000000000000348,-16.268125121400444755
0.518000000000000238,-16.161538346604036320
0.519000000000000350,-16.055647125533248243
0.520000000000000240,-15.950449237389483059
0.521000000000000352,-15.845942373633530309
0.522000000000000242,-15.742124140753301020
0.523000000000000353,-15.638992062992889132
0.524000000000000243,-15.536543585043375515
0.525000000000000355,-15.434776074695065518
0.526000000000000245,-15.333686825451597002
0.527000000000000357,-15.233273059105295388
0.528000000000000247,-15.133531928274612355
0.529000000000000359,-15.034460518902898585
0.530000000000000249,-14.936055852719158921
0.531000000000000361,-14.838314889660335183
0.532000000000000250,-14.741234530255685087
0.533000000000000362,-14.644811617972715467
0.534000000000000252,-14.549042941525295092
0.535000000000000364,-14.453925237143536719
0.536000000000000254,-14.359455190806025726
0.537000000000000366,-14.265629440433798436
0.538000000000000256,-14.172444578047059593
0.539000000000000368,-14.079897151883736583
0.540000000000000258,-13.987983668480982402
0.541000000000000369,-13.896700594718785382
0.542000000000000259,-13.806044359826762147
0.543000000000000371,-13.716011357353398381
0.544000000000000261,-13.626597947098554542
0.545000000000000373,-13.537800457009012689
0.546000000000000263,-13.449615185037512077
0.547000000000000375,-13.362038400964980411
0.548000000000000265,-13.275066348186959075
0.549000000000000377,-13.188695245463430084
0.550000000000000266,-13.102921288633183394
0.551000000000000378,-13.017740652292218329
0.552000000000000268,-12.933149491436953582
0.553000000000000380,-12.849143943071984708
0.554000000000000270,-12.765720127783229287
0.555000000000000382,-12.682874151275987273
0.556000000000000272,-12.600602105879014303
0.557000000000000384,-12.518900072013952496
0.558000000000000274,-12.437764119631404824
0.559000000000000385,-12.357190309612949619
0.560000000000000275,-12.277174695140271155
0.561000000000000387,-12.197713323031006638
0.562000000000000277,-12.118802235042107185
0.563000000000000389,-12.040437469140737647
0.564000000000000279,-11.962615060743257089
0.565000000000000391,-11.885331043922358063
0.566000000000000281,-11.808581452583016613
0.567000000000000393,-11.732362321607222810
0.568000000000000282,-11.656669687968292948
0.569000000000000394,-11.581499591814568006
0.570000000000000284,-11.506848077523452289
0.571000000000000396,-11.432711194725573733
0.572000000000000286,-11.359084999300002039
0.573000000000000398,-11.285965554340332773
0.574000000000000288,-11.213348931092474103
0.575000000000000400,-11.141231209864228546
0.576000000000000290,-11.069608480907245252
0.577000000000000401,-10.998476845271483171
0.578000000000000291,-10.927832415632888541
0.579000000000000403,-10.857671317094323982
0.580000000000000293,-10.787989687960537921
0.581000000000000405,-10.718783680487073084
0.582000000000000295,-10.650049461604103485
0.583000000000000407,-10.581783213614965433
0.584000000000000297,-10.513981134870324041
0.585000000000000409,-10.446639440417964551
0.586000000000000298,-10.379754362628968778
0.587000000000000410,-10.313322151800219828
0.588000000000000300,-10.247339076734226282
0.589000000000000412,-10.181801425295969210
0.590000000000000302,-10.116705504947843153
0.591000000000000414,-10.052047643262595145
0.592000000000000304,-9.987824188414938575
0.593000000000000416,-9.924031509652007088
0.594000000000000306,-9.860665997743378597
0.595000000000000417,-9.797724065410612582
0.596000000000000307,-9.735202147737158640
0.597000000000000419,-9.673096702558613202
0.598000000000000309,-9.611404210834063377
0.599000000000000421,-9.550121176998569439
0.600000000000000311,-9.489244129297532027
0.601000000000000423,-9.428769620102894322
0.602000000000000313,-9.368694226212070930
0.603000000000000425,-9.309014549129376093
0.604000000000000314,-9.249727215331017049
0.605000000000000426,-9.190828876513275958
0.606000000000000316,-9.132316209824960396
0.607000000000000428,-9.074185918083847113
0.608000000000000318,-9.016434729978096030
0.609000000000000430,-8.959059400252346705
0.610000000000000320,-8.902056709879502705
0.611000000000000432,-8.845423466217932074
0.612000000000000322,-8.789156503154996969
0.613000000000000433,-8.733252681236793435
0.614000000000000323,-8.677708887784749692
0.615000000000000435,-8.622522036999239248
0.616000000000000325,-8.567689070050672484
0.617000000000000437,-8.513206955158231892
0.618000000000000327,-8.459072687656815859
0.619000000000000439,-8.405283290052157241
0.620000000000000329,-8.351835812064866360
0.621000000000000441,-8.298727330663300705
0.622000000000000330,-8.245954950085875979
0.623000000000000442,-8.193515801852878866
0.624000000000000332,-8.141407044768332213
0.625000000000000444,-8.089625864911919706
0.626000000000000334,-8.038169475621570470
0.627000000000000446,-7.987035117466668055
0.628000000000000336,-7.936220058212467343
0.629000000000000448,-7.885721592775729150
0.630000000000000338,-7.835537043172132954
0.631000000000000449,-7.785663758455354966
0.632000000000000339,-7.736099114648514963
0.633000000000000451,-7.686840514667862223
0.634000000000000341,-7.637885388239245898
0.635000000000000453,-7.589231191807390253
0.636000000000000343,-7.540875408438428629
0.637000000000000455,-7.492815547715737878
0.638000000000000345,-7.445049145629541343
0.639000000000000457,-7.397573764460186219
0.640000000000000346,-7.350386992655780993
0.641000000000000458,-7.303486444703882974
0.642000000000000348,-7.256869760997965102
0.643000000000000460,-7.210534607698444454
0.644000000000000350,-7.164478676588875494
0.645000000000000462,-7.118699684927132232
0.646000000000000352,-7.073195375292158360
0.647000000000000464,-7.027963515426080221
0.648000000000000353,-6.983001898072387803
0.649000000000000465,-6.938308340809729025
0.650000000000000355,-6.893880685882223247
0.651000000000000467,-6.849716800025793084
0.652000000000000357,-6.805814574291264130
0.653000000000000469,-6.762171923863945722
0.654000000000000359,-6.718786787880278943
0.655000000000000471,-6.675657129241294285
