# GoldBrush_METHANAL-AC
# h[nm],U(h)[kJ/mol]
0.149999999999999994,39.460809181533875289
0.150999999999999995,37.944635515129981229
0.151999999999999996,36.507699513277842129
0.152999999999999997,35.112242212547201348
0.153999999999999998,33.751569326587365083
0.154999999999999999,32.429304127027364757
0.156000000000000000,31.150084835387492177
0.157000000000000001,29.916269889945642291
0.158000000000000002,28.727513697465973053
0.159000000000000002,27.581486673777853014
0.160000000000000003,26.474855983552078698
0.161000000000000004,25.404128185518985106
0.162000000000000005,24.366219458937031561
0.163000000000000006,23.358751676786472018
0.164000000000000007,22.380129240136728441
0.165000000000000008,21.429466922295965503
0.166000000000000009,20.506433827175207796
0.167000000000000010,19.611065003943107143
0.168000000000000010,18.743576868894479048
0.169000000000000011,17.904208636464126414
0.170000000000000012,17.093100786925340628
0.171000000000000013,16.310213459914326251
0.172000000000000014,15.555282282401048377
0.173000000000000015,14.827806013870263868
0.174000000000000016,14.127058968612848489
0.175000000000000017,13.452120946269596757
0.176000000000000018,12.801917940966571763
0.177000000000000018,12.175267873709501032
0.178000000000000019,11.570926757572859600
0.179000000000000020,10.987631891895038194
0.180000000000000021,10.424139782553462297
0.181000000000000022,9.879257439486448078
0.182000000000000023,9.351866482897079891
0.183000000000000024,8.840940092253887883
0.184000000000000025,8.345553268461875618
0.185000000000000026,7.864887169184243021
0.186000000000000026,7.398228444044368857
0.187000000000000027,6.944964564988486799
0.188000000000000028,6.504576140912317506
0.189000000000000029,6.076627145819864850
0.190000000000000030,5.660753894347308801
0.191000000000000031,5.256653482307541481
0.192000000000000032,4.864072284743111929
0.193000000000000033,4.482794978718562362
0.194000000000000034,4.112634439150527399
0.195000000000000034,3.753422747667041648
0.196000000000000035,3.405003459398219690
0.197000000000000036,3.067225191962702713
0.198000000000000037,2.739936534937056134
0.199000000000000038,2.422982226240483872
0.200000000000000039,2.116200503085401419
0.201000000000000040,1.819421508065911741
0.202000000000000041,1.532466614042396591
0.203000000000000042,1.255148523138790662
0.204000000000000042,0.987271993836955630
0.205000000000000043,0.728635054359263123
0.206000000000000044,0.479030568931705869
0.207000000000000045,0.238248034925490154
0.208000000000000046,0.006075502253325826
0.209000000000000047,-0.217698479120645605
0.210000000000000048,-0.433282962825518425
0.211000000000000049,-0.640882825457225969
0.212000000000000050,-0.840697152180230889
0.213000000000000050,-1.032917825922259336
0.214000000000000051,-1.217728345558727332
0.215000000000000052,-1.395302887819812820
0.216000000000000053,-1.565805618363450780
0.217000000000000054,-1.729390249555720516
0.218000000000000055,-1.886199835954361914
0.219000000000000056,-2.036366793237450512
0.220000000000000057,-2.180013122269321535
0.221000000000000058,-2.317250817043039923
0.222000000000000058,-2.448182433270658098
0.223000000000000059,-2.572901793287535543
0.224000000000000060,-2.691494802577460543
0.225000000000000061,-2.804040353494415605
0.226000000000000062,-2.910611292543880513
0.227000000000000063,-3.011275428789196962
0.228000000000000064,-3.106096562471427180
0.229000000000000065,-3.195135514690385037
0.230000000000000066,-3.278451140913422712
0.231000000000000066,-3.356101313092330063
0.232000000000000067,-3.428143857220177892
0.233000000000000068,-3.494637435201723097
0.234000000000000069,-3.555642361903792903
0.235000000000000070,-3.611221350164011135
0.236000000000000071,-3.661440178342813656
0.237000000000000072,-3.706368276686210272
0.238000000000000073,-3.746079230312312713
0.239000000000000073,-3.780651198034529870
0.240000000000000074,-3.810167247485098052
0.241000000000000075,-3.834715608102657658
0.242000000000000076,-3.854389844499578111
0.243000000000000077,-3.869288953532850961
0.244000000000000078,-3.879517389073203759
0.245000000000000079,-3.885185019007579399
0.246000000000000080,-3.886407019430146104
0.247000000000000081,-3.883303711284773474
0.248000000000000081,-3.876000344928149932
0.249000000000000082,-3.864626838196970393
0.250000000000000111,-3.849317473595064598
0.251000000000000112,-3.830210560176698031
0.252000000000000113,-3.807448065600192333
0.253000000000000114,-3.781175223670179886
0.254000000000000115,-3.751540122486367146
0.255000000000000115,-3.718693278079000297
0.256000000000000116,-3.682787198144262586
0.257000000000000117,-3.643975940203071140
0.258000000000000118,-3.602414668200318637
0.259000000000000119,-3.558259211244467757
0.260000000000000120,-3.511665627864036132
0.261000000000000121,-3.462789778832514376
0.262000000000000122,-3.411786911290580093
0.263000000000000123,-3.358811256576986981
0.264000000000000123,-3.304015643870580110
0.265000000000000124,-3.247551131447130590
0.266000000000000125,-3.189566657068886979
0.267000000000000126,-3.130208708752438618
0.268000000000000127,-3.069621016903702149
0.269000000000000128,-3.007944268567913859
0.270000000000000129,-2.945315844318195708
0.271000000000000130,-2.881869578098755547
0.272000000000000131,-2.817735540148516016
0.273000000000000131,-2.753039842957213157
0.274000000000000132,-2.687904470049296890
0.275000000000000133,-2.622447127250291388
0.276000000000000134,-2.556781115965332418
0.277000000000000135,-2.491015227890039707
0.278000000000000136,-2.425253660478517759
0.279000000000000137,-2.359595952411845499
0.280000000000000138,-2.294136938242007595
0.281000000000000139,-2.228966721329753931
0.282000000000000139,-2.164170664150055323
0.283000000000000140,-2.099829395004327637
0.284000000000000141,-2.036018830153924153
0.285000000000000142,-1.972810210373591833
0.286000000000000143,-1.910270150915901244
0.287000000000000144,-1.848460703877284006
0.288000000000000145,-1.787439431962594139
0.289000000000000146,-1.727259492657201800
0.290000000000000147,-1.667969731832941616
0.291000000000000147,-1.609614785836111839
0.292000000000000148,-1.552235191131521974
0.293000000000000149,-1.495867500605803979
0.294000000000000150,-1.440544405665076688
0.295000000000000151,-1.386294863296624991
0.296000000000000152,-1.333144227300169460
0.297000000000000153,-1.281114382932321050
0.298000000000000154,-1.230223884246199439
0.299000000000000155,-1.180488093447917608
0.300000000000000155,-1.131919321631331687
0.301000000000000156,-1.084526970292432058
0.302000000000000157,-1.038317673064510727
0.303000000000000158,-0.993295437154716465
0.304000000000000159,-0.949461784001375930
0.305000000000000160,-0.906815888709493145
0.306000000000000161,-0.865354717859064260
0.307000000000000162,-0.825073165316898782
0.308000000000000163,-0.785964185717561770
0.309000000000000163,-0.748018925312830651
0.310000000000000164,-0.711226849921366422
0.311000000000000165,-0.675575869741370960
0.312000000000000166,-0.641052460818556158
0.313000000000000167,-0.607641782989914447
0.314000000000000168,-0.575327794150449323
0.315000000000000169,-0.544093360715231178
0.316000000000000170,-0.513920364172878896
0.317000000000000171,-0.484789803648868589
0.318000000000000171,-0.456681894417836964
0.319000000000000172,-0.429576162323551280
0.320000000000000173,-0.403451534083182850
0.321000000000000174,-0.378286423469245181
0.322000000000000175,-0.354058813377884474
0.323000000000000176,-0.330746333806377468
0.324000000000000177,-0.308326335775477189
0.325000000000000178,-0.286775961244057409
0.326000000000000179,-0.266072209073985655
0.327000000000000179,-0.246191997112720357
0.328000000000000180,-0.227112220469549542
0.329000000000000181,-0.208809806068981446
0.330000000000000182,-0.191261763571219850
0.331000000000000183,-0.174445232755558399
0.332000000000000184,-0.158337527467252492
0.333000000000000185,-0.142916176232639136
0.334000000000000186,-0.128158959650655324
0.335000000000000187,-0.114043944671597147
0.336000000000000187,-0.100549515876117462
0.337000000000000188,-0.087654403868909062
0.338000000000000189,-0.075337710902568938
0.339000000000000190,-0.063578933847581037
0.340000000000000191,-0.052357984624333165
0.341000000000000192,-0.041655208212874675
0.342000000000000193,-0.031451398355089963
0.343000000000000194,-0.021727811063105573
0.344000000000000195,-0.012466176046133670
0.345000000000000195,-0.003648706166380489
0.346000000000000196,0.004741894967362770
0.347000000000000197,0.012722427162000161
0.348000000000000198,0.020309189454154764
0.349000000000000199,0.027517977474400945
0.350000000000000200,0.034364082262775139
0.351000000000000201,0.040862290439491744
0.352000000000000202,0.047026885637663482
0.353000000000000203,0.052871651107783094
0.354000000000000203,0.058409873406836385
0.355000000000000204,0.063654347087922419
0.356000000000000205,0.068617380309460699
0.357000000000000206,0.073310801286149682
0.358000000000000207,0.077745965507058881
0.359000000000000208,0.081933763649316663
0.360000000000000209,0.085884630119016453
0.361000000000000210,0.089608552154104792
0.362000000000000210,0.093115079427016662
0.363000000000000211,0.096413334087908448
0.364000000000000212,0.099512021192296934
0.365000000000000213,0.102419439459853698
0.366000000000000214,0.105143492313944667
0.367000000000000215,0.107691699154351325
0.368000000000000216,0.110071206818271872
0.369000000000000217,0.112288801187460124
0.370000000000000218,0.114350918901840945
0.371000000000000218,0.116263659142524706
0.372000000000000219,0.118032795449544675
0.373000000000000220,0.119663787541968603
0.374000000000000221,0.121161793110352176
0.375000000000000222,0.122531679553629605
0.376000000000000223,0.123778035634679345
0.377000000000000224,0.124905183030803474
0.378000000000000225,0.125917187757280391
0.379000000000000226,0.126817871444057290
0.380000000000000226,0.127610822447328742
0.381000000000000227,0.128299406779559699
0.382000000000000228,0.128886778843008726
0.383000000000000229,0.129375891953416894
0.384000000000000230,0.129769508641988413
0.385000000000000231,0.130070210725096613
0.386000000000000232,0.130280409132580738
0.387000000000000233,0.130402353486631345
0.388000000000000234,0.130438141424514736
0.389000000000000234,0.130389727659417115
0.390000000000000235,0.130258932774828751
0.391000000000000236,0.130047451748749099
0.392000000000000237,0.129756862205019197
0.393000000000000238,0.129388632389854652
0.394000000000000239,0.128944128872527625
0.395000000000000240,0.128424623969838309
0.396000000000000241,0.127831302894738152
0.397000000000000242,0.127165270630101607
0.398000000000000242,0.126427558529233208
0.399000000000000243,0.125619130645255817
0.400000000000000244,0.124740889792035861
0.401000000000000245,0.123793683339710386
0.402000000000000246,0.122778308748391379
0.403000000000000247,0.121695518843928638
0.404000000000000248,0.120546026839989245
0.405000000000000249,0.119330511111018667
0.406000000000000250,0.118049619720938498
0.407000000000000250,0.116703974712652328
0.408000000000000251,0.115294176163693057
0.409000000000000252,0.113820806013473025
0.410000000000000253,0.112284431667841966
0.411000000000000254,0.110685609386707864
0.412000000000000255,0.109024887460668560
0.413000000000000256,0.107302809182621209
0.414000000000000257,0.105519915620483989
0.415000000000000258,0.103676748197091564
0.416000000000000258,0.101773851083489242
0.417000000000000259,0.099811773411781199
0.418000000000000260,0.097791071313716074
0.419000000000000261,0.095712309791211259
0.420000000000000262,0.093576064424942887
0.421000000000000263,0.091382922927107368
0.422000000000000264,0.089133486544464888
0.423000000000000265,0.086828371317616310
0.424000000000000266,0.084468209202483949
0.425000000000000266,0.082053649059838391
0.426000000000000267,0.079585357518671795
0.427000000000000268,0.077064019719064319
0.428000000000000269,0.074490339940159050
0.429000000000000270,0.071865042118716096
0.430000000000000271,0.069188870263602029
0.431000000000000272,0.066462588771495981
0.432000000000000273,0.063686982648935991
0.433000000000000274,0.060862857645732092
0.434000000000000274,0.057991040304627359
0.435000000000000275,0.055072377932001329
0.436000000000000276,0.052107738494225744
0.437000000000000277,0.049098010444212983
0.438000000000000278,0.046044102482518293
0.439000000000000279,0.042946943257251256
0.440000000000000280,0.039807481006918152
0.441000000000000281,0.036626683150187647
0.442000000000000282,0.033405535826406221
0.443000000000000282,0.030145043390632554
0.444000000000000283,0.026846227866744288
0.445000000000000284,0.023510128362104865
0.446000000000000285,0.020137800447127117
0.447000000000000286,0.016730315502920968
0.448000000000000287,0.013288760040153069
0.449000000000000288,0.009814234992035065
0.450000000000000289,0.006307854984310501
0.451000000000000290,0.002770747584955635
0.452000000000000290,-0.000795947463812219
0.453000000000000291,-0.004391079028712741
0.454000000000000292,-0.008013485381409446
0.455000000000000293,-0.011661995005065418
0.456000000000000294,-0.015335427409300318
0.457000000000000295,-0.019032593951483733
0.458000000000000296,-0.022752298662436311
0.459000000000000297,-0.026493339074669019
0.460000000000000298,-0.030254507051427869
0.461000000000000298,-0.034034589614864275
0.462000000000000299,-0.037832369771803195
0.463000000000000300,-0.041646627335598742
0.464000000000000301,-0.045476139742718649
0.465000000000000302,-0.049319682862733513
0.466000000000000303,-0.053176031800518817
0.467000000000000304,-0.057043961689494528
0.468000000000000305,-0.060922248474865784
0.469000000000000306,-0.064809669685863505
0.470000000000000306,-0.068705005196066440
0.471000000000000307,-0.072607037970947613
0.472000000000000308,-0.076514554801880325
0.473000000000000309,-0.080426347025869149
0.474000000000000310,-0.084341211230335084
0.475000000000000311,-0.088257949942398523
0.476000000000000312,-0.092175372302058786
0.477000000000000313,-0.096092294718836249
0.478000000000000314,-0.100007541511399040
0.479000000000000314,-0.103919945529813609
0.480000000000000315,-0.107828348760067971
0.481000000000000316,-0.111731602910576558
0.482000000000000317,-0.115628569980417262
0.483000000000000318,-0.119518122809095198
0.484000000000000319,-0.123399145607651903
0.485000000000000320,-0.127270534471004809
0.486000000000000321,-0.131131197871414251
0.487000000000000322,-0.134980057133006009
0.488000000000000322,-0.138816046887337646
0.489000000000000323,-0.142638115509990421
0.490000000000000324,-0.146445225538233720
0.491000000000000325,-0.150236354069806455
0.492000000000000326,-0.154010493142893584
0.493000000000000327,-0.157766650097424382
0.494000000000000328,-0.161503847917787047
0.495000000000000329,-0.165221125557151904
0.496000000000000330,-0.168917538243524845
0.497000000000000330,-0.172592157767765042
0.498000000000000331,-0.176244072753738878
0.499000000000000332,-0.179872388910840453
0.500000000000000333,-0.183476229269125102
0.501000000000000334,-0.187054734397293060
0.502000000000000335,-0.190607062603787930
0.503000000000000336,-0.194132390121288051
0.504000000000000337,-0.197629911274874004
0.505000000000000338,-0.201098838634161003
0.506000000000000338,-0.204538403149702397
0.507000000000000339,-0.207947854273981936
0.508000000000000340,-0.211326460067298327
0.509000000000000341,-0.214673507288875409
0.510000000000000342,-0.217988301473523910
0.511000000000000343,-0.221270166994191081
0.512000000000000344,-0.224518447110731240
0.513000000000000345,-0.227732504005239311
0.514000000000000346,-0.230911718804298088
0.515000000000000346,-0.234055491588475384
0.516000000000000347,-0.237163241389418078
0.517000000000000348,-0.240234406174904269
0.518000000000000349,-0.243268442822184239
0.519000000000000350,-0.246264827079972271
0.520000000000000351,-0.249223053519431470
0.521000000000000352,-0.252142635474501664
0.522000000000000353,-0.255023104971902559
0.523000000000000353,-0.257864012651187191
0.524000000000000354,-0.260664927675149982
0.525000000000000355,-0.263425437630956882
0.526000000000000356,-0.266145148422319844
0.527000000000000357,-0.268823684153050246
0.528000000000000358,-0.271460687002341827
0.529000000000000359,-0.274055817092063225
0.530000000000000360,-0.276608752346442499
0.531000000000000361,-0.279119188344413016
0.532000000000000361,-0.281586838164966657
0.533000000000000362,-0.284011432225802163
0.534000000000000363,-0.286392718115597078
0.535000000000000364,-0.288730460420184520
0.536000000000000365,-0.291024440542938190
0.537000000000000366,-0.293274456519662996
0.538000000000000367,-0.295480322828264419
0.539000000000000368,-0.297641870193488811
0.540000000000000369,-0.299758945387003428
0.541000000000000369,-0.301831411023089469
0.542000000000000370,-0.303859145350206417
0.543000000000000371,-0.305842042038699968
0.544000000000000372,-0.307780009964889190
0.545000000000000373,-0.309672972991794526
0.546000000000000374,-0.311520869746749640
0.547000000000000375,-0.313323653396113955
0.548000000000000376,-0.315081291417347864
0.549000000000000377,-0.316793765368645563
0.550000000000000377,-0.318461070656369194
0.551000000000000378,-0.320083216300477758
0.552000000000000379,-0.321660224698180341
0.553000000000000380,-0.323192131385992676
0.554000000000000381,-0.324678984800415127
0.555000000000000382,-0.326120846037416423
0.556000000000000383,-0.327517788610895644
0.557000000000000384,-0.328869898210331302
0.558000000000000385,-0.330177272457763960
0.559000000000000385,-0.331440020664300006
0.560000000000000386,-0.332658263586294856
0.561000000000000387,-0.333832133181376112
0.562000000000000388,-0.334961772364458121
0.563000000000000389,-0.336047334763902250
0.564000000000000390,-0.337088984477956877
0.565000000000000391,-0.338086895831629486
0.566000000000000392,-0.339041253134110987
0.567000000000000393,-0.339952250436895143
0.568000000000000393,-0.340820091292697414
0.569000000000000394,-0.341644988515317105
0.570000000000000395,-0.342427163940543011
0.571000000000000396,-0.343166848188204920
0.572000000000000397,-0.343864280425503099
0.573000000000000398,-0.344519708131690638
0.574000000000000399,-0.345133386864218128
0.575000000000000400,-0.345705580026438086
0.576000000000000401,-0.346236558636940361
0.577000000000000401,-0.346726601100628029
0.578000000000000402,-0.347175992981592185
0.579000000000000403,-0.347585026777873562
0.580000000000000404,-0.347954001698185356
0.581000000000000405,-0.348283223440661094
0.582000000000000406,-0.348573003973693785
0.583000000000000407,-0.348823661318935385
0.584000000000000408,-0.349035519336507227
0.585000000000000409,-0.349208907512481737
0.586000000000000409,-0.349344160748681298
0.587000000000000410,-0.349441619154858496
0.588000000000000411,-0.349501627843279594
0.589000000000000412,-0.349524536725779378
0.590000000000000413,-0.349510700313306055
0.591000000000000414,-0.349460477518006907
0.592000000000000415,-0.349374231457884765
0.593000000000000416,-0.349252329264051142
0.594000000000000417,-0.349095141890614746
0.595000000000000417,-0.348903043927225931
0.596000000000000418,-0.348676413414294450
0.597000000000000419,-0.348415631660922265
0.598000000000000420,-0.348121083065539683
0.599000000000000421,-0.347793154939293858
0.600000000000000422,-0.347432237332181870
0.601000000000000423,-0.347038722861942373
0.602000000000000424,-0.346613006545731350
0.603000000000000425,-0.346155485634577986
0.604000000000000425,-0.345666559450620692
0.605000000000000426,-0.345146629227147561
0.606000000000000427,-0.344596097951427371
0.607000000000000428,-0.344015370210335403
0.608000000000000429,-0.343404852038780628
0.609000000000000430,-0.342764950770922672
0.610000000000000431,-0.342096074894182200
0.611000000000000432,-0.341398633906030868
0.612000000000000433,-0.340673038173565368
0.613000000000000433,-0.339919698795848269
0.614000000000000434,-0.339139027469009646
0.615000000000000435,-0.338331436354095405
0.616000000000000436,-0.337497337947659182
