# GoldBrush_BSAI5
# h[nm],U(h)[kJ/mol]
0.149999999999999994,26.391054646117520832
0.150999999999999995,23.867585085157024594
0.151999999999999996,21.123918517670240647
0.152999999999999997,18.462780329119592437
0.153999999999999998,15.983524099489477166
0.154999999999999999,13.693099373630252202
0.156000000000000000,11.564628431600519676
0.157000000000000001,9.565668948197455279
0.158000000000000002,7.669744784235713375
0.159000000000000002,5.859272117867537766
0.160000000000000003,4.124566094049632703
0.161000000000000004,2.461488774787061740
0.162000000000000005,0.869025177235067892
0.163000000000000006,-0.652660405714884706
0.164000000000000007,-2.103535489833912475
0.165000000000000008,-3.484423658232220333
0.166000000000000009,-4.797268913377064514
0.167000000000000010,-6.045084313504492712
0.168000000000000010,-7.231714733390610661
0.169000000000000011,-8.361516484459112775
0.170000000000000012,-9.439027095555818647
0.171000000000000013,-10.468672029510550203
0.172000000000000014,-11.454533651424577911
0.173000000000000015,-12.400191801932487934
0.174000000000000016,-13.308634399544772009
0.175000000000000017,-14.182229749844969646
0.176000000000000018,-15.022748727316919570
0.177000000000000018,-15.831423826409869449
0.178000000000000019,-16.609032489432689061
0.179000000000000020,-17.355993499189970919
0.180000000000000021,-18.072467111043060584
0.181000000000000022,-18.758451660025372121
0.182000000000000023,-19.413871389563222891
0.183000000000000024,-20.038652070095210433
0.184000000000000025,-20.632782533247016943
0.185000000000000026,-21.196361510945116891
0.186000000000000026,-21.729630140973849706
0.187000000000000027,-22.232991202868724656
0.188000000000000028,-22.707016613822013085
0.189000000000000029,-23.152444981612489983
0.190000000000000030,-23.570171119367934409
0.191000000000000031,-23.961229412086183288
0.192000000000000032,-24.326772820429930277
0.193000000000000033,-24.668049141974506711
0.194000000000000034,-24.986375947615137250
0.195000000000000034,-25.283115390331726502
0.196000000000000035,-25.559649859735195321
0.197000000000000036,-25.817359239720804709
0.198000000000000037,-26.057600325792709128
0.199000000000000038,-26.281688778141717222
0.200000000000000039,-26.490883829107968239
0.201000000000000040,-26.686375830286799271
0.202000000000000041,-26.869276614998135244
0.203000000000000042,-27.040612564972043685
0.204000000000000042,-27.201320204112874990
0.205000000000000043,-27.352244094915494799
0.206000000000000044,-27.494136782149080744
0.207000000000000045,-27.627660511378405062
0.208000000000000046,-27.753390444398633008
0.209000000000000047,-27.871819097495325934
0.210000000000000048,-27.983361739562763404
0.211000000000000049,-28.088362503697076988
0.212000000000000050,-28.187100986323848417
0.213000000000000050,-28.279799130852502742
0.214000000000000051,-28.366628217118581290
0.215000000000000052,-28.447715802537281604
0.216000000000000053,-28.523152485190642835
0.217000000000000054,-28.592998382422006642
0.218000000000000055,-28.657289240479418169
0.219000000000000056,-28.716042111025597450
0.220000000000000057,-28.769260548721604209
0.221000000000000058,-28.816939300483149111
0.222000000000000058,-28.859068471374474285
0.223000000000000059,-28.895637164467011360
0.224000000000000060,-28.926636602422018285
0.225000000000000061,-28.952062747163854084
0.226000000000000062,-28.971918440920944704
0.227000000000000063,-28.986215097271717411
0.228000000000000064,-28.994973974794625349
0.229000000000000065,-28.998227068643274151
0.230000000000000066,-28.996017657002528978
0.231000000000000066,-28.988400540082057688
0.232000000000000067,-28.975442009211217709
0.233000000000000068,-28.957219582848193085
0.234000000000000069,-28.933821545029680067
0.235000000000000070,-28.905346320077587308
0.236000000000000071,-28.871901715346233175
0.237000000000000072,-28.833604061527630336
0.238000000000000073,-28.790577277610765350
0.239000000000000073,-28.742951885080639585
0.240000000000000074,-28.690863993403560528
0.241000000000000075,-28.634454276321843480
0.242000000000000076,-28.573866956016168217
0.243000000000000077,-28.509248809817176351
0.244000000000000078,-28.440748211886266006
0.245000000000000079,-28.368514220155173433
0.246000000000000080,-28.292695716831268271
0.247000000000000081,-28.213440608946989130
0.248000000000000081,-28.130895093762841697
0.249000000000000082,-28.045202992326103697
0.250000000000000111,-27.956505153139040942
0.251000000000000112,-27.864938926697998767
0.252000000000000113,-27.770637710623351069
0.253000000000000114,-27.673730564200667459
0.254000000000000115,-27.574341890390666521
0.255000000000000115,-27.472591182727796877
0.256000000000000116,-27.368592834007266390
0.257000000000000117,-27.262456003247798719
0.258000000000000118,-27.154284537101847974
0.259000000000000119,-27.044176941659031854
0.260000000000000120,-26.932226400440253400
0.261000000000000121,-26.818520834301995848
0.262000000000000122,-26.703142998953957488
0.263000000000000123,-26.586170615829210817
0.264000000000000123,-26.467676532128166400
0.265000000000000124,-26.347728905977504610
0.266000000000000125,-26.226391412797774194
0.267000000000000126,-26.103723469150111214
0.268000000000000127,-25.979780470531267156
0.269000000000000128,-25.854614039798910596
0.270000000000000129,-25.728272283133286180
0.271000000000000130,-25.600800050672397390
0.272000000000000131,-25.472239199192614478
0.273000000000000131,-25.342628854441151987
0.274000000000000132,-25.212005670960053294
0.275000000000000133,-25.080404087469865715
0.276000000000000134,-24.947856576103067283
0.277000000000000135,-24.814393883992373446
0.278000000000000136,-24.680045265923922670
0.279000000000000137,-24.544838706961417785
0.280000000000000138,-24.408801134131635990
0.281000000000000139,-24.271958616435377110
0.282000000000000139,-24.134336552609720883
0.283000000000000140,-23.995959846217612466
0.284000000000000141,-23.856853067778935440
0.285000000000000142,-23.717040603783786423
0.286000000000000143,-23.576546792543712883
0.287000000000000144,-23.435396046940180526
0.288000000000000145,-23.293612964222624839
0.289000000000000146,-23.151222423090569436
0.290000000000000147,-23.008249668366651974
0.291000000000000147,-22.864720383630267264
0.292000000000000148,-22.720660752235303903
0.293000000000000149,-22.576097507180765689
0.294000000000000150,-22.431057970340589236
0.295000000000000151,-22.285570081589135327
0.296000000000000152,-22.139662418381877984
0.297000000000000153,-21.993364206368546832
0.298000000000000154,-21.846705321626494367
0.299000000000000155,-21.699716285108980429
0.300000000000000155,-21.552428249904316715
0.301000000000000156,-21.404872981898972029
0.302000000000000157,-21.257082834431489715
0.303000000000000158,-21.109090717514213509
0.304000000000000159,-20.960930062187316025
0.305000000000000160,-20.812634780554095215
0.306000000000000161,-20.664239222029575416
0.307000000000000162,-20.515778126315147745
0.308000000000000163,-20.367286573591211862
0.309000000000000163,-20.218799932398255237
0.310000000000000164,-20.070353805653734725
0.311000000000000165,-19.921983975228791053
0.312000000000000166,-19.773726345484917033
0.313000000000000167,-19.625616886146314499
0.314000000000000168,-19.477691574859523627
0.315000000000000169,-19.329986339767522452
0.316000000000000170,-19.182537002401616633
0.317000000000000171,-19.035379221170565245
0.318000000000000171,-18.888548435703267359
0.319000000000000172,-18.742079812278635842
0.320000000000000173,-18.596008190554151440
0.321000000000000174,-18.450368031783330736
0.322000000000000175,-18.305193368691625722
0.323000000000000176,-18.160517757160562269
0.324000000000000177,-18.016374229851034983
0.325000000000000178,-17.872795251878343947
0.326000000000000179,-17.729812678634729650
0.327000000000000179,-17.587457715838617389
0.328000000000000180,-17.445760881874434745
0.329000000000000181,-17.304751972472679711
0.330000000000000182,-17.164460027765869654
0.331000000000000183,-17.024913301743911376
0.332000000000000184,-16.886139234120129515
0.333000000000000185,-16.748164424608734890
0.334000000000000186,-16.611014609604051628
0.335000000000000187,-16.474714641242830027
0.336000000000000187,-16.339288468822431355
0.337000000000000188,-16.204759122539833527
0.338000000000000189,-16.071148699509819835
0.339000000000000190,-15.938478352013916606
0.340000000000000191,-15.806768277926476429
0.341000000000000192,-15.676037713259422191
0.342000000000000193,-15.546304926762246623
0.343000000000000194,-15.417587216510966641
0.344000000000000195,-15.289900908415720693
0.345000000000000195,-15.163261356574642136
0.346000000000000196,-15.037682945398994860
0.347000000000000197,-14.913179093433068800
0.348000000000000198,-14.789762258790975835
0.349000000000000199,-14.667443946131339061
0.350000000000000200,-14.546234715090671230
0.351000000000000201,-14.426144190095726572
0.352000000000000202,-14.307181071475227441
0.353000000000000203,-14.189353147791971210
0.354000000000000203,-14.072667309316582163
0.355000000000000204,-13.957129562565432579
0.356000000000000205,-13.842745045826053030
0.357000000000000206,-13.729518045594783615
0.358000000000000207,-13.617452013852846093
0.359000000000000208,-13.506549586108585359
0.360000000000000209,-13.396812600135424631
0.361000000000000210,-13.288242115336966975
0.362000000000000210,-13.180838432672482341
0.363000000000000211,-13.074601115078291258
0.364000000000000212,-12.969529008322584929
0.365000000000000213,-12.865620262233260718
0.366000000000000214,-12.762872352240956175
0.367000000000000215,-12.661282101181225102
0.368000000000000216,-12.560845701302620014
0.369000000000000217,-12.461558736429273253
0.370000000000000218,-12.363416204229285000
0.371000000000000218,-12.266412538542223132
0.372000000000000219,-12.170541631721500053
0.373000000000000220,-12.075796856949647662
0.374000000000000221,-11.982171090486763987
0.375000000000000222,-11.889656733814584655
0.376000000000000223,-11.798245735640879417
0.377000000000000224,-11.707929613730993168
0.378000000000000225,-11.618699476535512716
0.379000000000000226,-11.530546044585001653
0.380000000000000226,-11.443459671624889751
0.381000000000000227,-11.357430365465386757
0.382000000000000228,-11.272447808523397228
0.383000000000000229,-11.188501378035150324
0.384000000000000230,-11.105580165919926472
0.385000000000000231,-11.023672998277342927
0.386000000000000232,-10.942768454501901942
0.387000000000000233,-10.862854886000425481
0.388000000000000234,-10.783920434499400187
0.389000000000000234,-10.705953049930839072
0.390000000000000235,-10.628940507886495581
0.391000000000000236,-10.552870426631935530
0.392000000000000237,-10.477730283672901379
0.393000000000000238,-10.403507431868044719
0.394000000000000239,-10.330189115082855977
0.395000000000000240,-10.257762483381151597
0.396000000000000241,-10.186214607751221450
0.397000000000000242,-10.115532494364929406
0.398000000000000242,-10.045703098368957029
0.399000000000000243,-9.976713337208270360
0.400000000000000244,-9.908550103482685500
0.401000000000000245,-9.841200277338380431
0.402000000000000246,-9.774650738396706728
0.403000000000000247,-9.708888377223464872
0.404000000000000248,-9.643900106342540468
0.405000000000000249,-9.579672870798193074
0.406000000000000250,-9.516193658271049571
0.407000000000000250,-9.453449508753228869
0.408000000000000251,-9.391427523788554055
0.409000000000000252,-9.330114875284284182
0.410000000000000253,-9.269498813901048351
0.411000000000000254,-9.209566677028243831
0.412000000000000255,-9.150305896352254109
0.413000000000000256,-9.091704005025354363
0.414000000000000257,-9.033748644443194920
0.415000000000000258,-8.976427570639215148
0.416000000000000258,-8.919728660304409473
0.417000000000000259,-8.863639916441014677
0.418000000000000260,-8.808149473658980710
0.419000000000000261,-8.753245603124003793
0.420000000000000262,-8.698916717166207846
0.421000000000000263,-8.645151373558519481
0.422000000000000264,-8.591938279473795959
0.423000000000000265,-8.539266295129923634
0.424000000000000266,-8.487124437132084864
0.425000000000000266,-8.435501881521298984
0.426000000000000267,-8.384387966538424664
0.427000000000000268,-8.333772195112796766
0.428000000000000269,-8.283644237084500261
0.429000000000000270,-8.233993931169360181
0.430000000000000271,-8.184811286675602204
0.431000000000000272,-8.136086484981003508
0.432000000000000273,-8.087809880779357030
0.433000000000000274,-8.039972003104912446
0.434000000000000274,-7.992563556143316816
0.435000000000000275,-7.945575419837560105
0.436000000000000276,-7.898998650297206936
0.437000000000000277,-7.852824480019036102
0.438000000000000278,-7.807044317927241295
0.439000000000000279,-7.761649749241021468
0.440000000000000280,-7.716632535177270213
0.441000000000000281,-7.671984612496023814
0.442000000000000282,-7.627698092896079807
0.443000000000000282,-7.583765262267997187
0.444000000000000283,-7.540178579811678716
0.445000000000000284,-7.496930677025400946
0.446000000000000285,-7.454014356573066102
0.447000000000000286,-7.411422591036367358
0.448000000000000287,-7.369148521558139819
0.449000000000000288,-7.327185456383330298
0.450000000000000289,-7.285526869303540209
0.451000000000000290,-7.244166398011140373
0.452000000000000290,-7.203097842368672232
0.453000000000000291,-7.162315162599109719
0.454000000000000292,-7.121812477402427177
0.455000000000000293,-7.081584062003638103
0.456000000000000294,-7.041624346137490775
0.457000000000000295,-7.001927911974588525
0.458000000000000296,-6.962489491993811619
0.459000000000000297,-6.923303966805552712
0.460000000000000298,-6.884366362930158800
0.461000000000000298,-6.845671850535950398
0.462000000000000299,-6.807215741140820064
0.463000000000000300,-6.768993485281408873
0.464000000000000301,-6.731000670153704846
0.465000000000000302,-6.693233017228649828
0.466000000000000303,-6.655686379846343925
0.467000000000000304,-6.618356740792131987
0.468000000000000305,-6.581240209857918799
0.469000000000000306,-6.544333021391689265
0.470000000000000306,-6.507631531838311112
0.471000000000000307,-6.471132217274337961
0.472000000000000308,-6.434831670939644255
0.473000000000000309,-6.398726600768349648
0.474000000000000310,-6.362813826921586369
0.475000000000000311,-6.327090279324401934
0.476000000000000312,-6.291552995209057642
0.477000000000000313,-6.256199116666790516
0.478000000000000314,-6.221025888210100163
0.479000000000000314,-6.186030654347431934
0.480000000000000315,-6.151210857172024760
0.481000000000000316,-6.116564033966709779
0.482000000000000317,-6.082087814826151018
0.483000000000000318,-6.047779920298109957
0.484000000000000319,-6.013638159045123999
0.485000000000000320,-5.979660425527928425
0.486000000000000321,-5.945844697711875071
0.487000000000000322,-5.912189034797467713
0.488000000000000322,-5.878691574976150136
0.489000000000000323,-5.845350533212315902
0.490000000000000324,-5.812164199052466174
0.491000000000000325,-5.779130934462409108
0.492000000000000326,-5.746249171693224689
0.493000000000000327,-5.713517411176791683
0.494000000000000328,-5.680934219451463818
0.495000000000000329,-5.648498227118563086
0.496000000000000330,-5.616208126830155578
0.497000000000000330,-5.584062671308650749
0.498000000000000331,-5.552060671398601599
0.499000000000000332,-5.520200994151126750
0.500000000000000333,-5.488482560941231547
0.501000000000000334,-5.456904345618351471
0.502000000000000335,-5.425465372690280397
0.503000000000000336,-5.394164715540759936
0.504000000000000337,-5.363001494680806225
0.505000000000000338,-5.331974876033878985
0.506000000000000338,-5.301084069255023401
0.507000000000000339,-5.270328326083913772
0.508000000000000340,-5.239706938731899299
0.509000000000000341,-5.209219238302941868
0.510000000000000342,-5.178864593248414749
0.511000000000000343,-5.148642407855627212
0.512000000000000344,-5.118552120770004876
0.513000000000000345,-5.088593203550709987
0.514000000000000346,-5.058765159259586142
0.515000000000000346,-5.029067521083176118
0.516000000000000347,-4.999499850987602301
0.517000000000000348,-4.970061738406117868
0.518000000000000349,-4.940752798958949477
0.519000000000000350,-4.911572673205285788
0.520000000000000351,-4.882521025427009498
0.521000000000000352,-4.853597542443915280
0.522000000000000353,-4.824801932460045961
0.523000000000000353,-4.796133923940827160
0.524000000000000354,-4.767593264520657570
0.525000000000000355,-4.739179719940517899
0.526000000000000356,-4.710893073015319565
0.527000000000000357,-4.682733122630528655
0.528000000000000358,-4.654699682767661884
0.529000000000000359,-4.626792581558325068
0.530000000000000360,-4.599011660366291387
0.531000000000000361,-4.571356772897249066
0.532000000000000361,-4.543827784335777054
0.533000000000000362,-4.516424570509117942
0.534000000000000363,-4.489147017077312896
0.535000000000000364,-4.461995018749251862
0.536000000000000365,-4.434968478524202062
0.537000000000000366,-4.408067306958368015
0.538000000000000367,-4.381291421456023905
0.539000000000000368,-4.354640745584785755
0.540000000000000369,-4.328115208414551773
0.541000000000000369,-4.301714743879679226
0.542000000000000370,-4.275439290163930650
0.543000000000000371,-4.249288789107730224
0.544000000000000372,-4.223263185637317285
0.545000000000000373,-4.197362427215300507
0.546000000000000374,-4.171586463312185522
0.547000000000000375,-4.145935244898427463
0.548000000000000376,-4.120408723956582087
0.549000000000000377,-4.095006853013077652
0.550000000000000377,-4.069729584689183888
0.551000000000000378,-4.044576871270751717
0.552000000000000379,-4.019548664296292095
0.553000000000000380,-3.994644914162932992
0.554000000000000381,-3.969865569749866374
0.555000000000000382,-3.945210578058861106
0.556000000000000383,-3.920679883871371452
0.557000000000000384,-3.896273429421913903
0.558000000000000385,-3.871991154087228271
0.559000000000000385,-3.847832994090865100
0.560000000000000386,-3.823798882222773532
0.561000000000000387,-3.799888747573516135
0.562000000000000388,-3.776102515282713235
0.563000000000000389,-3.752440106301320188
0.564000000000000390,-3.728901437167380095
0.565000000000000391,-3.705486419794878028
0.566000000000000392,-3.682194961275302436
0.567000000000000393,-3.659026963691594858
0.568000000000000393,-3.635982323944088712
0.569000000000000394,-3.613060933588104096
0.570000000000000395,-3.590262678682885955
0.571000000000000396,-3.567587439651471293
0.572000000000000397,-3.545035091151231832
0.573000000000000398,-3.522605501954714668
0.574000000000000399,-3.500298534840471376
0.575000000000000400,-3.478114046493574474
0.576000000000000401,-3.456051887415479307
0.577000000000000401,-3.434111901842975101
0.578000000000000402,-3.412293927675859262
0.579000000000000403,-3.390597796413117315
0.580000000000000404,-3.369023333097266537
0.581000000000000405,-3.347570356266609704
0.582000000000000406,-3.326238677915102748
0.583000000000000407,-3.305028103459588973
0.584000000000000408,-3.283938431714126693
0.585000000000000409,-3.262969454871142538
0.586000000000000409,-3.242120958489175475
0.587000000000000410,-3.221392721486945554
0.588000000000000411,-3.200784516143529768
0.589000000000000412,-3.180296108104374131
0.590000000000000413,-3.159927256392949246
0.591000000000000414,-3.139677713427793115
0.592000000000000415,-3.119547225044751571
0.593000000000000416,-3.099535530524160087
0.594000000000000417,-3.079642362622794671
0.595000000000000417,-3.059867447610389313
0.596000000000000418,-3.040210505310457112
0.597000000000000419,-3.020671249145333803
0.598000000000000420,-3.001249386185131041
0.599000000000000421,-2.981944617200501746
0.600000000000000422,-2.962756636719002579
0.601000000000000423,-2.943685133084884775
0.602000000000000424,-2.924729788522140606
0.603000000000000425,-2.905890279200632698
0.604000000000000425,-2.887166275305165897
0.605000000000000426,-2.868557441107326689
0.606000000000000427,-2.850063435039940085
0.607000000000000428,-2.831683909773996977
0.608000000000000429,-2.813418512297906737
