# GoldBrush_BSAI14
# h[nm],U(h)[kJ/mol]
0.149999999999999994,27.158322288634185071
0.150999999999999995,23.354478455841867657
0.151999999999999996,20.407731373373316330
0.152999999999999997,17.818264792664386675
0.153999999999999998,15.366896311209359283
0.154999999999999999,12.979910190854692331
0.156000000000000000,10.650902131051545041
0.157000000000000001,8.398004972523533951
0.158000000000000002,6.242414962467601747
0.159000000000000002,4.199219826047622561
0.160000000000000003,2.274909743804648166
0.161000000000000004,0.468168495136101370
0.162000000000000005,-1.228030224723831276
0.163000000000000006,-2.824096859018137007
0.164000000000000007,-4.331795827199623083
0.165000000000000008,-5.762713626296266156
0.166000000000000009,-7.127249469465115617
0.167000000000000010,-8.434064225395211167
0.168000000000000010,-9.689888439572751366
0.169000000000000011,-10.899585433832832848
0.170000000000000012,-12.066376212102998267
0.171000000000000013,-13.192150211828936435
0.172000000000000014,-14.277804651237095968
0.173000000000000015,-15.323572553027338117
0.174000000000000016,-16.329314188690837284
0.175000000000000017,-17.294758288711378214
0.176000000000000018,-18.219688006517106516
0.177000000000000018,-19.104072663889834160
0.178000000000000019,-19.948150197582620535
0.179000000000000020,-20.752467436318490002
0.180000000000000021,-21.517886291330402315
0.181000000000000022,-22.245564008957209978
0.182000000000000023,-22.936915110148113683
0.183000000000000024,-23.593561763659867125
0.184000000000000025,-24.217278283685072182
0.185000000000000026,-24.809934335672970462
0.186000000000000026,-25.373440363012438326
0.187000000000000027,-25.909697767223018872
0.188000000000000028,-26.420555516489439896
0.189000000000000029,-26.907774135293173856
0.190000000000000030,-27.372997442662153844
0.191000000000000031,-27.817731951039906590
0.192000000000000032,-28.243333499755273408
0.193000000000000033,-28.651000461639590355
0.194000000000000034,-29.041772712581707339
0.195000000000000034,-29.416535476023728535
0.196000000000000035,-29.776027132837782574
0.197000000000000036,-30.120850108376373555
0.198000000000000037,-30.451484001121173151
0.199000000000000038,-30.768300191365682394
0.200000000000000039,-31.071577255566069198
0.201000000000000040,-31.361516605776841971
0.202000000000000041,-31.638257868789310123
0.203000000000000042,-31.901893612305617154
0.204000000000000042,-32.152483112885853700
0.205000000000000043,-32.390064940580451491
0.206000000000000044,-32.614668206925024663
0.207000000000000045,-32.826322385739480580
0.208000000000000046,-33.025065669810167890
0.209000000000000047,-33.210951871257513801
0.210000000000000048,-33.384055909670919959
0.211000000000000049,-33.544477960564634600
0.212000000000000050,-33.692346358118619776
0.213000000000000050,-33.827819361315654589
0.214000000000000051,-33.951085902286493479
0.215000000000000052,-34.062365440728441968
0.216000000000000053,-34.161907049432976180
0.217000000000000054,-34.249987853956923800
0.218000000000000055,-34.326910944950206783
0.219000000000000056,-34.393002875194312651
0.220000000000000057,-34.448610845525841739
0.221000000000000058,-34.494099674964843416
0.222000000000000058,-34.529848640922601533
0.223000000000000059,-34.556248265646047457
0.224000000000000060,-34.573697115333018814
0.225000000000000061,-34.582598668834990008
0.226000000000000062,-34.583358303720061144
0.227000000000000063,-34.576380438823704822
0.228000000000000064,-34.562065864360889123
0.229000000000000065,-34.540809283271244112
0.230000000000000066,-34.512997080753962109
0.231000000000000066,-34.479005332937518347
0.232000000000000067,-34.439198060316748240
0.233000000000000068,-34.393925726961256828
0.234000000000000069,-34.343523982527315752
0.235000000000000070,-34.288312640755279403
0.236000000000000071,-34.228594885365041023
0.237000000000000072,-34.164656692029709006
0.238000000000000073,-34.096766453365532357
0.239000000000000073,-34.025174792574496507
0.240000000000000074,-33.950114550472079600
0.241000000000000075,-33.871800930075842473
0.242000000000000076,-33.790431782678510331
0.243000000000000077,-33.706188019340260098
0.244000000000000078,-33.619234131968241286
0.245000000000000079,-33.529718808571075783
0.246000000000000080,-33.437775627848090210
0.247000000000000081,-33.343523818967703676
0.248000000000000081,-33.247069073177314635
0.249000000000000082,-33.148504394745472723
0.250000000000000111,-33.047910979643404517
0.251000000000000112,-32.945359111307226385
0.252000000000000113,-32.840909063770510556
0.253000000000000114,-32.734612003401160507
0.254000000000000115,-32.626510881409657827
0.255000000000000115,-32.516641310202949455
0.256000000000000116,-32.405032417535366562
0.257000000000000117,-32.291707673246378363
0.258000000000000118,-32.176685684170124091
0.259000000000000119,-32.059980953550436311
0.260000000000000120,-31.941604601994576740
0.261000000000000121,-31.821565047646959812
0.262000000000000122,-31.699868643861929485
0.263000000000000123,-31.576520273199594868
0.264000000000000123,-31.451523897064106450
0.265000000000000124,-31.324883060748920371
0.266000000000000125,-31.196601354051040289
0.267000000000000126,-31.066682827967390779
0.268000000000000127,-30.935132368294254945
0.269000000000000128,-30.801956027216210288
0.270000000000000129,-30.667161314198530420
0.271000000000000130,-30.530757447687097539
0.272000000000000131,-30.392755569276886263
0.273000000000000131,-30.253168922135962760
0.274000000000000132,-30.112012995568356644
0.275000000000000133,-29.969305637671038056
0.276000000000000134,-29.825067138087103302
0.277000000000000135,-29.679320282884226856
0.278000000000000136,-29.532090383594226779
0.279000000000000137,-29.383405282441223960
0.280000000000000138,-29.233295335761056322
0.281000000000000139,-29.081793377578719628
0.282000000000000139,-28.928934665262364234
0.283000000000000140,-28.774756809115729084
0.284000000000000141,-28.619299687706114099
0.285000000000000142,-28.462605350653735314
0.286000000000000143,-28.304717910532296798
0.287000000000000144,-28.145683425450283011
0.288000000000000145,-27.985549773800055817
0.289000000000000146,-27.824366522576259086
0.290000000000000147,-27.662184790579857463
0.291000000000000147,-27.499057107737723271
0.292000000000000148,-27.335037271681947857
0.293000000000000149,-27.170180202648232637
0.294000000000000150,-27.004541797669634917
0.295000000000000151,-26.838178784960412315
0.296000000000000152,-26.671148579305327786
0.297000000000000153,-26.503509139194090238
0.298000000000000154,-26.335318826365615053
0.299000000000000155,-26.166636268357372330
0.300000000000000155,-25.997520224586747162
0.301000000000000156,-25.828029456427422872
0.302000000000000157,-25.658222601682872721
0.303000000000000158,-25.488158053801623026
0.304000000000000159,-25.317893846125016921
0.305000000000000160,-25.147487541407105738
0.306000000000000161,-24.976996126799686948
0.307000000000000162,-24.806475914451016962
0.308000000000000163,-24.635982447826304309
0.309000000000000163,-24.465570413820227458
0.310000000000000164,-24.295293560697651003
0.311000000000000165,-24.125204621866686239
0.312000000000000166,-23.955355245459895031
0.313000000000000167,-23.785795929673287930
0.314000000000000168,-23.616575963789337322
0.315000000000000169,-23.447743374789478565
0.316000000000000170,-23.279344879442817273
0.317000000000000171,-23.111425841741514375
0.318000000000000171,-22.944030235539109697
0.319000000000000172,-22.777200612235503741
0.320000000000000173,-22.610978073342206329
0.321000000000000174,-22.445402247752348046
0.322000000000000175,-22.280511273533004868
0.323000000000000176,-22.116341784051765984
0.324000000000000177,-21.952928898244884692
0.325000000000000178,-21.790306214831534959
0.326000000000000179,-21.628505810276777765
0.327000000000000179,-21.467558240304839501
0.328000000000000180,-21.307492544764489395
0.329000000000000181,-21.148336255649478943
0.330000000000000182,-20.990115408078246162
0.331000000000000183,-20.832854554040256545
0.332000000000000184,-20.676576778718700922
0.333000000000000185,-20.521303719203551452
0.334000000000000186,-20.367055585412586538
0.335000000000000187,-20.213851183042791604
0.336000000000000187,-20.061707938379537808
0.337000000000000188,-19.910641924795733360
0.338000000000000189,-19.760667890779135547
0.339000000000000190,-19.611799289331280249
0.340000000000000191,-19.464048308587329927
0.341000000000000192,-19.317425903512553731
0.342000000000000193,-19.171941828536493091
0.343000000000000194,-19.027604670992520397
0.344000000000000195,-18.884421885236420735
0.345000000000000195,-18.742399827323669825
0.346000000000000196,-18.601543790131266576
0.347000000000000197,-18.461858038816011174
0.348000000000000198,-18.323345846507002932
0.349000000000000199,-18.186009530136047374
0.350000000000000200,-18.049850486315499154
0.351000000000000201,-17.914869227178535027
0.352000000000000202,-17.781065416102471488
0.353000000000000203,-17.648437903241223523
0.354000000000000203,-17.516984760797932097
0.355000000000000204,-17.386703317974106398
0.356000000000000205,-17.257590195536433697
0.357000000000000206,-17.129641339947106360
0.358000000000000207,-17.002852057008070119
0.359000000000000208,-16.877217044974130999
0.360000000000000209,-16.752730427093787569
0.361000000000000210,-16.629385783540961086
0.362000000000000210,-16.507176182704466072
0.363000000000000211,-16.386094211805865228
0.364000000000000212,-16.266132006819688627
0.365000000000000213,-16.147281281673556919
0.366000000000000214,-16.029533356708732583
0.367000000000000215,-15.912879186384667918
0.368000000000000216,-15.797309386213902016
0.369000000000000217,-15.682814258916556227
0.370000000000000218,-15.569383819785764800
0.371000000000000218,-15.457007821258248015
0.372000000000000219,-15.345675776685954617
0.373000000000000220,-15.235376983307187260
0.374000000000000221,-15.126100544417306892
0.375000000000000222,-15.017835390740970070
0.376000000000000223,-14.910570301009551386
0.377000000000000224,-14.804293921748953977
0.378000000000000225,-14.698994786284373504
0.379000000000000226,-14.594661332969943501
0.380000000000000226,-14.491281922652461844
0.381000000000000227,-14.388844855379222309
0.382000000000000228,-14.287338386361401632
0.383000000000000229,-14.186750741204937398
0.384000000000000230,-14.087070130421874836
0.385000000000000231,-13.988284763235856900
0.386000000000000232,-13.890382860696032452
0.387000000000000233,-13.793352668114181370
0.388000000000000234,-13.697182466840454040
0.389000000000000234,-13.601860585393509950
0.390000000000000235,-13.507375409961076329
0.391000000000000236,-13.413715394287454075
0.392000000000000237,-13.320869068964515947
0.393000000000000238,-13.228825050143152353
0.394000000000000239,-13.137572047681970844
0.395000000000000240,-13.047098872750430232
0.396000000000000241,-12.957394444903467701
0.397000000000000242,-12.868447798644623958
0.398000000000000242,-12.780248089494865127
0.399000000000000243,-12.692784599583934124
0.400000000000000244,-12.606046742781174430
0.401000000000000245,-12.520024069382563070
0.402000000000000246,-12.434706270370538661
0.403000000000000247,-12.350083181262892396
0.404000000000000248,-12.266144785567075104
0.405000000000000249,-12.182881217855728195
0.406000000000000250,-12.100282766479178775
0.407000000000000250,-12.018339875930326599
0.408000000000000251,-11.937043148877021892
0.409000000000000252,-11.856383347876903400
0.410000000000000253,-11.776351396789058512
0.411000000000000254,-11.696938381896906378
0.412000000000000255,-11.618135552756085005
0.413000000000000256,-11.539934322781025600
0.414000000000000257,-11.462326269583313021
0.415000000000000258,-11.385303135074845926
0.416000000000000258,-11.308856825348296837
0.417000000000000259,-11.232979410347027738
0.418000000000000260,-11.157663123336426736
0.419000000000000261,-11.082900360187974087
0.420000000000000262,-11.008683678487406254
0.421000000000000263,-10.935005796477607731
0.422000000000000264,-10.861859591846727113
0.423000000000000265,-10.789238100371630225
0.424000000000000266,-10.717134514426472691
0.425000000000000266,-10.645542181365726719
0.426000000000000267,-10.574454601790813868
0.427000000000000268,-10.503865427709087044
0.428000000000000269,-10.433768460593528360
0.429000000000000270,-10.364157649351335877
0.430000000000000271,-10.295027088209085520
0.431000000000000272,-10.226371014522054992
0.432000000000000273,-10.158183806514752945
0.433000000000000274,-10.090459980959600728
0.434000000000000274,-10.023194190800293057
0.435000000000000275,-9.956381222726125912
0.436000000000000276,-9.890015994703343694
0.437000000000000277,-9.824093553469111839
0.438000000000000278,-9.758609071993719297
0.439000000000000279,-9.693557846916149856
0.440000000000000280,-9.628935295957916196
0.441000000000000281,-9.564736955319945721
0.442000000000000282,-9.500958477066973273
0.443000000000000282,-9.437595626503602730
0.444000000000000283,-9.374644279546089365
0.445000000000000284,-9.312100420093690545
0.446000000000000285,-9.249960137402990057
0.447000000000000286,-9.188219623468814490
0.448000000000000287,-9.126875170414642469
0.449000000000000288,-9.065923167895736157
0.450000000000000289,-9.005360100517616928
0.451000000000000290,-8.945182545272611918
0.452000000000000290,-8.885387168996853546
0.453000000000000291,-8.825970725850053711
0.454000000000000292,-8.766930054820193163
0.455000000000000293,-8.708262077255021438
0.456000000000000294,-8.649963794422292906
0.457000000000000295,-8.592032285100332345
0.458000000000000296,-8.534464703200539404
0.459000000000000297,-8.477258275423244172
0.460000000000000298,-8.420410298948139527
0.461000000000000298,-8.363918139160562149
0.462000000000000299,-8.307779227414631151
0.463000000000000300,-8.251991058834187598
0.464000000000000301,-8.196551190152394639
0.465000000000000302,-8.141457237590778107
0.466000000000000303,-8.086706874778311516
0.467000000000000304,-8.032297830711110365
0.468000000000000305,-7.978227887753289060
0.469000000000000306,-7.924494879679270909
0.470000000000000306,-7.871096689757972165
0.471000000000000307,-7.818031248878990702
0.472000000000000308,-7.765296533721146588
0.473000000000000309,-7.712890564963275963
0.474000000000000310,-7.660811405537518048
0.475000000000000311,-7.609057158924938946
0.476000000000000312,-7.557625967493597940
0.477000000000000313,-7.506516010878702794
0.478000000000000314,-7.455725504404926873
0.479000000000000314,-7.405252697550556817
0.480000000000000315,-7.355095872453182082
0.481000000000000316,-7.305253342456778043
0.482000000000000317,-7.255723450699681720
0.483000000000000318,-7.206504568743217654
0.484000000000000319,-7.157595095240526284
0.485000000000000320,-7.108993454645174737
0.486000000000000321,-7.060698095959099696
0.487000000000000322,-7.012707491519390324
0.488000000000000322,-6.965020135823411174
0.489000000000000323,-6.917634544391754403
0.490000000000000324,-6.870549252668462614
0.491000000000000325,-6.823762814957964551
0.492000000000000326,-6.777273803398119689
0.493000000000000327,-6.731080806968842367
0.494000000000000328,-6.685182430535607345
0.495000000000000329,-6.639577293927334090
0.496000000000000330,-6.594264031047906371
0.497000000000000330,-6.549241289020767631
0.498000000000000331,-6.504507727365935743
0.499000000000000332,-6.460062017208779039
0.500000000000000333,-6.415902840519896344
0.501000000000000334,-6.372028889385466854
0.502000000000000335,-6.328438865307369987
0.503000000000000336,-6.285131478532487215
0.504000000000000337,-6.242105447410431829
0.505000000000000338,-6.199359497779132866
0.506000000000000338,-6.156892362377537786
0.507000000000000339,-6.114702780284842376
0.508000000000000340,-6.072789496385540886
0.509000000000000341,-6.031151260859678231
0.510000000000000342,-5.989786828697634569
0.511000000000000343,-5.948694959238809865
0.512000000000000344,-5.907874415733566309
0.513000000000000345,-5.867323964927779301
0.514000000000000346,-5.827042376669415269
0.515000000000000346,-5.787028423536453303
0.516000000000000347,-5.747280880485575061
0.517000000000000348,-5.707798524521040306
0.518000000000000349,-5.668580134383055302
0.519000000000000350,-5.629624490255153546
0.520000000000000351,-5.590930373489937821
0.521000000000000352,-5.552496566352632890
0.522000000000000353,-5.514321851781867956
0.523000000000000353,-5.476405013167121361
0.524000000000000354,-5.438744834142362983
0.525000000000000355,-5.401340098395190026
0.526000000000000356,-5.364189589491120458
0.527000000000000357,-5.327292090712374417
0.528000000000000358,-5.290646384910699496
0.529000000000000359,-5.254251254373726532
0.530000000000000360,-5.218105480704371857
0.531000000000000361,-5.182207844712801936
0.532000000000000361,-5.146557126320457698
0.533000000000000362,-5.111152104475740643
0.534000000000000363,-5.075991557080850924
0.535000000000000364,-5.041074260929351070
0.536000000000000365,-5.006398991654052111
0.537000000000000366,-4.971964523684758497
0.538000000000000367,-4.937769630215486316
0.539000000000000368,-4.903813083180750709
0.540000000000000369,-4.870093653240489928
0.541000000000000369,-4.836610109773327615
0.542000000000000370,-4.803361220877719440
0.543000000000000371,-4.770345753380627940
0.544000000000000372,-4.737562472853443118
0.545000000000000373,-4.705010143634714481
0.546000000000000374,-4.672687528859404082
0.547000000000000375,-4.640593390494315962
0.548000000000000376,-4.608726489379423086
0.549000000000000377,-4.577085585274745405
0.550000000000000377,-4.545669436912440631
0.551000000000000378,-4.514476802053929205
0.552000000000000379,-4.483506437551660895
0.553000000000000380,-4.452757099415307174
0.554000000000000381,-4.422227542882080975
0.555000000000000382,-4.391916522490977748
0.556000000000000383,-4.361822792160593210
0.557000000000000384,-4.331945105270390783
0.558000000000000385,-4.302282214745091871
0.559000000000000385,-4.272832873142013987
0.560000000000000386,-4.243595832741102747
0.561000000000000387,-4.214569845637482715
0.562000000000000388,-4.185753663836293548
0.563000000000000389,-4.157146039349618682
0.564000000000000390,-4.128745724295318276
0.565000000000000391,-4.100551470997590542
0.566000000000000392,-4.072562032089074080
0.567000000000000393,-4.044776160614314442
0.568000000000000393,-4.017192610134446618
0.569000000000000394,-3.989810134832908695
0.570000000000000395,-3.962627489622081445
0.571000000000000396,-3.935643430250637120
0.572000000000000397,-3.908856713411524630
0.573000000000000398,-3.882266096850419679
0.574000000000000399,-3.855870339474500419
0.575000000000000400,-3.829668201461460253
0.576000000000000401,-3.803658444368606784
0.577000000000000401,-3.777839831241956770
0.578000000000000402,-3.752211126725175205
0.579000000000000403,-3.726771097168318114
0.580000000000000404,-3.701518510736218737
0.581000000000000405,-3.676452137516476260
0.582000000000000406,-3.651570749626887213
0.583000000000000407,-3.626873121322307103
0.584000000000000408,-3.602358029100814374
0.585000000000000409,-3.578024251809107881
0.586000000000000409,-3.553870570747070357
0.587000000000000410,-3.529895769771420166
0.588000000000000411,-3.506098635398390506
0.589000000000000412,-3.482477956905371208
0.590000000000000413,-3.459032526431440768
0.591000000000000414,-3.435761139076762394
0.592000000000000415,-3.412662593000764133
0.593000000000000416,-3.389735689519055573
0.594000000000000417,-3.366979233199050903
0.595000000000000417,-3.344392031954256161
0.596000000000000418,-3.321972897137129621
0.597000000000000419,-3.299720643630572603
0.598000000000000420,-3.277634089937914830
0.599000000000000421,-3.255712058271423182
0.600000000000000422,-3.233953374639303213
0.601000000000000423,-3.212356868931121934
0.602000000000000424,-3.190921375001685156
0.603000000000000425,-3.169645730753285928
0.604000000000000425,-3.148528778216369783
0.605000000000000426,-3.127569363628530663
0.606000000000000427,-3.106766337511884579
0.607000000000000428,-3.086118554748739307
