# GoldBrush_BSAIV3
# h[nm],U(h)[kJ/mol]
0.149999999999999994,29.093503541729639039
0.150999999999999995,26.009156307661886132
0.151999999999999996,22.986807334527107116
0.152999999999999997,20.176875266426076649
0.153999999999999998,17.599326105637491224
0.154999999999999999,15.223404270286328810
0.156000000000000000,13.007166370178016024
0.157000000000000001,10.914481244211430067
0.158000000000000002,8.920168512339410327
0.159000000000000002,7.009508312386815376
0.160000000000000003,5.175592764237978649
0.161000000000000004,3.416315877092492848
0.162000000000000005,1.731819570216587278
0.163000000000000006,0.122669114911712993
0.164000000000000007,-1.411248129802199713
0.165000000000000008,-2.871230412361903461
0.166000000000000009,-4.259841952049472802
0.167000000000000010,-5.580723889441328467
0.168000000000000010,-6.838265686471126870
0.169000000000000011,-8.037233228293157339
0.170000000000000012,-9.182418123988103531
0.171000000000000013,-10.278346137848354047
0.172000000000000014,-11.329062300571086652
0.173000000000000015,-12.337995790531396167
0.174000000000000016,-13.307898291695014592
0.175000000000000017,-14.240844180443597011
0.176000000000000018,-15.138278538503021409
0.177000000000000018,-16.001098725331807771
0.178000000000000019,-16.829756326125529853
0.179000000000000020,-17.624368143996512970
0.180000000000000021,-18.384827102478524807
0.181000000000000022,-19.110906172078028220
0.182000000000000023,-19.802350540625933917
0.183000000000000024,-20.458955099672209599
0.184000000000000025,-21.080625864470867725
0.185000000000000026,-21.667425170424110092
0.186000000000000026,-22.219601408312080082
0.187000000000000027,-22.737604704631287689
0.188000000000000028,-23.222090360748314453
0.189000000000000029,-23.673912077101398665
0.190000000000000030,-24.094107047285810097
0.191000000000000031,-24.483874949322704140
0.192000000000000032,-24.844552721057748812
0.193000000000000033,-25.177586811759603336
0.194000000000000034,-25.484504375788986863
0.195000000000000034,-25.766884635062002218
0.196000000000000035,-26.026331398938488348
0.197000000000000036,-26.264447503324685584
0.198000000000000037,-26.482811722165774171
0.199000000000000038,-26.682958518456491248
0.200000000000000039,-26.866360840652355080
0.201000000000000040,-27.034416034537496643
0.202000000000000041,-27.188434829606574539
0.203000000000000042,-27.329633271408500406
0.204000000000000042,-27.459127405072102590
0.205000000000000043,-27.577930468051658153
0.206000000000000044,-27.686952319506126230
0.207000000000000045,-27.787000817155313115
0.208000000000000046,-27.878784847524457291
0.209000000000000047,-27.962918719930780043
0.210000000000000048,-28.039927646320244037
0.211000000000000049,-28.110254046287469265
0.212000000000000050,-28.174264437703623543
0.213000000000000050,-28.232256696958017983
0.214000000000000051,-28.284467497742049602
0.215000000000000052,-28.331079762622515261
0.216000000000000053,-28.372229986613540120
0.217000000000000054,-28.408015315976406612
0.218000000000000055,-28.438500288121208115
0.219000000000000056,-28.463723159441535415
0.220000000000000057,-28.483701766989433679
0.221000000000000058,-28.498438886977403683
0.222000000000000058,-28.507927068146518224
0.223000000000000059,-28.512152931083182494
0.224000000000000060,-28.511100935671358059
0.225000000000000061,-28.504756628133058882
0.226000000000000062,-28.493109386662119675
0.227000000000000063,-28.476154690637077493
0.228000000000000064,-28.453895942956211940
0.229000000000000065,-28.426345878327701655
0.230000000000000066,-28.393527592519511416
0.231000000000000066,-28.355475228778345809
0.232000000000000067,-28.312234358003138368
0.233000000000000068,-28.263862088940705064
0.234000000000000069,-28.210426943780117170
0.235000000000000070,-28.152008533171262172
0.236000000000000071,-28.088697062980941155
0.237000000000000072,-28.020592703118712308
0.238000000000000073,-27.947804846591122185
0.239000000000000073,-27.870451284647010937
0.240000000000000074,-27.788657321517053589
0.241000000000000075,-27.702554849876669607
0.242000000000000076,-27.612281405814712798
0.243000000000000077,-27.517979219804999502
0.244000000000000078,-27.419794277980571451
0.245000000000000079,-27.317875405921835608
0.246000000000000080,-27.212373385206149123
0.247000000000000081,-27.103440111137889090
0.248000000000000081,-26.991227798391957293
0.249000000000000082,-26.875888239762531384
0.250000000000000111,-26.757572121815133670
0.251000000000000112,-26.636428399988943738
0.252000000000000113,-26.512603734587493420
0.253000000000000114,-26.386241988120303859
0.254000000000000115,-26.257483783613047024
0.255000000000000115,-26.126466122778367662
0.256000000000000116,-25.993322062328637401
0.257000000000000117,-25.858180446205626168
0.258000000000000118,-25.721165691091435690
0.259000000000000119,-25.582397622243746582
0.260000000000000120,-25.441991356455002204
0.261000000000000121,-25.300057228763723316
0.262000000000000122,-25.156700759437729431
0.263000000000000123,-25.012022657695844430
0.264000000000000123,-24.866118858630649413
0.265000000000000124,-24.719080589831516903
0.266000000000000125,-24.570994464280389025
0.267000000000000126,-24.421942596194732289
0.268000000000000127,-24.272002736619189278
0.269000000000000128,-24.121248425713652352
0.270000000000000129,-23.969749158847218240
0.271000000000000130,-23.817570563780378734
0.272000000000000131,-23.664774586398777956
0.273000000000000131,-23.511419682647510143
0.274000000000000132,-23.357561014502692842
0.275000000000000133,-23.203250648004772216
0.276000000000000134,-23.048537751563383580
0.277000000000000135,-22.893468792925308009
0.278000000000000136,-22.738087733373237853
0.279000000000000137,-22.582436217893050667
0.280000000000000138,-22.426553760209866795
0.281000000000000139,-22.270477921747431793
0.282000000000000139,-22.114244483711587463
0.283000000000000140,-21.957887611635168668
0.284000000000000141,-21.801440011849578582
0.285000000000000142,-21.644933079466735393
0.286000000000000143,-21.488397037564016756
0.287000000000000144,-21.331861067364997098
0.288000000000000145,-21.175353429299661912
0.289000000000000146,-21.018901574909882868
0.290000000000000147,-20.862532249639748727
0.291000000000000147,-20.706271586615820013
0.292000000000000148,-20.550145191580433846
0.293000000000000149,-20.394178219191338997
0.294000000000000150,-20.238395440944906056
0.295000000000000151,-20.082821305016729241
0.296000000000000152,-19.927479988344778405
0.297000000000000153,-19.772395441305544495
0.298000000000000154,-19.617591425353332113
0.299000000000000155,-19.463091544008779721
0.300000000000000155,-19.308919267593122271
0.301000000000000156,-19.155097952111997728
0.302000000000000157,-19.001650852695597393
0.303000000000000158,-18.848601132002631431
0.304000000000000159,-18.695971863992202344
0.305000000000000160,-18.543786033462939855
0.306000000000000161,-18.392066531750806746
0.307000000000000162,-18.240836148967851216
0.308000000000000163,-18.090117563152738001
0.309000000000000163,-17.939933326691708260
0.310000000000000164,-17.790305850354545925
0.311000000000000165,-17.641257385275686431
0.312000000000000166,-17.492810003195288004
0.313000000000000167,-17.344985575258778709
0.314000000000000168,-17.197805749657344876
0.315000000000000169,-17.051291928374993745
0.316000000000000170,-16.905465243291196487
0.317000000000000171,-16.760346531871316955
0.318000000000000171,-16.615956312660436822
0.319000000000000172,-16.472314760779738663
0.320000000000000173,-16.329441683608614255
0.321000000000000174,-16.187356496819763407
0.322000000000000175,-16.046078200919222212
0.323000000000000176,-15.905625358428704175
0.324000000000000177,-15.766016071832819279
0.325000000000000178,-15.627267962400448909
0.326000000000000179,-15.489398149976091545
0.327000000000000179,-15.352423233824524118
0.328000000000000180,-15.216359274600133489
0.329000000000000181,-15.081221777501109926
0.330000000000000182,-14.947025676657673898
0.331000000000000183,-14.813785320793911637
0.332000000000000184,-14.681514460193000104
0.333000000000000185,-14.550226234987075458
0.334000000000000186,-14.419933164784717761
0.335000000000000187,-14.290647139641432517
0.336000000000000187,-14.162379412371715048
0.337000000000000188,-14.035140592194622400
0.338000000000000189,-13.908940639699213904
0.339000000000000190,-13.783788863110652656
0.340000000000000191,-13.659693915833093669
0.341000000000000192,-13.536663795241304697
0.342000000000000193,-13.414705842688761095
0.343000000000000194,-13.293826744696985998
0.344000000000000195,-13.174032535287608425
0.345000000000000195,-13.055328599416341717
0.346000000000000196,-12.937719677465565837
0.347000000000000197,-12.821209870750710280
0.348000000000000198,-12.705802647993929000
0.349000000000000199,-12.591500852717382841
0.350000000000000200,-12.478306711507729077
0.351000000000000201,-12.366221843102563227
0.352000000000000202,-12.255247268249386039
0.353000000000000203,-12.145383420287441112
0.354000000000000203,-12.036630156402869929
0.355000000000000204,-11.928986769507844201
0.356000000000000205,-11.822452000694985585
0.357000000000000206,-11.717024052218668828
0.358000000000000207,-11.612700600955850661
0.359000000000000208,-11.509478812299832384
0.360000000000000209,-11.407355354441358841
0.361000000000000210,-11.306326412992547148
0.362000000000000210,-11.206387705910413999
0.363000000000000211,-11.107534498677942736
0.364000000000000212,-11.009761619702052471
0.365000000000000213,-10.913063475889117626
0.366000000000000214,-10.817434068360254784
0.367000000000000215,-10.722867008269972189
0.368000000000000216,-10.629355532693283592
0.369000000000000217,-10.536892520547956664
0.370000000000000218,-10.445470508520138253
0.371000000000000218,-10.355081706962929289
0.372000000000000219,-10.265718015739327740
0.373000000000000220,-10.177371039982245904
0.374000000000000221,-10.090032105745979862
0.375000000000000222,-10.003692275524921129
0.376000000000000223,-9.918342363616829971
0.377000000000000224,-9.833972951309510435
0.378000000000000225,-9.750574401871073604
0.379000000000000226,-9.668136875325352264
0.380000000000000226,-9.586650342995696406
0.381000000000000227,-9.506104601801165899
0.382000000000000228,-9.426489288291120872
0.383000000000000229,-9.347793892404904881
0.384000000000000230,-9.270007770944795666
0.385000000000000231,-9.193120160751714565
0.386000000000000232,-9.117120191573969024
0.387000000000000233,-9.041996898620729084
0.388000000000000234,-8.967739234792837522
0.389000000000000234,-8.894336082584684888
0.390000000000000235,-8.821776265651616100
0.391000000000000236,-8.750048560038628409
0.392000000000000237,-8.679141705066628631
0.393000000000000238,-8.609044413873681023
0.394000000000000239,-8.539745383609227858
0.395000000000000240,-8.471233305280202686
0.396000000000000241,-8.403496873248597510
0.397000000000000242,-8.336524794380697045
0.398000000000000242,-8.270305796848933966
0.399000000000000243,-8.204828638587791545
0.400000000000000244,-8.140082115405869345
0.401000000000000245,-8.076055068756620159
0.402000000000000246,-8.012736393170975191
0.403000000000000247,-7.950115043355164168
0.404000000000000248,-7.888180040957919914
0.405000000000000249,-7.826920481011248043
0.406000000000000250,-7.766325538049561494
0.407000000000000250,-7.706384471912157252
0.408000000000000251,-7.647086633234385644
0.409000000000000252,-7.588421468633173461
0.410000000000000253,-7.530378525592626993
0.411000000000000254,-7.472947457055947318
0.412000000000000255,-7.416118025729791619
0.413000000000000256,-7.359880108107605956
0.414000000000000257,-7.304223698218480720
0.415000000000000258,-7.249138911108232719
0.416000000000000258,-7.194615986059609725
0.417000000000000259,-7.140645289558426256
0.418000000000000260,-7.087217318012742240
0.419000000000000261,-7.034322700231972370
0.420000000000000262,-6.981952199673154169
0.421000000000000263,-6.930096716461372708
0.422000000000000264,-6.878747289191475822
0.423000000000000265,-6.827895096518162177
0.424000000000000266,-6.777531458541564469
0.425000000000000266,-6.727647837995343494
0.426000000000000267,-6.678235841244253734
0.427000000000000268,-6.629287219098259243
0.428000000000000269,-6.580793867449949985
0.429000000000000270,-6.532747827742168667
0.430000000000000271,-6.485141287272583099
0.431000000000000272,-6.437966579341809492
0.432000000000000273,-6.391216183251699157
0.433000000000000274,-6.344882724160255449
0.434000000000000274,-6.298958972799473699
0.435000000000000275,-6.253437845062443046
0.436000000000000276,-6.208312401465784447
0.437000000000000277,-6.163575846493442256
0.438000000000000278,-6.119221527827741980
0.439000000000000279,-6.075242935473490036
0.440000000000000280,-6.031633700780707485
0.441000000000000281,-5.988387595371543526
0.442000000000000282,-5.945498529976756430
0.443000000000000282,-5.902960553186955117
0.444000000000000283,-5.860767850123737688
0.445000000000000284,-5.818914741035716709
0.446000000000000285,-5.777395679824192776
0.447000000000000286,-5.736205252503289387
0.448000000000000287,-5.695338175598950059
0.449000000000000288,-5.654789294491388674
0.450000000000000289,-5.614553581705147067
0.451000000000000290,-5.574626135150980488
0.452000000000000290,-5.535002176323549961
0.453000000000000291,-5.495677048458829539
0.454000000000000292,-5.456646214654962357
0.455000000000000293,-5.417905255960168809
0.456000000000000294,-5.379449869431235598
0.457000000000000295,-5.341275866165883457
0.458000000000000296,-5.303379169312309571
0.459000000000000297,-5.265755812058979579
0.460000000000000298,-5.228401935607643658
0.461000000000000298,-5.191313787132472157
0.462000000000000299,-5.154487717728053475
0.463000000000000300,-5.117920180348856540
0.464000000000000301,-5.081607727742709635
0.465000000000000302,-5.045547010380701636
0.466000000000000303,-5.009734774385769640
0.467000000000000304,-4.974167859462196972
0.468000000000000305,-4.938843196828119453
0.469000000000000306,-4.903757807152968162
0.470000000000000306,-4.868908798501823121
0.471000000000000307,-4.834293364288365424
0.472000000000000308,-4.799908781238248601
0.473000000000000309,-4.765752407364365340
0.474000000000000310,-4.731821679955626081
0.475000000000000311,-4.698114113580616369
0.476000000000000312,-4.664627298107558495
0.477000000000000313,-4.631358896741721409
0.478000000000000314,-4.598306644081588956
0.479000000000000314,-4.565468344194832717
0.480000000000000315,-4.532841868715116185
0.481000000000000316,-4.500425154960761454
0.482000000000000317,-4.468216204076087550
0.483000000000000318,-4.436213079196328124
0.484000000000000319,-4.404413903636835492
0.485000000000000320,-4.372816859107318876
0.486000000000000321,-4.341420183951732348
0.487000000000000322,-4.310222171414411108
0.488000000000000322,-4.279221167932959702
0.489000000000000323,-4.248415571458429518
0.490000000000000324,-4.217803829803147053
0.491000000000000325,-4.187384439016609505
0.492000000000000326,-4.157155941789734577
0.493000000000000327,-4.127116925887835741
0.494000000000000328,-4.097266022612434888
0.495000000000000329,-4.067601905292246300
0.496000000000000330,-4.038123287803379924
0.497000000000000330,-4.008828923118962884
0.498000000000000331,-3.979717601888220990
0.499000000000000332,-3.950788151045110830
0.500000000000000333,-3.922039432446445595
0.501000000000000334,-3.893470341539627899
0.502000000000000335,-3.865079806059788403
0.503000000000000336,-3.836866784756423954
0.504000000000000337,-3.808830266149301647
0.505000000000000338,-3.780969267313599946
0.506000000000000338,-3.753282832694075033
0.507000000000000339,-3.725770032948137356
0.508000000000000340,-3.698429963817608357
0.509000000000000341,-3.671261745028981061
0.510000000000000342,-3.644264519221918963
0.511000000000000343,-3.617437450905788499
0.512000000000000344,-3.590779725443911552
0.513000000000000345,-3.564290548065328412
0.514000000000000346,-3.537969142903703901
0.515000000000000346,-3.511814752063129763
0.516000000000000347,-3.485826634710471161
0.517000000000000348,-3.460004066193962835
0.518000000000000349,-3.434346337187645926
0.519000000000000350,-3.408852752861387447
0.520000000000000351,-3.383522632076069847
0.521000000000000352,-3.358355306603572732
0.522000000000000353,-3.333350120371224357
0.523000000000000353,-3.308506428730279225
0.524000000000000354,-3.283823597748116274
0.525000000000000355,-3.259301003523674467
0.526000000000000356,-3.234938031525811830
0.527000000000000357,-3.210734075954142064
0.528000000000000358,-3.186688539121964592
0.529000000000000359,-3.162800830860869272
0.530000000000000360,-3.139070367946633411
0.531000000000000361,-3.115496573545985193
0.532000000000000361,-3.092078876683819200
0.533000000000000362,-3.068816711730465219
0.534000000000000363,-3.045709517908618658
0.535000000000000364,-3.022756738819457834
0.536000000000000365,-2.999957821987633277
0.537000000000000366,-2.977312218424630341
0.538000000000000367,-2.954819382210164491
0.539000000000000368,-2.932478770091167419
0.540000000000000369,-2.910289841097964292
0.541000000000000369,-2.888252056177268212
0.542000000000000370,-2.866364877841561576
0.543000000000000371,-2.844627769834480624
0.544000000000000372,-2.823040196811822611
0.545000000000000373,-2.801601624037771465
0.546000000000000374,-2.780311517095958251
0.547000000000000375,-2.759169341614980731
0.548000000000000376,-2.738174563008016094
0.549000000000000377,-2.717326646226130293
0.550000000000000377,-2.696625055524916270
0.551000000000000378,-2.676069254244122675
0.552000000000000379,-2.655658704599896947
0.553000000000000380,-2.635392867489270152
0.554000000000000381,-2.615271202306562515
0.555000000000000382,-2.595293166771368121
0.556000000000000383,-2.575458216767725350
0.557000000000000384,-2.555765806194209233
0.558000000000000385,-2.536215386824567819
0.559000000000000385,-2.516806408178592580
0.560000000000000386,-2.497538317402905328
0.561000000000000387,-2.478410559161343230
0.562000000000000388,-2.459422575534644828
0.563000000000000389,-2.440573805929105777
0.564000000000000390,-2.421863686993942277
0.565000000000000391,-2.403291652547043800
0.566000000000000392,-2.384857133508845095
0.567000000000000393,-2.366559557844023054
0.568000000000000393,-2.348398350510745303
0.569000000000000394,-2.330372933417211634
0.570000000000000395,-2.312482725385216487
0.571000000000000396,-2.294727142120452701
0.572000000000000397,-2.277105596189349601
0.573000000000000398,-2.259617497002150532
0.574000000000000399,-2.242262250802010026
0.575000000000000400,-2.225039260659872564
0.576000000000000401,-2.207947926474890465
0.577000000000000401,-2.190987644980167293
0.578000000000000402,-2.174157809753589188
0.579000000000000403,-2.157457811233544742
0.580000000000000404,-2.140887036739306470
0.581000000000000405,-2.124444870495886484
0.582000000000000406,-2.108130693663133215
0.583000000000000407,-2.091943884368914208
0.584000000000000408,-2.075883817746161153
0.585000000000000409,-2.059949865973603078
0.586000000000000409,-2.044141398320008740
0.587000000000000410,-2.028457781191757014
0.588000000000000411,-2.012898378183566095
0.589000000000000412,-1.997462550132206527
0.590000000000000413,-1.982149655173049307
0.591000000000000414,-1.966959048799274523
0.592000000000000415,-1.951890083923605967
0.593000000000000416,-1.936942110942392548
0.594000000000000417,-1.922114477801929677
0.595000000000000417,-1.907406530066853234
0.596000000000000418,-1.892817610990460198
0.597000000000000419,-1.878347061586867373
0.598000000000000420,-1.863994220704825455
0.599000000000000421,-1.849758425103102955
0.600000000000000422,-1.835639009527301635
0.601000000000000423,-1.821635306787989350
0.602000000000000424,-1.807746647840038579
0.603000000000000425,-1.793972361863058751
0.604000000000000425,-1.780311776342817565
0.605000000000000426,-1.766764217153555361
0.606000000000000427,-1.753329008641073994
0.607000000000000428,-1.740005473706531358
0.608000000000000429,-1.726792933890822113
