# GoldBrush_METHYLFORMATE-AC
# h[nm],U(h)[kJ/mol]
0.149999999999999994,39.981116863635875802
0.150999999999999995,37.537493846359367922
0.151999999999999996,35.287197487793811490
0.152999999999999997,33.182739545796934522
0.153999999999999998,31.198837316802020325
0.154999999999999999,29.319335969632493999
0.156000000000000000,27.531629485522131517
0.157000000000000001,25.824743760739771403
0.158000000000000002,24.188988820109443623
0.159000000000000002,22.616114727548229268
0.160000000000000003,21.099488316346668881
0.161000000000000004,19.634120078729765169
0.162000000000000005,18.216523618198031897
0.163000000000000006,16.844453363886053410
0.164000000000000007,15.516582048616504252
0.165000000000000008,14.232172706552407959
0.166000000000000009,12.990784722985234012
0.167000000000000010,11.792037175428045970
0.168000000000000010,10.635438794922363215
0.169000000000000011,9.520283559188595035
0.170000000000000012,8.445604228272298286
0.171000000000000013,7.410172518210600856
0.172000000000000014,6.412533357623928509
0.173000000000000015,5.451061068388780129
0.174000000000000016,4.524026733443220039
0.175000000000000017,3.629667970892872297
0.176000000000000018,2.766254463194804281
0.177000000000000018,1.932144648200864623
0.178000000000000019,1.125830814399720659
0.179000000000000020,0.345971377097506583
0.180000000000000021,-0.408589681171635077
0.181000000000000022,-1.138815335582167965
0.182000000000000023,-1.845478540981608351
0.183000000000000024,-2.529173932057095620
0.184000000000000025,-3.190336233484322825
0.185000000000000026,-3.829263417758848043
0.186000000000000026,-4.446142767408072238
0.187000000000000027,-5.041078193414774589
0.188000000000000028,-5.614117402042511529
0.189000000000000029,-6.165277763041819625
0.190000000000000030,-6.694569994391715184
0.191000000000000031,-7.202019028396525968
0.192000000000000032,-7.687681651632845892
0.193000000000000033,-8.151660711097305168
0.194000000000000034,-8.594115848028433646
0.195000000000000034,-9.015270858598686488
0.196000000000000035,-9.415417887974324884
0.197000000000000036,-9.794918743254534377
0.198000000000000037,-10.154203664394293227
0.199000000000000038,-10.493767923661348362
0.200000000000000039,-10.814166636903062013
0.201000000000000040,-11.116008167290436504
0.202000000000000041,-11.399946487478482382
0.203000000000000042,-11.666672842223539064
0.204000000000000042,-11.916907023062112359
0.205000000000000043,-12.151388531969491424
0.206000000000000044,-12.370867873921193691
0.207000000000000045,-12.576098180575957741
0.208000000000000046,-12.767827330172808686
0.209000000000000047,-12.946790693181910115
0.210000000000000048,-13.113704600010020584
0.211000000000000049,-13.269260596652722839
0.212000000000000050,-13.414120526934055988
0.213000000000000050,-13.548912456046902975
0.214000000000000051,-13.674227429544490775
0.215000000000000052,-13.790617044671446223
0.216000000000000053,-13.898591796820539912
0.217000000000000054,-13.998620152760565816
0.218000000000000055,-14.091128293863439680
0.219000000000000056,-14.176500466601179795
0.220000000000000057,-14.255079873811993707
0.221000000000000058,-14.327170038369496652
0.222000000000000058,-14.393036570660063589
0.223000000000000059,-14.452909272417333142
0.224000000000000060,-14.506984511735092624
0.225000000000000061,-14.555427807253579431
0.226000000000000062,-14.598376563381648907
0.227000000000000063,-14.635942902794585763
0.228000000000000064,-14.668216547168700714
0.229000000000000065,-14.695267702039213731
0.230000000000000066,-14.717149906671838977
0.231000000000000066,-14.733902814820734051
0.232000000000000067,-14.745554877118763670
0.233000000000000068,-14.752125900542150561
0.234000000000000069,-14.753629464856686582
0.235000000000000070,-14.750075180144936127
0.236000000000000071,-14.741470773404856232
0.237000000000000072,-14.727823995780124022
0.238000000000000073,-14.709144345221275785
0.239000000000000073,-14.685444602280776749
0.240000000000000074,-14.656742179317898689
0.241000000000000075,-14.623060285639002842
0.242000000000000076,-14.584428913036408204
0.243000000000000077,-14.540885647831311545
0.244000000000000078,-14.492476316889607801
0.245000000000000079,-14.439255476182916382
0.246000000000000080,-14.381286751331927576
0.247000000000000081,-14.318643040214984907
0.248000000000000081,-14.251406588172804035
0.249000000000000082,-14.179668946611053926
0.250000000000000111,-14.103530825916482883
0.251000000000000112,-14.023101853577674802
0.252000000000000113,-13.938500248258344882
0.253000000000000114,-13.849852420324992863
0.254000000000000115,-13.757292508999279690
0.255000000000000115,-13.660961865902795154
0.256000000000000116,-13.561008494302239313
0.257000000000000117,-13.457586452858825155
0.258000000000000118,-13.350855232148106211
0.259000000000000119,-13.240979111656013600
0.260000000000000120,-13.128126504382553463
0.261000000000000121,-13.012469295603761310
0.262000000000000122,-12.894182181763236272
0.263000000000000123,-12.773442014891632112
0.264000000000000123,-12.650427157391883171
0.265000000000000124,-12.525316851483170311
0.266000000000000125,-12.398290607072214087
0.267000000000000126,-12.269527611317911919
0.268000000000000127,-12.139206162678057410
0.269000000000000128,-12.007503131775811411
0.270000000000000129,-11.874593451000139410
0.271000000000000130,-11.740649634359169085
0.272000000000000131,-11.605841328738950580
0.273000000000000131,-11.470334897382112871
0.274000000000000132,-11.334293036091182216
0.275000000000000133,-11.197874422379754833
0.276000000000000134,-11.061233397539613321
0.277000000000000135,-10.924519681363722867
0.278000000000000136,-10.787878119061215187
0.279000000000000137,-10.651448459721269302
0.280000000000000138,-10.515365165526178615
0.281000000000000139,-10.379757250778586908
0.282000000000000139,-10.244748149693160499
0.283000000000000140,-10.110455611806802523
0.284000000000000141,-9.976991623783071361
0.285000000000000142,-9.844462356324218177
0.286000000000000143,-9.712968134856890146
0.287000000000000144,-9.582603432623917783
0.288000000000000145,-9.453456884793334680
0.289000000000000146,-9.325611322185876517
0.290000000000000147,-9.199143823222183158
0.291000000000000147,-9.074125782700232179
0.292000000000000148,-8.950622996030585199
0.293000000000000149,-8.828695757581311199
0.294000000000000150,-8.708398971814609979
0.295000000000000151,-8.589782275933016464
0.296000000000000152,-8.472890172792705954
0.297000000000000153,-8.357762172885786711
0.298000000000000154,-8.244432944239711958
0.299000000000000155,-8.132932469131800346
0.300000000000000155,-8.023286206567684431
0.301000000000000156,-7.915515259525197855
0.302000000000000157,-7.809636546018538183
0.303000000000000158,-7.705662973091472523
0.304000000000000159,-7.603603612902334774
0.305000000000000160,-7.503463880117062779
0.306000000000000161,-7.405245709879902272
0.307000000000000162,-7.308947735683544167
0.308000000000000163,-7.214565466511696279
0.309000000000000163,-7.122091462677285101
0.310000000000000164,-7.031515509827845456
0.311000000000000165,-6.942824790636883847
0.312000000000000166,-6.856004053745285098
0.313000000000000167,-6.771035779560500956
0.314000000000000168,-6.687900342563016132
0.315000000000000169,-6.606576169809521559
0.316000000000000170,-6.527039895360223554
0.317000000000000171,-6.449266510393764307
0.318000000000000171,-6.373229508807305876
0.319000000000000172,-6.298901028131599134
0.320000000000000173,-6.226251985621009233
0.321000000000000174,-6.155252209406883779
0.322000000000000175,-6.085870564629127344
0.323000000000000176,-6.018075074485544462
0.324000000000000177,-5.951833036161351842
0.325000000000000178,-5.887111131622502214
0.326000000000000179,-5.823875533275961303
0.327000000000000179,-5.762092004517914923
0.328000000000000180,-5.701725995207306497
0.329000000000000181,-5.642742732117052462
0.330000000000000182,-5.585107304428471586
0.331000000000000183,-5.528784744346945779
0.332000000000000184,-5.473740102927343365
0.333000000000000185,-5.419938521207516402
0.334000000000000186,-5.367345296756594664
0.335000000000000187,-5.315925945752132620
0.336000000000000187,-5.265646260706620119
0.337000000000000188,-5.216472363969096193
0.338000000000000189,-5.168370757132312754
0.339000000000000190,-5.121308366479368601
0.340000000000000191,-5.075252584606630535
0.341000000000000192,-5.030171308362160865
0.342000000000000193,-4.986032973239921340
0.343000000000000194,-4.942806584371359335
0.344000000000000195,-4.900461744255904861
0.345000000000000195,-4.858968677371967360
0.346000000000000196,-4.818298251809192578
0.347000000000000197,-4.778421998061605613
0.348000000000000198,-4.739312125119915287
0.349000000000000199,-4.700941533999165145
0.350000000000000200,-4.663283828836005895
0.351000000000000201,-4.626313325687189781
0.352000000000000202,-4.590005059158335676
0.353000000000000203,-4.554334786989096884
0.354000000000000203,-4.519278992717666199
0.355000000000000204,-4.484814886544454815
0.356000000000000205,-4.450920404511268025
0.357000000000000206,-4.417574206108914048
0.358000000000000207,-4.384755670422468832
0.359000000000000208,-4.352444890919926479
0.360000000000000209,-4.320622668986143111
0.361000000000000210,-4.289270506300288943
0.362000000000000210,-4.258370596151279663
0.363000000000000211,-4.227905813781904776
0.364000000000000212,-4.197859705848624223
0.365000000000000213,-4.168216479080253833
0.366000000000000214,-4.138960988215133696
0.367000000000000215,-4.110078723292657443
0.368000000000000216,-4.081555796371537426
0.369000000000000217,-4.053378927743497506
0.370000000000000218,-4.025535431707794487
0.371000000000000218,-3.998013201968432018
0.372000000000000219,-3.970800696712641020
0.373000000000000220,-3.943886923426030755
0.374000000000000221,-3.917261423496527506
0.375000000000000222,-3.890914256656277992
0.376000000000000223,-3.864835985307622401
0.377000000000000224,-3.839017658776394448
0.378000000000000225,-3.813450797533037839
0.379000000000000226,-3.788127377419233888
0.380000000000000226,-3.763039813915297405
0.381000000000000227,-3.738180946480884614
0.382000000000000228,-3.713544022999356375
0.383000000000000229,-3.689122684353661530
0.384000000000000230,-3.664910949159448705
0.385000000000000231,-3.640903198679059649
0.386000000000000232,-3.617094161937846053
0.387000000000000233,-3.593478901062511000
0.388000000000000234,-3.570052796859157329
0.389000000000000234,-3.546811534647127395
0.390000000000000235,-3.523751090362817529
0.391000000000000236,-3.500867716946324038
0.392000000000000237,-3.478157931022022531
0.393000000000000238,-3.455618499882954442
0.394000000000000239,-3.433246428787347870
0.395000000000000240,-3.411038948574522500
0.396000000000000241,-3.388993503606060553
0.397000000000000242,-3.367107740037077690
0.398000000000000242,-3.345379494421365507
0.399000000000000243,-3.323806782653134118
0.400000000000000244,-3.302387789247180017
0.401000000000000245,-3.281120856958458010
0.402000000000000246,-3.260004476741179325
0.403000000000000247,-3.239037278046784873
0.404000000000000248,-3.218218019459541779
0.405000000000000249,-3.197545579667756321
0.406000000000000250,-3.177018948768047579
0.407000000000000250,-3.156637219899572244
0.408000000000000251,-3.136399581204567966
0.409000000000000252,-3.116305308111171346
0.410000000000000253,-3.096353755933955565
0.411000000000000254,-3.076544352787366154
0.412000000000000255,-3.056876592806774706
0.413000000000000256,-3.037350029671693541
0.414000000000000257,-3.017964270425246731
0.415000000000000258,-2.998718969583953786
0.416000000000000258,-2.979613823531511052
0.417000000000000259,-2.960648565190130643
0.418000000000000260,-2.941822958962871049
0.419000000000000261,-2.923136795940193711
0.420000000000000262,-2.904589889363930588
0.421000000000000263,-2.886182070341773098
0.422000000000000264,-2.867913183805203658
0.423000000000000265,-2.849783084703938041
0.424000000000000266,-2.831791634429771332
0.425000000000000266,-2.813938697462770921
0.426000000000000267,-2.796224138232730194
0.427000000000000268,-2.778647818188896057
0.428000000000000269,-2.761209593070894641
0.429000000000000270,-2.743909310373941590
0.430000000000000271,-2.726746807001414474
0.431000000000000272,-2.709721907097943916
0.432000000000000273,-2.692834420056275491
0.433000000000000274,-2.676084138691220637
0.434000000000000274,-2.659470837574129387
0.435000000000000275,-2.642994271521382554
0.436000000000000276,-2.626654174230578231
0.437000000000000277,-2.610450257058095413
0.438000000000000278,-2.594382207931956952
0.439000000000000279,-2.578449690393946003
0.440000000000000280,-2.562652342765084690
0.441000000000000281,-2.546989777428739554
0.442000000000000282,-2.531461580225719210
0.443000000000000282,-2.516067309955875242
0.444000000000000283,-2.500806497980855969
0.445000000000000284,-2.485678647922815454
0.446000000000000285,-2.470683235453977389
0.447000000000000286,-2.455819708172179983
0.448000000000000287,-2.441087485557530634
0.449000000000000288,-2.426485959005610926
0.450000000000000289,-2.412014491932672478
0.451000000000000290,-2.397672419948460032
0.452000000000000290,-2.383459051092471803
0.453000000000000291,-2.369373666129532374
0.454000000000000292,-2.355415518900755512
0.455000000000000293,-2.341583836726071066
0.456000000000000294,-2.327877820854650448
0.457000000000000295,-2.314296646959670856
0.458000000000000296,-2.300839465674024531
0.459000000000000297,-2.287505403163679674
0.460000000000000298,-2.274293561735541314
0.461000000000000298,-2.261203020476757697
0.462000000000000299,-2.248232835922620687
0.463000000000000300,-2.235382042750201137
0.464000000000000301,-2.222649654495094218
0.465000000000000302,-2.210034664288716311
0.466000000000000303,-2.197536045613694089
0.467000000000000304,-2.185152753075010779
0.468000000000000305,-2.172883723184710014
0.469000000000000306,-2.160727875158013234
0.470000000000000306,-2.148684111718839329
0.471000000000000307,-2.136751319912790326
0.472000000000000308,-2.124928371925830284
0.473000000000000309,-2.113214125906858420
0.474000000000000310,-2.101607426792582167
0.475000000000000311,-2.090107107133136743
0.476000000000000312,-2.078711987916975978
0.477000000000000313,-2.067420879393653266
0.478000000000000314,-2.056232581893190137
0.479000000000000314,-2.045145886640832966
0.480000000000000315,-2.034159576565998329
0.481000000000000316,-2.023272427104392701
0.482000000000000317,-2.012483206992247808
0.483000000000000318,-2.001790679051770994
0.484000000000000319,-1.991193600966902455
0.485000000000000320,-1.980690726048606631
0.486000000000000321,-1.970280803988921914
0.487000000000000322,-1.959962581603077680
0.488000000000000322,-1.949734803559045826
0.489000000000000323,-1.939596213093953025
0.490000000000000324,-1.929545552716804391
0.491000000000000325,-1.919581564897058001
0.492000000000000326,-1.909702992738576244
0.493000000000000327,-1.899908580638620226
0.494000000000000328,-1.890197074931472709
0.495000000000000329,-1.880567224516457525
0.496000000000000330,-1.871017781470011743
0.497000000000000330,-1.861547501641643620
0.498000000000000331,-1.852155145233550737
0.499000000000000332,-1.842839477363743539
0.500000000000000333,-1.833599268612543298
0.501000000000000334,-1.824433295552384093
0.502000000000000335,-1.815340341260795354
0.503000000000000336,-1.806319195816598056
0.504000000000000337,-1.797368656779231744
0.505000000000000338,-1.788487529651270336
0.506000000000000338,-1.779674628324132257
0.507000000000000339,-1.770928775507061959
0.508000000000000340,-1.762248803139443876
0.509000000000000341,-1.753633552786547867
0.510000000000000342,-1.745081876018832689
0.511000000000000343,-1.736592634774916988
0.512000000000000344,-1.728164701708382989
0.513000000000000345,-1.719796960518567674
0.514000000000000346,-1.711488306265517734
0.515000000000000346,-1.703237645669303246
0.516000000000000347,-1.695043897393868404
0.517000000000000348,-1.686905992315674840
0.518000000000000349,-1.678822873777301883
0.519000000000000350,-1.670793497826285501
0.520000000000000351,-1.662816833439410003
0.521000000000000352,-1.654891862732699837
0.522000000000000353,-1.647017581157367516
0.523000000000000353,-1.639192997681988784
0.524000000000000354,-1.631417134961159920
0.525000000000000355,-1.623689029490897884
0.526000000000000356,-1.616007731751086585
0.527000000000000357,-1.608372306335218438
0.528000000000000358,-1.600781832067738719
0.529000000000000359,-1.593235402109244747
0.530000000000000360,-1.585732124049864744
0.531000000000000361,-1.578271119991077054
0.532000000000000361,-1.570851526616265925
0.533000000000000362,-1.563472495250302297
0.534000000000000363,-1.556133191908456670
0.535000000000000364,-1.548832797334902089
0.536000000000000365,-1.541570507031123416
0.537000000000000366,-1.534345531274517338
0.538000000000000367,-1.527157095127458231
0.539000000000000368,-1.520004438437134731
0.540000000000000369,-1.512886815826422593
0.541000000000000369,-1.505803496676094699
0.542000000000000370,-1.498753765098639112
0.543000000000000371,-1.491736919903960290
0.544000000000000372,-1.484752274557249674
0.545000000000000373,-1.477799157129291663
0.546000000000000374,-1.470876910239474533
0.547000000000000375,-1.463984890991768539
0.548000000000000376,-1.457122470903954525
0.549000000000000377,-1.450289035830335083
0.550000000000000377,-1.443483985878199594
0.551000000000000378,-1.436706735318295625
0.552000000000000379,-1.429956712489555581
0.553000000000000380,-1.423233359698309552
0.554000000000000381,-1.416536133112241025
0.555000000000000382,-1.409864502649324169
0.556000000000000383,-1.403217951861943869
0.557000000000000384,-1.396595977816469158
0.558000000000000385,-1.389998090968472821
0.559000000000000385,-1.383423815033823390
0.560000000000000386,-1.376872686855868722
0.561000000000000387,-1.370344256268918315
0.562000000000000388,-1.363838085958234858
0.563000000000000389,-1.357353751316716650
0.564000000000000390,-1.350890840298492268
0.565000000000000391,-1.344448953269609559
0.566000000000000392,-1.338027702856000145
0.567000000000000393,-1.331626713788911287
0.568000000000000393,-1.325245622747974750
0.569000000000000394,-1.318884078202094745
0.570000000000000395,-1.312541740248331701
0.571000000000000396,-1.306218280448911528
0.572000000000000397,-1.299913381666572443
0.573000000000000398,-1.293626737898361245
0.574000000000000399,-1.287358054108058480
0.575000000000000400,-1.281107046057367027
0.576000000000000401,-1.274873440136004232
0.577000000000000401,-1.268656973190859238
0.578000000000000402,-1.262457392354318308
0.579000000000000403,-1.256274454871908919
0.580000000000000404,-1.250107927929392959
0.581000000000000405,-1.243957588479416732
0.582000000000000406,-1.237823223067842537
0.583000000000000407,-1.231704627659883311
0.584000000000000408,-1.225601607466141996
0.585000000000000409,-1.219513976768670682
0.586000000000000409,-1.213441558747137661
0.587000000000000410,-1.207384185305231616
0.588000000000000411,-1.201341696897362032
0.589000000000000412,-1.195313942355779258
0.590000000000000413,-1.189300778718183293
0.591000000000000414,-1.183302071055922555
0.592000000000000415,-1.177317692302848773
0.593000000000000416,-1.171347523084919517
0.594000000000000417,-1.165391451550617852
0.595000000000000417,-1.159449373202269928
0.596000000000000418,-1.153521190728307833
0.597000000000000419,-1.147606813836584028
0.598000000000000420,-1.141706159088749395
0.599000000000000421,-1.135819149735807443
0.600000000000000422,-1.129945715554861785
0.601000000000000423,-1.124085792687133045
0.602000000000000424,-1.118239323477293379
0.603000000000000425,-1.112406256314169228
0.604000000000000425,-1.106586545472845184
0.605000000000000426,-1.100780150958244885
0.606000000000000427,-1.094987038350196507
0.607000000000000428,-1.089207178650044572
0.608000000000000429,-1.083440548128831393
0.609000000000000430,-1.077687128177103437
0.610000000000000431,-1.071946905156352159
0.611000000000000432,-1.066219870252129276
