# AuFCC100UCD_ASNSCA-JS
# h[nm],U(h)[kJ/mol]
0.149999999999999994,136.827574040345069761
0.150999999999999995,135.903681510473347771
0.151999999999999996,132.055575683679847998
0.152999999999999997,127.618203229791177478
0.153999999999999998,123.500262620969195382
0.154999999999999999,119.907919045363613009
0.156000000000000000,116.750421584149847831
0.157000000000000001,113.852568868943464508
0.158000000000000002,111.054037132964481316
0.159000000000000002,108.245729293715584163
0.160000000000000003,105.373733385991130262
0.161000000000000004,102.428861323183653553
0.162000000000000005,99.431772141375418528
0.163000000000000006,96.418787900690887227
0.164000000000000007,93.430610548471577204
0.165000000000000008,90.504520309640838605
0.166000000000000009,87.669798633661116583
0.167000000000000010,84.945755226939894555
0.168000000000000010,82.341645556213990176
0.169000000000000011,79.857814259753155284
0.170000000000000012,77.487513016647284303
0.171000000000000013,75.218973073728676582
0.172000000000000014,73.037438098088685479
0.173000000000000015,70.926970509804192488
0.174000000000000016,68.871929863650990455
0.175000000000000017,66.858085438842550730
0.176000000000000018,64.873369419184442108
0.177000000000000018,62.908305264112712507
0.178000000000000019,60.956161589607575024
0.179000000000000020,59.012888335761502390
0.180000000000000021,57.076891974708850341
0.181000000000000022,55.148702269592114078
0.182000000000000023,53.230576389317846520
0.183000000000000024,51.326078322152888234
0.184000000000000025,49.439663440959094487
0.185000000000000026,47.576290374183713539
0.186000000000000026,45.741075410718778471
0.187000000000000027,43.938998715187196353
0.188000000000000028,42.174666725558303426
0.189000000000000029,40.452131230780182136
0.190000000000000030,38.774762708548749401
0.191000000000000031,37.145173435248480587
0.192000000000000032,35.565184538519204693
0.193000000000000033,34.035830421417458069
0.194000000000000034,32.557393724258147927
0.195000000000000034,31.129464094536086094
0.196000000000000035,29.751014408442863157
0.197000000000000036,28.420488645203676015
0.198000000000000037,27.135896287794537329
0.199000000000000038,25.894908854114511598
0.200000000000000039,24.694954907242156139
0.201000000000000040,23.533310618735914233
0.202000000000000041,22.407183641111355854
0.203000000000000042,21.313788668524733083
0.204000000000000042,20.250413618564000018
0.205000000000000043,19.214475848230289756
0.206000000000000044,18.203568222926577391
0.207000000000000045,17.215495190737144071
0.208000000000000046,16.248299279737477008
0.209000000000000047,15.300278639177673057
0.210000000000000048,14.369996392621686709
0.211000000000000049,13.456282669386542494
0.212000000000000050,12.558230236844204697
0.213000000000000050,11.675184677072804718
0.214000000000000051,10.806730043332049007
0.215000000000000052,9.952670900764145401
0.216000000000000053,9.113011606885473626
0.217000000000000054,8.287933625531852755
0.218000000000000055,7.477771597040883123
0.219000000000000056,6.682988811090927683
0.220000000000000057,5.904152649693484634
0.221000000000000058,5.141910488766264997
0.222000000000000058,4.396966469416040191
0.223000000000000059,3.670059476045829605
0.224000000000000060,2.961942588787901620
0.225000000000000061,2.273364213357198516
0.226000000000000062,1.605051032740056227
0.227000000000000063,0.957692872468940970
0.228000000000000064,0.331929524683746757
0.229000000000000065,-0.271660464319049888
0.230000000000000066,-0.852569072972994446
0.231000000000000066,-1.410366208719302739
0.232000000000000067,-1.944705320409391813
0.233000000000000068,-2.455327320487096454
0.234000000000000069,-2.942062933088004595
0.235000000000000070,-3.404833594675536368
0.236000000000000071,-3.843651040752951165
0.237000000000000072,-4.258615715980525351
0.238000000000000073,-4.649914146103438561
0.239000000000000073,-5.017815408854688464
0.240000000000000074,-5.362666837813933718
0.241000000000000075,-5.684889088417333980
0.242000000000000076,-5.984970689245561637
0.243000000000000077,-6.263462194650744053
0.244000000000000078,-6.520970046976140466
0.245000000000000079,-6.758150248300725416
0.246000000000000080,-6.975701933005498567
0.247000000000000081,-7.174360923681218694
0.248000000000000081,-7.354893344125857269
0.249000000000000082,-7.518089354539043256
0.250000000000000111,-7.664757065613756026
0.251000000000000112,-7.795716680134988863
0.252000000000000113,-7.911794902988998679
0.253000000000000114,-8.013819653212546967
0.254000000000000115,-8.102615104910281474
0.255000000000000115,-8.178997077559396089
0.256000000000000116,-8.243768790422750570
0.257000000000000117,-8.297716990506149415
0.258000000000000118,-8.341608458721122332
0.259000000000000119,-8.376186894642691172
0.260000000000000120,-8.402170176466913887
0.261000000000000121,-8.420247989456996152
0.262000000000000122,-8.431079813298534731
0.263000000000000123,-8.435293256338177059
0.264000000000000123,-8.433482722631257644
0.265000000000000124,-8.426208396043366022
0.266000000000000125,-8.413995524313154561
0.267000000000000126,-8.397333984957878528
0.268000000000000127,-8.376678114164167965
0.269000000000000128,-8.352446779324870008
0.270000000000000129,-8.325023675633463682
0.271000000000000130,-8.294757827103907744
0.272000000000000131,-8.261964272522423158
0.273000000000000131,-8.226924917134565973
0.274000000000000132,-8.189889531305279746
0.275000000000000133,-8.151076877940321097
0.276000000000000134,-8.110675951106047776
0.277000000000000135,-8.068847309013596814
0.278000000000000136,-8.025724485326950486
0.279000000000000137,-7.981415463597405058
0.280000000000000138,-7.936004200507193573
0.281000000000000139,-7.889552184509291521
0.282000000000000139,-7.842100017369435072
0.283000000000000140,-7.793669007039659036
0.284000000000000141,-7.744262761212612922
0.285000000000000142,-7.693868771814818430
0.286000000000000143,-7.642459981589165174
0.287000000000000144,-7.589996324786007165
0.288000000000000145,-7.536426234825484016
0.289000000000000146,-7.481688112605046292
0.290000000000000147,-7.425711749905109293
0.291000000000000147,-7.368419703087786488
0.292000000000000148,-7.309728612988823038
0.293000000000000149,-7.249550467568276702
0.294000000000000150,-7.187793804511640516
0.295000000000000151,-7.124364851559152889
0.296000000000000152,-7.059168602886428445
0.297000000000000153,-6.992109830365974332
0.298000000000000154,-6.923094029005396166
0.299000000000000155,-6.852028296286663434
0.300000000000000155,-6.778822145521654186
0.301000000000000156,-6.703388253693715271
0.302000000000000157,-6.625643144574818066
0.303000000000000158,-6.545507808194133581
0.304000000000000159,-6.462908257988281946
0.305000000000000160,-6.377776027186923713
0.306000000000000161,-6.290048606183053614
0.307000000000000162,-6.199669822804866115
0.308000000000000163,-6.106590167548396231
0.309000000000000163,-6.010767065948980914
0.310000000000000164,-5.912165100365482040
0.311000000000000165,-5.810756183526775587
0.312000000000000166,-5.706519686246709355
0.313000000000000167,-5.599442521752192370
0.314000000000000168,-5.489519189091988771
0.315000000000000169,-5.376751778101624524
0.316000000000000170,-5.261149938394511061
0.317000000000000171,-5.142730814831860009
0.318000000000000171,-5.021518951895603600
0.319000000000000172,-4.897546169350681211
0.320000000000000173,-4.770851411536579434
0.321000000000000174,-4.641480572573793317
0.322000000000000175,-4.509486299710667723
0.323000000000000176,-4.374927776969794735
0.324000000000000177,-4.237870491182310850
0.325000000000000178,-4.098385982423689455
0.326000000000000179,-3.956551580786805467
0.327000000000000179,-3.812450131347334459
0.328000000000000180,-3.666169709094178497
0.329000000000000181,-3.517803325514574198
0.330000000000000182,-3.367448628437935021
0.331000000000000183,-3.215207596659062972
0.332000000000000184,-3.061186230775733375
0.333000000000000185,-2.905494241592196047
0.334000000000000186,-2.748244737356686507
0.335000000000000187,-2.589553911019070398
0.336000000000000187,-2.429540728614248302
0.337000000000000188,-2.268326619797978339
0.338000000000000189,-2.106035171484996305
0.339000000000000190,-1.942791825464319500
0.340000000000000191,-1.778723580793907688
0.341000000000000192,-1.613958701707067345
0.342000000000000193,-1.448626431694407968
0.343000000000000194,-1.282856714360832484
0.344000000000000195,-1.116779921593586966
0.345000000000000195,-0.950526589518081444
0.346000000000000196,-0.784227162660496746
0.347000000000000197,-0.618011746681724983
0.348000000000000198,-0.452009869995457447
0.349000000000000199,-0.286350254533664972
0.350000000000000200,-0.121160595876640326
0.351000000000000201,0.043432647079700945
0.352000000000000202,0.207304452787418658
0.353000000000000203,0.370331427948253078
0.354000000000000203,0.532391988597112120
0.355000000000000204,0.693366531344585590
0.356000000000000205,0.853137594787559572
0.357000000000000206,1.011590011126274113
0.358000000000000207,1.168611048053158852
0.359000000000000208,1.324090541003772881
0.360000000000000209,1.477921015883103095
0.361000000000000210,1.629997802401381479
0.362000000000000210,1.780219138172624227
0.363000000000000211,1.928486263746312046
0.364000000000000212,2.074703508758107606
0.365000000000000213,2.218778369399427852
0.366000000000000214,2.360621577417845174
0.367000000000000215,2.500147160871185825
0.368000000000000216,2.637272496867491878
0.369000000000000217,2.771918356531076988
0.370000000000000218,2.904008942441695940
0.371000000000000218,3.033471918799430789
0.372000000000000219,3.160238434572321786
0.373000000000000220,3.284243139887350615
0.374000000000000221,3.405424195927573727
0.375000000000000222,3.523723278600070508
0.376000000000000223,3.639085576239784015
0.377000000000000224,3.751459781614473687
0.378000000000000225,3.860798078494907859
0.379000000000000226,3.967056123053239958
0.380000000000000226,4.070193020350148849
0.381000000000000227,4.170171296168778241
0.382000000000000228,4.266956864450326847
0.383000000000000229,4.360518990582309407
0.384000000000000230,4.450830250786745879
0.385000000000000231,4.537866487850685360
0.386000000000000232,4.621606763436947318
0.387000000000000233,4.702033307207762469
0.388000000000000234,4.779131462988571499
0.389000000000000234,4.852889632193650549
0.390000000000000235,4.923299214729576434
0.391000000000000236,4.990354547586171030
0.392000000000000237,5.054052841319037093
0.393000000000000238,5.114394114620952614
0.394000000000000239,5.171381127173491521
0.395000000000000240,5.225019310963690877
0.396000000000000241,5.275316700244160550
0.397000000000000242,5.322283860308568038
0.398000000000000242,5.365933815248006056
0.399000000000000243,5.406281974847251703
0.400000000000000244,5.443346060773674111
0.401000000000000245,5.477146032204731618
0.402000000000000246,5.507704011034297409
0.403000000000000247,5.535044206791276622
0.404000000000000248,5.559192841398040486
0.405000000000000249,5.580178073890079915
0.406000000000000250,5.598029925212282265
0.407000000000000250,5.612780203201319651
0.408000000000000251,5.624462427857961799
0.409000000000000252,5.633111757007293718
0.410000000000000253,5.638764912439553356
0.411000000000000254,5.641460106618632508
0.412000000000000255,5.641236970040248266
0.413000000000000256,5.638136479316484539
0.414000000000000257,5.632200886058598144
0.415000000000000258,5.623473646624937317
0.416000000000000258,5.611999352796375184
0.417000000000000259,5.597823663436800601
0.418000000000000260,5.580993237192115153
0.419000000000000261,5.561555666276690957
0.420000000000000262,5.539559411392273702
0.421000000000000263,5.515053737820184487
0.422000000000000264,5.488088652724137262
0.423000000000000265,5.458714843697000774
0.424000000000000266,5.426983618581429525
0.425000000000000266,5.392946846590991328
0.426000000000000267,5.356656900755018214
0.427000000000000268,5.318166601707316588
0.428000000000000269,5.277529162835974397
0.429000000000000270,5.234798136808646696
0.430000000000000271,5.190027363484777112
0.431000000000000272,5.143270919223994930
0.432000000000000273,5.094583067597115544
0.433000000000000274,5.044018211504073257
0.434000000000000274,4.991630846700668478
0.435000000000000275,4.937475516734197711
0.436000000000000276,4.881606769285776970
0.437000000000000277,4.824079113915374251
0.438000000000000278,4.764946981203915577
0.439000000000000279,4.704264683284958615
0.440000000000000280,4.642086375756970362
0.441000000000000281,4.578466020965857197
0.442000000000000282,4.513457352645746212
0.443000000000000282,4.447113841905121490
0.444000000000000283,4.379488664543809584
0.445000000000000284,4.310634669685553533
0.446000000000000285,4.240604349709650833
0.447000000000000286,4.169449811464295053
0.448000000000000287,4.097222748743329923
0.449000000000000288,4.023974416007420452
0.450000000000000289,3.949755603329720977
0.451000000000000290,3.874616612545735084
0.452000000000000290,3.798607234586202530
0.453000000000000291,3.721776727971479293
0.454000000000000292,3.644173798445351053
0.455000000000000293,3.565846579725732823
0.456000000000000294,3.486842615349508456
0.457000000000000295,3.407208841588278858
0.458000000000000296,3.326991571411579862
0.459000000000000297,3.246236479474032599
0.460000000000000298,3.164988588102396694
0.461000000000000298,3.083292254258883869
0.462000000000000299,3.001191157456364333
0.463000000000000300,2.918728288601608600
0.464000000000000301,2.835945939742313904
0.465000000000000302,2.752885694693954832
0.466000000000000303,2.669588420522191363
0.467000000000000304,2.586094259857108391
0.468000000000000305,2.502442624015235317
0.469000000000000306,2.418672186905670429
0.470000000000000306,2.334820879696790197
0.471000000000000307,2.250925886220012551
0.472000000000000308,2.167023639087538367
0.473000000000000309,2.083149816500991847
0.474000000000000310,1.999339339728367193
0.475000000000000311,1.915626371226502700
0.476000000000000312,1.832044313387352519
0.477000000000000313,1.748625807885572980
0.478000000000000314,1.665402735606268170
0.479000000000000314,1.582406217131305137
0.480000000000000315,1.499666613763343426
0.481000000000000316,1.417213529066869038
0.482000000000000317,1.335075810905956173
0.483000000000000318,1.253281553958792038
0.484000000000000319,1.171858102689337100
0.485000000000000320,1.090832054756954772
0.486000000000000321,1.010229264845056152
0.487000000000000322,0.930074848890347639
0.488000000000000322,0.850393188694487434
0.489000000000000323,0.771207936900548674
0.490000000000000324,0.692542022316773975
0.491000000000000325,0.614417655570801635
0.492000000000000326,0.536856335077688374
0.493000000000000327,0.459878853305621782
0.494000000000000328,0.383505303323451952
0.495000000000000329,0.307755085614662360
0.496000000000000330,0.232646915142763699
0.497000000000000330,0.158198828653406537
0.498000000000000331,0.084428192198998928
0.499000000000000332,0.011351708872010268
0.500000000000000333,-0.061014573266720218
0.501000000000000334,-0.132655253077632096
0.502000000000000335,-0.203555568062892878
0.503000000000000336,-0.273701385929971008
0.504000000000000337,-0.343079196010469711
0.505000000000000338,-0.411676100545750656
0.506000000000000338,-0.479479805850743734
0.507000000000000339,-0.546478613366911725
0.508000000000000340,-0.612661410614909308
0.509000000000000341,-0.678017662057253445
0.510000000000000342,-0.742537399880931814
0.511000000000000343,-0.806211214709560364
0.512000000000000344,-0.869030246254342331
0.513000000000000345,-0.930986173912761950
0.514000000000000346,-0.992071207323763415
0.515000000000000346,-1.052278076887571245
0.516000000000000347,-1.111600024258321495
0.517000000000000348,-1.170030792817164267
0.518000000000000349,-1.227564618133308638
0.519000000000000350,-1.284196218420077029
0.520000000000000351,-1.339920784992975511
0.521000000000000352,-1.394733972736243999
0.522000000000000353,-1.448631890584237691
0.523000000000000353,-1.501611092023810157
0.524000000000000354,-1.553668565623310460
0.525000000000000355,-1.604801725593955508
0.526000000000000356,-1.655008402388699285
0.527000000000000357,-1.704286833343776397
0.528000000000000358,-1.752635653367822899
0.529000000000000359,-1.800053885682936894
0.530000000000000360,-1.846540932622348308
0.531000000000000361,-1.892096566488681075
0.532000000000000361,-1.936720920476880492
0.533000000000000362,-1.980414479665445482
0.534000000000000363,-2.023178072079646395
0.535000000000000364,-2.065012859830017700
0.536000000000000365,-2.105920330329305035
0.537000000000000366,-2.145902287590884416
0.538000000000000367,-2.184960843611442716
0.539000000000000368,-2.223098409840594147
0.540000000000000369,-2.260317688739867492
0.541000000000000369,-2.296621665433413728
0.542000000000000370,-2.332013599452551933
0.543000000000000371,-2.366497016576207812
0.544000000000000372,-2.400075700769053633
0.545000000000000373,-2.432753686219076616
0.546000000000000374,-2.464535249476187406
0.547000000000000375,-2.495424901693243491
0.548000000000000376,-2.525427380970874935
0.549000000000000377,-2.554547644807223516
0.550000000000000377,-2.582790862653767228
0.551000000000000378,-2.610162408578048598
0.552000000000000379,-2.636667854034288716
0.553000000000000380,-2.662312960742509116
0.554000000000000381,-2.687103673676842330
0.555000000000000382,-2.711046114163590204
0.556000000000000383,-2.734146573089365262
0.557000000000000384,-2.756411504219774322
0.558000000000000385,-2.777847517628803331
0.559000000000000385,-2.798461373239128136
0.560000000000000386,-2.818259974473401819
0.561000000000000387,-2.837250362016551453
0.562000000000000388,-2.855439707688977702
0.563000000000000389,-2.872835308430589318
0.564000000000000390,-2.889444580395352791
0.565000000000000391,-2.905275053156188392
0.566000000000000392,-2.920334364019823603
0.567000000000000393,-2.934630252451196242
0.568000000000000393,-2.948170554606968086
0.569000000000000394,-2.960963197977646733
0.570000000000000395,-2.973016196137756140
0.571000000000000396,-2.984337643603379497
0.572000000000000397,-2.994935710796524653
0.573000000000000398,-3.004818639115539369
0.574000000000000399,-3.013994736110803263
0.575000000000000400,-3.022472370765011185
0.576000000000000401,-3.030259968877111909
0.577000000000000401,-3.037366008549142737
0.578000000000000402,-3.043799015774994121
0.579000000000000403,-3.049567560130216570
0.580000000000000404,-3.054680250561928379
0.581000000000000405,-3.059145731277799207
0.582000000000000406,-3.062972677733173388
0.583000000000000407,-3.066169792715189857
0.584000000000000408,-3.068745802523024757
0.585000000000000409,-3.070709453242966624
0.586000000000000409,-3.072069507117418219
0.587000000000000410,-3.072834739006629068
0.588000000000000411,-3.073013932942000093
0.589000000000000412,-3.072615878769945574
0.590000000000000413,-3.071649368884998843
0.591000000000000414,-3.070123195051125631
0.592000000000000415,-3.068046145310025175
0.593000000000000416,-3.065427000975192495
0.594000000000000417,-3.062274533710612534
0.595000000000000417,-3.058597502692875558
0.596000000000000418,-3.054404651855437969
0.597000000000000419,-3.049704707213943600
0.598000000000000420,-3.044506374271244376
0.599000000000000421,-3.038818335501034085
0.600000000000000422,-3.032649247908788759
0.601000000000000423,-3.026007740668808843
0.602000000000000424,-3.018902412836176552
0.603000000000000425,-3.011341831132396507
0.604000000000000425,-3.003334527803430909
0.605000000000000426,-2.994888998549025239
0.606000000000000427,-2.986013700522036185
0.607000000000000428,-2.976717050396535669
0.608000000000000429,-2.967007422503571412
0.609000000000000430,-2.956893147033263780
0.610000000000000431,-2.946382508302160641
0.611000000000000432,-2.935483743084549513
0.612000000000000433,-2.924205039006619433
0.613000000000000433,-2.912554533002274848
0.614000000000000434,-2.900540309829414465
0.615000000000000435,-2.888170400645495572
0.616000000000000436,-2.875452781641297584
