# AuFCC100UCD_CYMSCA-JS
# h[nm],U(h)[kJ/mol]
0.200000000000000011,129.061354009196065817
0.201000000000000012,123.059007615752761922
0.202000000000000013,119.141401939919049369
0.203000000000000014,116.139696035779024896
0.204000000000000015,113.417637028227929363
0.205000000000000016,110.668547823570747823
0.206000000000000016,107.779616727975877666
0.207000000000000017,104.743490912886016986
0.208000000000000018,101.602629219037311259
0.209000000000000019,98.415932606660504689
0.210000000000000020,95.240179277951114045
0.211000000000000021,92.121004485015205887
0.212000000000000022,89.089780034607457537
0.213000000000000023,86.163916389195989609
0.214000000000000024,83.348945771981476582
0.215000000000000024,80.641334721580307132
0.216000000000000025,78.031384666167170394
0.217000000000000026,75.505858508698821652
0.218000000000000027,73.050156675948898055
0.219000000000000028,70.649984845445302994
0.220000000000000029,68.292527707746586429
0.221000000000000030,65.967183316395406223
0.222000000000000031,63.665931434463985283
0.223000000000000032,61.383414387771516374
0.224000000000000032,59.116805621076387922
0.225000000000000033,56.865533117046268785
0.226000000000000034,54.630914570371047034
0.227000000000000035,52.415750338056717794
0.228000000000000036,50.223909724159291557
0.229000000000000037,48.059936685886853525
0.230000000000000038,45.928692857247888526
0.231000000000000039,43.835048970276972113
0.232000000000000040,41.783630282051262839
0.233000000000000040,39.778617383739444335
0.234000000000000041,37.823600631864749744
0.235000000000000042,35.921484241970574658
0.236000000000000043,34.074434660566723210
0.237000000000000044,32.283867031259987357
0.238000000000000045,30.550463258445699211
0.239000000000000046,28.874215227072959067
0.240000000000000047,27.254487057790544924
0.241000000000000048,25.690090778529469873
0.242000000000000048,24.179370407593335557
0.243000000000000049,22.720290115284875299
0.244000000000000050,21.310522819222750712
0.245000000000000051,19.947536241677120472
0.246000000000000052,18.628674093317556526
0.247000000000000053,17.351230631828705953
0.248000000000000054,16.112517366891541570
0.249000000000000055,14.909921140610705947
0.250000000000000056,13.740953203659870496
0.251000000000000056,12.603289233882801312
0.252000000000000057,11.494800509336768002
0.253000000000000058,10.413576656547077093
0.254000000000000059,9.357940552545008117
0.255000000000000060,8.326456071958373784
0.256000000000000061,7.317929443950744073
0.257000000000000062,6.331405023974253865
0.258000000000000063,5.366156297626292648
0.259000000000000064,4.421672923508923603
0.260000000000000064,3.497644593547223568
0.261000000000000065,2.593942446908934940
0.262000000000000066,1.710598721155234703
0.263000000000000067,0.847785264735035127
0.264000000000000068,0.005791471124031921
0.265000000000000069,-0.814997870915858513
0.266000000000000070,-1.614124382445832229
0.267000000000000071,-2.391077190919344453
0.268000000000000071,-3.145313016353896263
0.269000000000000072,-3.876275003860740753
0.270000000000000073,-4.583410113811369868
0.271000000000000074,-5.266184930922211294
0.272000000000000075,-5.924099798767972658
0.273000000000000076,-6.556701226581232334
0.274000000000000077,-7.163592550681404880
0.275000000000000078,-7.744442863610098371
0.276000000000000079,-8.298994250222452962
0.277000000000000079,-8.827067391841715960
0.278000000000000080,-9.328565617409733335
0.279000000000000081,-9.803477494676945625
0.280000000000000082,-10.251878065196835976
0.281000000000000083,-10.673928834558624956
0.282000000000000084,-11.069876634240570112
0.283000000000000085,-11.440051474021135647
0.284000000000000086,-11.784863504359657682
0.285000000000000087,-12.104799206848825932
0.286000000000000087,-12.400416928028686669
0.287000000000000088,-12.672341867793765147
0.288000000000000089,-12.921260628559043226
0.289000000000000090,-13.147915425494598907
0.290000000000000091,-13.353098051684133551
0.291000000000000092,-13.537643685187324749
0.292000000000000093,-13.702424617838767418
0.293000000000000094,-13.848343978334236581
0.294000000000000095,-13.976329514851878244
0.295000000000000095,-14.087327495231139807
0.296000000000000096,-14.182296775667888156
0.297000000000000097,-14.262203082049078162
0.298000000000000098,-14.328013541498771488
0.299000000000000099,-14.380691495484331455
0.300000000000000100,-14.421191619967554942
0.301000000000000101,-14.450455372606120008
0.302000000000000102,-14.469406781929368577
0.303000000000000103,-14.478948588738830949
0.304000000000000103,-14.479958745717521396
0.305000000000000104,-14.473287277372435256
0.306000000000000105,-14.459753498971830155
0.307000000000000106,-14.440143590061817136
0.308000000000000107,-14.415208515442333947
0.309000000000000108,-14.385662284132383348
0.310000000000000109,-14.352180534841460613
0.311000000000000110,-14.315399434767249076
0.312000000000000111,-14.275914877140118975
0.313000000000000111,-14.234281961809429617
0.314000000000000112,-14.191014742296070850
0.315000000000000113,-14.146586222096829033
0.316000000000000114,-14.101428582600181727
0.317000000000000115,-14.055933624737743770
0.318000000000000116,-14.010453406432493040
0.319000000000000117,-13.965301057994849998
0.320000000000000118,-13.920751757841975049
0.321000000000000119,-13.877043851258454410
0.322000000000000119,-13.834380095360495844
0.323000000000000120,-13.792929013956708673
0.324000000000000121,-13.752826346602208929
0.325000000000000122,-13.714176576806101693
0.326000000000000123,-13.677054525063491397
0.327000000000000124,-13.641506993130960268
0.328000000000000125,-13.607554446740058651
0.329000000000000126,-13.575192724735620331
0.330000000000000127,-13.544394763428901030
0.331000000000000127,-13.515112325761171164
0.332000000000000128,-13.487277725675081541
0.333000000000000129,-13.460805538883866106
0.334000000000000130,-13.435594292006683759
0.335000000000000131,-13.411528122798884510
0.336000000000000132,-13.388478404943537470
0.337000000000000133,-13.366305331584133143
0.338000000000000134,-13.344859452464101324
0.339000000000000135,-13.323983160194979192
0.340000000000000135,-13.303512121800807222
0.341000000000000136,-13.283276652279605301
0.342000000000000137,-13.263103027483570173
0.343000000000000138,-13.242814734146872269
0.344000000000000139,-13.222233655384204809
0.345000000000000140,-13.201181190443781688
0.346000000000000141,-13.179479307926305509
0.347000000000000142,-13.156951532076703870
0.348000000000000143,-13.133423862119201431
0.349000000000000143,-13.108725624938571741
0.350000000000000144,-13.082690261713528557
0.351000000000000145,-13.055156049381471561
0.352000000000000146,-13.025966758060231854
0.353000000000000147,-12.994972245771311492
0.354000000000000148,-12.962028992003492789
0.355000000000000149,-12.927000571825264075
0.356000000000000150,-12.889758072401596323
0.357000000000000151,-12.850180453896296484
0.358000000000000151,-12.808154856846220682
0.359000000000000152,-12.763576858180108786
0.360000000000000153,-12.716350678123671258
0.361000000000000154,-12.666389340284508691
0.362000000000000155,-12.613614787247893645
0.363000000000000156,-12.557957954037311410
0.364000000000000157,-12.499358801803817087
0.365000000000000158,-12.437766314107113530
0.366000000000000159,-12.373138458138473794
0.367000000000000159,-12.305442113214018818
0.368000000000000160,-12.234652968836282838
0.369000000000000161,-12.160755394583274480
0.370000000000000162,-12.083742284039121984
0.371000000000000163,-12.003614874929009915
0.372000000000000164,-11.920382547563960429
0.373000000000000165,-11.834062603640335354
0.374000000000000166,-11.744680027373117781
0.375000000000000167,-11.652267230873883719
0.376000000000000167,-11.556863785613279205
0.377000000000000168,-11.458516141734451210
0.378000000000000169,-11.357277336909040955
0.379000000000000170,-11.253206696351778504
0.380000000000000171,-11.146369525532517031
0.381000000000000172,-11.036836797048191983
0.382000000000000173,-10.924684833039917109
0.383000000000000174,-10.809994984464349699
0.384000000000000175,-10.692853308452253458
0.385000000000000175,-10.573350244912811391
0.386000000000000176,-10.451580293468301974
0.387000000000000177,-10.327641691731546558
0.388000000000000178,-10.201636095868090948
0.389000000000000179,-10.073668264315749354
0.390000000000000180,-9.943845745467532637
0.391000000000000181,-9.812278570058419191
0.392000000000000182,-9.679078948934007443
0.393000000000000183,-9.544360976817573672
0.394000000000000183,-9.408240342634055509
0.395000000000000184,-9.270834046892925784
0.396000000000000185,-9.132260126577650183
0.397000000000000186,-8.992637387938197335
0.398000000000000187,-8.852085147533401255
0.399000000000000188,-8.710722981822915045
0.400000000000000189,-8.568670485564105377
0.401000000000000190,-8.426047039226403967
0.402000000000000191,-8.282971585596138553
0.403000000000000191,-8.139562415706237175
0.404000000000000192,-7.995936964190296870
0.405000000000000193,-7.852211614126462180
0.406000000000000194,-7.708501511405474460
0.407000000000000195,-7.564920388627970560
0.408000000000000196,-7.421580398508448972
0.409000000000000197,-7.278591956738365454
0.410000000000000198,-7.136063594237168850
0.411000000000000199,-6.994101818698230666
0.412000000000000199,-6.852810985316992287
0.413000000000000200,-6.712293176570264919
0.414000000000000201,-6.572648090899041229
0.415000000000000202,-6.433972940131939211
0.416000000000000203,-6.296362355473259065
0.417000000000000204,-6.159908301866813041
0.418000000000000205,-6.024700000536526545
0.419000000000000206,-5.890823859494896730
0.420000000000000207,-5.758363411801961540
0.421000000000000207,-5.627399261350915616
0.422000000000000208,-5.498009035949496415
0.423000000000000209,-5.370267347462171159
0.424000000000000210,-5.244245758773436350
0.425000000000000211,-5.120012757329649666
0.426000000000000212,-4.997633735014616718
0.427000000000000213,-4.877170974112330804
0.428000000000000214,-4.758683639110042662
0.429000000000000214,-4.642227774094145332
0.430000000000000215,-4.527856305492546696
0.431000000000000216,-4.415619049918123373
0.432000000000000217,-4.305562726869542445
0.433000000000000218,-4.197730976048163143
0.434000000000000219,-4.092164379052436907
0.435000000000000220,-3.988900485214286640
0.436000000000000221,-3.887973841345564896
0.437000000000000222,-3.789416025166542745
0.438000000000000222,-3.693255682192636336
0.439000000000000223,-3.599518565860144292
0.440000000000000224,-3.508227580676204660
0.441000000000000225,-3.419402828183519372
0.442000000000000226,-3.333061655535455081
0.443000000000000227,-3.249218706482150054
0.444000000000000228,-3.167885974574225383
0.445000000000000229,-3.089072858395810695
0.446000000000000230,-3.012786218644626590
0.447000000000000230,-2.939030436882328345
0.448000000000000231,-2.867807475784368343
0.449000000000000232,-2.799116940724263536
0.450000000000000233,-2.732956142533153887
0.451000000000000234,-2.669320161281357962
0.452000000000000235,-2.608201910934444978
0.453000000000000236,-2.549592204742132662
0.454000000000000237,-2.493479821224370507
0.455000000000000238,-2.439851570624237187
0.456000000000000238,-2.388692361703451006
0.457000000000000239,-2.339985268761506809
0.458000000000000240,-2.293711598765331150
0.459000000000000241,-2.249850958481393715
0.460000000000000242,-2.208381321508047002
0.461000000000000243,-2.169279095110630440
0.462000000000000244,-2.132519186767494190
0.463000000000000245,-2.098075070339620041
0.464000000000000246,-2.065918851782051036
0.465000000000000246,-2.036021334319599418
0.466000000000000247,-2.008352083014338429
0.467000000000000248,-1.982879488656780209
0.468000000000000249,-1.959570830917191753
0.469000000000000250,-1.938392340697749905
0.470000000000000251,-1.919309261630418373
0.471000000000000252,-1.902285910669464286
0.472000000000000253,-1.887285737731671187
0.473000000000000254,-1.874271384340679303
0.474000000000000254,-1.863204741236011319
0.475000000000000255,-1.854047004910551077
0.476000000000000256,-1.846758733043807554
0.477000000000000257,-1.841299898801536772
0.478000000000000258,-1.837629943975471303
0.479000000000000259,-1.835707830939834917
0.480000000000000260,-1.835492093404431202
0.481000000000000261,-1.836940885946612756
0.482000000000000262,-1.840012032307382750
0.483000000000000262,-1.844663072439173046
0.484000000000000263,-1.850851308295447195
0.485000000000000264,-1.858533848354485318
0.486000000000000265,-1.867667650872056884
0.487000000000000266,-1.878209565859569663
0.488000000000000267,-1.890116375786436320
0.489000000000000268,-1.903344835007329650
0.490000000000000269,-1.917851707916534476
0.491000000000000270,-1.933593805833637491
0.492000000000000270,-1.950528022626038860
0.493000000000000271,-1.968611369075617290
0.494000000000000272,-1.987801005997910764
0.495000000000000273,-2.008054276123935722
0.496000000000000274,-2.029328734755568409
0.497000000000000275,-2.051582179206837608
0.498000000000000276,-2.074772677044603775
0.499000000000000277,-2.098858593142756579
0.500000000000000222,-2.123798615565475778
0.501000000000000334,-2.149551780295476444
0.502000000000000224,-2.176077494824330216
0.503000000000000336,-2.203335560622435629
0.504000000000000226,-2.231286194506960197
0.505000000000000338,-2.259890048926717743
0.506000000000000227,-2.289108231183339726
0.507000000000000339,-2.318902321608791173
0.508000000000000229,-2.349234390719415089
0.509000000000000341,-2.380067015367511640
0.510000000000000231,-2.411363293911226169
0.511000000000000343,-2.443086860424380280
0.512000000000000233,-2.475201897967557407
0.513000000000000345,-2.507673150942518081
0.514000000000000234,-2.540465936551654202
0.515000000000000346,-2.573546155384706768
0.516000000000000236,-2.606880301154737900
0.517000000000000348,-2.640435469605741048
0.518000000000000238,-2.674179366613847364
0.519000000000000350,-2.708080315504599156
0.520000000000000240,-2.742107263608106305
0.521000000000000352,-2.776229788074499716
0.522000000000000242,-2.810418100971264543
0.523000000000000353,-2.844643053684734024
0.524000000000000243,-2.878876140646959847
0.525000000000000355,-2.913089502409936138
0.526000000000000245,-2.947255928088141186
0.527000000000000357,-2.981348857190834423
0.528000000000000247,-3.015342380864768579
0.529000000000000359,-3.049211242568181213
0.530000000000000249,-3.082930838196331180
0.531000000000000361,-3.116477215678863377
0.532000000000000250,-3.149827074068707766
0.533000000000000362,-3.182957762142335945
0.534000000000000252,-3.215847276530242826
0.535000000000000364,-3.248474259397185371
0.536000000000000254,-3.280817995690210154
0.537000000000000366,-3.312858409973272078
0.538000000000000256,-3.344576062866134070
0.539000000000000368,-3.375952147105339751
0.540000000000000258,-3.406968483244435131
0.541000000000000369,-3.437607515010572712
0.542000000000000259,-3.467852304333811198
0.543000000000000371,-3.497686526065650892
0.544000000000000261,-3.527094462402461605
0.545000000000000373,-3.556060997029453663
0.546000000000000263,-3.584571609000233305
0.547000000000000375,-3.612612366366903416
0.548000000000000265,-3.640169919574937296
0.549000000000000377,-3.667231494637115397
0.550000000000000266,-3.693784886100016429
0.551000000000000378,-3.719818449816636452
0.552000000000000268,-3.745321095537917699
0.553000000000000380,-3.770282279336016451
0.554000000000000270,-3.794691995871431800
0.555000000000000382,-3.818540770516042127
0.556000000000000272,-3.841819651343601372
0.557000000000000384,-3.864520200998855959
0.558000000000000274,-3.886634488456359726
0.559000000000000385,-3.908155080679347471
0.560000000000000275,-3.929075034189033921
0.561000000000000387,-3.949387886554211580
0.562000000000000277,-3.969087647810612740
0.563000000000000389,-3.988168791819505454
0.564000000000000279,-4.006626247574213373
0.565000000000000391,-4.024455390463411497
0.566000000000000281,-4.041652033499313568
0.567000000000000393,-4.058212418518970743
0.568000000000000282,-4.074133207366244847
0.569000000000000394,-4.089411473062009250
0.570000000000000284,-4.104044690969588238
0.571000000000000396,-4.118030729962518066
0.572000000000000286,-4.131367843601017498
0.573000000000000398,-4.144054661323614219
0.574000000000000288,-4.156090179659933881
0.575000000000000400,-4.167473753470559927
0.576000000000000290,-4.178205087219362568
0.577000000000000401,-4.188284226283785827
0.578000000000000291,-4.197711548308012297
0.579000000000000403,-4.206487754603963403
0.580000000000000293,-4.214613861604631140
0.581000000000000405,-4.222091192374248791
0.582000000000000295,-4.228921368179341833
0.583000000000000407,-4.235106300124741097
0.584000000000000297,-4.240648180858146432
0.585000000000000409,-4.245549476346977436
0.586000000000000298,-4.249812917730702466
0.587000000000000410,-4.253441493251887806
0.588000000000000300,-4.256438440268897061
0.589000000000000412,-4.258807237353091857
0.590000000000000302,-4.260551596473066027
0.591000000000000414,-4.261675455268470358
0.592000000000000304,-4.262182969415619027
0.593000000000000416,-4.262078505087020908
0.594000000000000306,-4.261366631506856351
0.595000000000000417,-4.260052113604179347
0.596000000000000307,-4.258139904765488204
0.597000000000000419,-4.255635139688254576
0.598000000000000309,-4.252543127336817719
0.599000000000000421,-4.248869344001791504
0.600000000000000311,-4.244619426464302236
0.601000000000000423,-4.239799165265930370
0.602000000000000313,-4.234414498085293133
0.603000000000000425,-4.228471503222093197
0.604000000000000314,-4.221976393189268428
0.605000000000000426,-4.214935508413789833
0.606000000000000316,-4.207355311046646840
0.607000000000000428,-4.199242378882267701
0.608000000000000318,-4.190603399387831551
0.609000000000000430,-4.181445163842417934
0.610000000000000320,-4.171774561586326868
0.611000000000000432,-4.161598574380375837
0.612000000000000322,-4.150924270875271382
0.613000000000000433,-4.139758801190781767
0.614000000000000323,-4.128109391604597889
0.615000000000000435,-4.115983339350508530
0.616000000000000325,-4.103388007525569314
0.617000000000000437,-4.090330820105871901
0.618000000000000327,-4.076819257070400049
0.619000000000000439,-4.062860849632399685
0.620000000000000329,-4.048463175577777129
0.621000000000000441,-4.033633854709749222
0.622000000000000330,-4.018380544399159149
0.623000000000000442,-4.002710935239631951
0.624000000000000332,-3.986632746806824112
0.625000000000000444,-3.970153723520927436
0.626000000000000334,-3.953281630611564790
0.627000000000000446,-3.936024250184128270
0.628000000000000336,-3.918389377386678696
0.629000000000000448,-3.900384816676374378
0.630000000000000338,-3.882018378184444174
0.631000000000000449,-3.863297874178655000
0.632000000000000339,-3.844231115622254613
0.633000000000000451,-3.824825908828182630
0.634000000000000341,-3.805090052207596329
0.635000000000000453,-3.785031333111432694
0.636000000000000343,-3.764657524763932450
0.637000000000000455,-3.743976383286921727
0.638000000000000345,-3.722995644813683391
0.639000000000000457,-3.701723022691129295
0.640000000000000346,-3.680166204769226734
0.641000000000000458,-3.658332850776206957
0.642000000000000348,-3.636230589778571165
0.643000000000000460,-3.613867017724389008
0.644000000000000350,-3.591249695068866377
0.645000000000000462,-3.568386144480688582
0.646000000000000352,-3.545283848628068224
0.647000000000000464,-3.521950248043030918
0.648000000000000353,-3.498392739062879286
0.649000000000000465,-3.474618671847236051
0.650000000000000355,-3.450635348469774044
0.651000000000000467,-3.426450021082930508
0.652000000000000357,-3.402069890154713505
0.653000000000000469,-3.377502102775930215
0.654000000000000359,-3.352753751036929408
0.655000000000000471,-3.327831870472257147
0.656000000000000361,-3.302743438572172785
0.657000000000000473,-3.277495373359581521
0.658000000000000362,-3.252094532031288843
0.659000000000000474,-3.226547709662143326
0.660000000000000364,-3.200861637970962903
