# AuFCC100UCD_VALSCA-AC
# h[nm],U(h)[kJ/mol]
0.149999999999999994,164.738473827440486730
0.150999999999999995,163.002746005227066917
0.151999999999999996,158.601238348580295678
0.152999999999999997,153.641094418318004955
0.153999999999999998,148.987978498991708420
0.154999999999999999,144.867161612691376149
0.156000000000000000,141.214465694975245924
0.157000000000000001,137.869471483531697231
0.158000000000000002,134.672342604255419474
0.159000000000000002,131.504239177664572935
0.160000000000000003,128.296754170547671947
0.161000000000000004,125.026060082447813215
0.162000000000000005,121.701036686998463665
0.163000000000000006,118.350518870722225984
0.164000000000000007,115.012219802878163932
0.165000000000000008,111.724332354391435729
0.166000000000000009,108.519932909236217711
0.167000000000000010,105.423861326360082558
0.168000000000000010,102.451563345595133114
0.169000000000000011,99.609347493480896674
0.170000000000000012,96.895556465463485551
0.171000000000000013,94.302238378073880654
0.172000000000000014,91.816999312497628694
0.173000000000000015,89.424810056785531742
0.174000000000000016,87.109619295798808025
0.175000000000000017,84.855689787291026960
0.176000000000000018,82.648623164411560538
0.177000000000000018,80.476074294732399039
0.178000000000000019,78.328179680442957533
0.179000000000000020,76.197738483495783157
0.180000000000000021,74.080191596367541251
0.181000000000000022,71.973445707303113750
0.182000000000000023,69.877587177089054649
0.183000000000000024,67.794526084414869160
0.184000000000000025,65.727605042765077314
0.185000000000000026,63.681201114484963455
0.186000000000000026,61.660342896086298481
0.187000000000000027,59.670358991342446586
0.188000000000000028,57.716568851631052439
0.189000000000000029,55.804022464752755184
0.190000000000000030,53.937291653413694803
0.191000000000000031,52.120312786587042808
0.192000000000000032,50.356278458305226309
0.193000000000000033,48.647574074276114686
0.194000000000000034,46.995754221159316444
0.195000000000000034,45.401553087319157953
0.196000000000000035,43.864922970723576157
0.197000000000000036,42.385094968721432451
0.198000000000000037,40.960656223234927609
0.199000000000000038,39.589638530247967196
0.200000000000000039,38.269613660716089498
0.201000000000000040,36.997791336834019660
0.202000000000000041,35.771116427334128218
0.203000000000000042,34.586362540375375829
0.204000000000000042,33.440219781751295614
0.205000000000000043,32.329374994694290990
0.206000000000000044,31.250583295552395668
0.207000000000000045,30.200730161257375528
0.208000000000000046,29.176883707252262212
0.209000000000000047,28.176337118437992046
0.210000000000000048,27.196641462696156566
0.211000000000000049,26.235629330011335014
0.212000000000000050,25.291429904459057809
0.213000000000000050,24.362476196240606896
0.214000000000000051,23.447505241706956269
0.215000000000000052,22.545552126160821160
0.216000000000000053,21.655938702273822116
0.217000000000000054,20.778257871076213803
0.218000000000000055,19.912354267205266467
0.219000000000000056,19.058302149577201590
0.220000000000000057,18.216381246591971887
0.221000000000000058,17.387051244675820527
0.222000000000000058,16.570925543254229950
0.223000000000000059,15.768744830568437010
0.224000000000000060,14.981350965133245268
0.225000000000000061,14.209661578763109091
0.226000000000000062,13.454645750308682040
0.227000000000000063,12.717301035596531023
0.228000000000000064,11.998632079336719158
0.229000000000000065,11.299630979510572715
0.230000000000000066,10.621259524340453950
0.231000000000000066,9.964433376564311828
0.232000000000000067,9.330008239452343588
0.233000000000000068,8.718768003751366180
0.234000000000000069,8.131414844382161888
0.235000000000000070,7.568561210028194708
0.236000000000000071,7.030723627474325887
0.237000000000000072,6.518318225374772013
0.238000000000000073,6.031657868722292370
0.239000000000000073,5.570950785313685927
0.240000000000000074,5.136300558609393718
0.241000000000000075,4.727707357229028240
0.242000000000000076,4.345070269570052268
0.243000000000000077,3.988190612365464460
0.244000000000000078,3.656776084101736046
0.245000000000000079,3.350445637817073052
0.246000000000000080,3.068734952626786416
0.247000000000000081,2.811102389135578417
0.248000000000000081,2.576935320476441138
0.249000000000000082,2.365556737864571435
0.250000000000000111,2.176232037095905181
0.251000000000000112,2.008175900199338670
0.252000000000000113,1.860559194333252009
0.253000000000000114,1.732515817885671439
0.254000000000000115,1.623149431491857531
0.255000000000000115,1.531540019243795570
0.256000000000000116,1.456750232661518041
0.257000000000000117,1.397831476974338294
0.258000000000000118,1.353829705877573897
0.259000000000000119,1.323790897154736301
0.260000000000000120,1.306766187365066445
0.261000000000000121,1.301816649178124230
0.262000000000000122,1.308017699882951801
0.263000000000000123,1.324463134110565932
0.264000000000000123,1.350268777888297134
0.265000000000000124,1.384575764804112374
0.266000000000000125,1.426553438309293931
0.267000000000000126,1.475401887047200322
0.268000000000000127,1.530354122580068532
0.269000000000000128,1.590677911016818324
0.270000000000000129,1.655677271842660003
0.271000000000000130,1.724693658738699842
0.272000000000000131,1.797106838378400129
0.273000000000000131,1.872335484121454341
0.274000000000000132,1.949837502215050478
0.275000000000000133,2.029110108581334337
0.276000000000000134,2.109689674538653748
0.277000000000000135,2.191151359893127371
0.278000000000000136,2.273108551767404784
0.279000000000000137,2.355212127322769966
0.280000000000000138,2.437149558196928467
0.281000000000000139,2.518643874040967567
0.282000000000000139,2.599452502008587906
0.283000000000000140,2.679365998445543351
0.284000000000000141,2.758206688359166048
0.285000000000000142,2.835827227529990502
0.286000000000000143,2.912109101370963238
0.287000000000000144,2.986961073855133542
0.288000000000000145,3.060317599028280711
0.289000000000000146,3.132137206808729424
0.290000000000000147,3.202400873958161753
0.291000000000000147,3.271110390292767622
0.292000000000000148,3.338286729398004749
0.293000000000000149,3.403968432318560389
0.294000000000000150,3.468210011921913694
0.295000000000000151,3.531080384881952305
0.296000000000000152,3.592661337503410657
0.297000000000000153,3.653046030908449815
0.298000000000000154,3.712337550438179701
0.299000000000000155,3.770647503483547602
0.300000000000000155,3.828094669354425328
0.301000000000000156,3.884803704223342979
0.302000000000000157,3.940903903641160611
0.303000000000000158,3.996528024616736730
0.304000000000000159,4.051811168780758088
0.305000000000000160,4.106889727715893557
0.306000000000000161,4.161900391129208288
0.307000000000000162,4.216979218169390364
0.308000000000000163,4.272260771848968020
0.309000000000000163,4.327877316219077564
0.310000000000000164,4.383958075661605669
0.311000000000000165,4.440628555408418165
0.312000000000000166,4.498009922168971109
0.313000000000000167,4.556218443545181351
0.314000000000000168,4.615364984733975717
0.315000000000000169,4.675554560862646092
0.316000000000000170,4.736885943168386959
0.317000000000000171,4.799451317120155380
0.318000000000000171,4.863335990486907789
0.319000000000000172,4.928618149279753169
0.320000000000000173,4.995368659435769132
0.321000000000000174,5.063650912066912646
0.322000000000000175,5.133520710066968640
0.323000000000000176,5.205026193852194893
0.324000000000000177,5.278207804006091131
0.325000000000000178,5.353098278603968474
0.326000000000000179,5.429722683008225026
0.327000000000000179,5.508098469949548992
0.328000000000000180,5.588235567741247856
0.329000000000000181,5.670136494512552083
0.330000000000000182,5.753796496393011495
0.331000000000000183,5.839203707629772033
0.332000000000000184,5.926339330675883588
0.333000000000000185,6.015177834346871144
0.334000000000000186,6.105687168205846227
0.335000000000000187,6.197828991403287802
0.336000000000000187,6.291558914265435121
0.337000000000000188,6.386826750995193258
0.338000000000000189,6.483576781920308285
0.339000000000000190,6.581748023795552349
0.340000000000000191,6.681274506738114738
0.341000000000000192,6.782085556447377428
0.342000000000000193,6.884106080433264552
0.343000000000000194,6.987256857048063985
0.344000000000000195,7.091454826188508420
0.345000000000000195,7.196613380604001797
0.346000000000000196,7.302642656816006550
0.347000000000000197,7.409449824720782729
0.348000000000000198,7.516939375013149238
0.349000000000000199,7.625013403633258413
0.350000000000000200,7.733571892500131995
0.351000000000000201,7.842512985856357588
0.352000000000000202,7.951733261606219294
0.353000000000000203,8.061127997085776542
0.354000000000000203,8.170591428757724373
0.355000000000000204,8.280017005375187367
0.356000000000000205,8.389297634208855214
0.357000000000000206,8.498325919978922727
0.358000000000000207,8.606994396178958340
0.359000000000000208,8.715195748521610497
0.360000000000000209,8.822823030277209710
0.361000000000000210,8.929769869315052233
0.362000000000000210,9.035930666693749558
0.363000000000000211,9.141200786681681123
0.364000000000000212,9.245476738121009674
0.365000000000000213,9.348656347079430162
0.366000000000000214,9.450638920762106210
0.367000000000000215,9.551325402683207955
0.368000000000000216,9.650618519121092476
0.369000000000000217,9.748422916904306845
0.370000000000000218,9.844645292596844399
0.371000000000000218,9.939194513170832579
0.372000000000000219,10.031981728272670651
0.373000000000000220,10.122920474205432839
0.374000000000000221,10.211926769764991363
0.375000000000000222,10.298919204081334655
0.376000000000000223,10.383819016628404341
0.377000000000000224,10.466550169577104157
0.378000000000000225,10.547039412675498937
0.379000000000000226,10.625216340849121366
0.380000000000000226,10.701013444721491297
0.381000000000000227,10.774366154261505457
0.382000000000000228,10.845212875769831840
0.383000000000000229,10.913495022420557135
0.384000000000000230,10.979157038578540195
0.385000000000000231,11.042146418115112994
0.386000000000000232,11.102413716947067357
0.387000000000000233,11.159912560025155415
0.388000000000000234,11.214599642998853923
0.389000000000000234,11.266434728784007646
0.390000000000000235,11.315380639259704054
0.391000000000000236,11.361403242319038753
0.392000000000000237,11.404471434497462923
0.393000000000000238,11.444557119399627609
0.394000000000000239,11.481635182143534735
0.395000000000000240,11.515683460037834607
0.396000000000000241,11.546682709704708003
0.397000000000000242,11.574616570857319431
0.398000000000000242,11.599471526936955712
0.399000000000000243,11.621236862810755852
0.400000000000000244,11.639904619726973323
0.401000000000000245,11.655469547719418344
0.402000000000000246,11.667929055649008063
0.403000000000000247,11.677283159064685947
0.404000000000000248,11.683534426061427780
0.405000000000000249,11.686687921307864713
0.406000000000000250,11.686751148410838397
0.407000000000000250,11.683733990779044731
0.408000000000000251,11.677648651142659375
0.409000000000000252,11.668509589880383004
0.410000000000000253,11.656333462300281667
0.411000000000000254,11.641139055015127468
0.412000000000000255,11.622947221548020735
0.413000000000000256,11.601780817298372739
0.414000000000000257,11.577664633993455467
0.415000000000000258,11.550625333745129453
0.416000000000000258,11.520691382826621307
0.417000000000000259,11.487892985278612912
0.418000000000000260,11.452262016449449078
0.419000000000000261,11.413831956568767367
0.420000000000000262,11.372637824449395083
0.421000000000000263,11.328716111407301170
0.422000000000000264,11.282104715484905455
0.423000000000000265,11.232842876058331427
0.424000000000000266,11.180971108904673272
0.425000000000000266,11.126531141801141445
0.426000000000000267,11.069565850723439127
0.427000000000000268,11.010119196706771305
0.428000000000000269,10.948236163428614276
0.429000000000000270,10.883962695568785151
0.430000000000000271,10.817345637997979324
0.431000000000000272,10.748432675842867212
0.432000000000000273,10.677272275471718643
0.433000000000000274,10.603913626441464402
0.434000000000000274,10.528406584443269267
0.435000000000000275,10.450801615281093859
0.436000000000000276,10.371149739913937182
0.437000000000000277,10.289502480589849398
0.438000000000000278,10.205911808096818305
0.439000000000000279,10.120430090152783720
0.440000000000000280,10.033110040954316133
0.441000000000000281,9.944004671901252479
0.442000000000000282,9.853167243511530060
0.443000000000000282,9.760651218538788143
0.444000000000000283,9.666510216302494740
0.445000000000000284,9.570797968238588638
0.446000000000000285,9.473568274676321010
0.447000000000000286,9.374874962845282766
0.448000000000000287,9.274771846114454377
0.449000000000000288,9.173312684463699185
0.450000000000000289,9.070551146186060620
0.451000000000000290,8.966540770818054895
0.452000000000000290,8.861334933293369076
0.453000000000000291,8.754986809314011964
0.454000000000000292,8.647549341931789257
0.455000000000000293,8.539075209331478788
0.456000000000000294,8.429616793806200548
0.457000000000000295,8.319226151914138612
0.458000000000000296,8.207954985804772008
0.459000000000000297,8.095854615702098300
0.460000000000000298,7.982975953530891289
0.461000000000000298,7.869369477671933844
0.462000000000000299,7.755085208830655219
0.463000000000000300,7.640172687003486729
0.464000000000000301,7.524680949525260232
0.465000000000000302,7.408658510180679002
0.466000000000000303,7.292153339361827413
0.467000000000000304,7.175212845254018035
0.468000000000000305,7.057883856030983338
0.469000000000000306,6.940212603040622596
0.470000000000000306,6.822244704962010076
0.471000000000000307,6.704025152913855479
0.472000000000000308,6.585598296494754145
0.473000000000000309,6.467007830734905482
0.474000000000000310,6.348296783939297860
0.475000000000000311,6.229507506401486872
0.476000000000000312,6.110681659968092205
0.477000000000000313,5.991860208432626678
0.478000000000000314,5.873083408738628997
0.479000000000000314,5.754390802971050434
0.480000000000000315,5.635821211115354501
0.481000000000000316,5.517412724563655502
0.482000000000000317,5.399202700347328410
0.483000000000000318,5.281227756075535851
0.484000000000000319,5.163523765559344447
0.485000000000000320,5.046125855101112556
0.486000000000000321,4.929068400429000185
0.487000000000000322,4.812385024256672139
0.488000000000000322,4.696108594448304530
0.489000000000000323,4.580271222769485284
0.490000000000000324,4.464904264204355044
0.491000000000000325,4.350038316820032058
0.492000000000000326,4.235703222159203918
0.493000000000000327,4.121928066142359626
0.494000000000000328,4.008741180461070641
0.495000000000000329,3.896170144444205619
0.496000000000000330,3.784241787379202471
0.497000000000000330,3.672982191270678154
0.498000000000000331,3.562416694019102437
0.499000000000000332,3.452569893002592316
0.500000000000000333,3.343465649044822463
0.501000000000000334,3.235127090752874857
0.502000000000000335,3.127576619208730424
0.503000000000000336,3.020835912998742323
0.504000000000000337,2.914925933565378990
0.505000000000000338,2.809866930866285806
0.506000000000000338,2.705678449325660928
0.507000000000000339,2.602379334063411598
0.508000000000000340,2.499987737387943998
0.509000000000000341,2.398521125538691123
0.510000000000000342,2.297996285664740235
0.511000000000000343,2.198429333026372667
0.512000000000000344,2.099835718406580565
0.513000000000000345,2.002230235720023011
0.514000000000000346,1.905627029806977735
0.515000000000000346,1.810039604400553781
0.516000000000000347,1.715480830255342592
0.517000000000000348,1.621962953426295595
0.518000000000000349,1.529497603686695850
0.519000000000000350,1.438095803074693313
0.520000000000000351,1.347767974557806392
0.521000000000000352,1.258523950805434222
0.522000000000000353,1.170372983059587257
0.523000000000000353,1.083323750094158600
0.524000000000000354,0.997384367253834947
0.525000000000000355,0.912562395563387363
0.526000000000000356,0.828864850899013406
0.527000000000000357,0.746298213213214656
0.528000000000000358,0.664868435805033853
0.529000000000000359,0.584580954628204807
0.530000000000000360,0.505440697629266467
0.531000000000000361,0.427452094108661362
0.532000000000000361,0.350619084097614941
0.533000000000000362,0.274945127744212425
0.534000000000000363,0.200433214702010642
0.535000000000000364,0.127085873514971054
0.536000000000000365,0.054905180992742976
0.537000000000000366,-0.016107228429581500
0.538000000000000367,-0.085950153352742170
0.539000000000000368,-0.154622816100967425
0.540000000000000369,-0.222124853441163672
0.541000000000000369,-0.288456307338458506
0.542000000000000370,-0.353617615752839787
0.543000000000000371,-0.417609603481395641
0.544000000000000372,-0.480433473050364213
0.545000000000000373,-0.542090795661114733
0.546000000000000374,-0.602583502194002030
0.547000000000000375,-0.661913874273684533
0.548000000000000376,-0.720084535399544645
0.549000000000000377,-0.777098442144445345
0.550000000000000377,-0.832958875425149237
0.551000000000000378,-0.887669431847190493
0.552000000000000379,-0.941234015127249912
0.553000000000000380,-0.993656827595551961
0.554000000000000381,-1.044942361780901718
0.555000000000000382,-1.095095392080701613
0.556000000000000383,-1.144120966518158866
0.557000000000000384,-1.192024398588797274
0.558000000000000385,-1.238811259198189019
0.559000000000000385,-1.284487368692747378
0.560000000000000386,-1.329058788985230111
0.561000000000000387,-1.372531815776535158
0.562000000000000388,-1.414912970875177090
0.563000000000000389,-1.456208994615856733
0.564000000000000390,-1.496426838378162261
0.565000000000000391,-1.535573657206664944
0.566000000000000392,-1.573656802533271115
0.567000000000000393,-1.610683815002751373
0.568000000000000393,-1.646662417402215528
0.569000000000000394,-1.681600507695232505
0.570000000000000395,-1.715506152161176745
0.571000000000000396,-1.748387578640247408
0.572000000000000397,-1.780253169884670417
0.573000000000000398,-1.811111457016343795
0.574000000000000399,-1.840971113091149691
0.575000000000000400,-1.869840946770207513
0.576000000000000401,-1.897729896098025559
0.577000000000000401,-1.924647022387714568
0.578000000000000402,-1.950601504213106185
0.579000000000000403,-1.975602631507730411
0.580000000000000404,-1.999659799770473256
0.581000000000000405,-2.022782504377634183
0.582000000000000406,-2.044980335001178595
0.583000000000000407,-2.066262970132715537
0.584000000000000408,-2.086640171712958569
0.585000000000000409,-2.106121779866049426
0.586000000000000409,-2.124717707738372319
0.587000000000000410,-2.142437936441285107
0.588000000000000411,-2.159292510097092332
0.589000000000000412,-2.175291530987803590
0.590000000000000413,-2.190445154805805039
0.591000000000000414,-2.204763586005893838
0.592000000000000415,-2.218257073257865919
0.593000000000000416,-2.230935904998860853
0.594000000000000417,-2.242810405084711078
0.595000000000000417,-2.253890928539421079
0.596000000000000418,-2.264187857401880333
0.597000000000000419,-2.273711596669017787
0.598000000000000420,-2.282472570334336037
0.599000000000000421,-2.290481217521014745
0.600000000000000422,-2.297747988708537914
0.601000000000000423,-2.304283342051861361
0.602000000000000424,-2.310097739792175364
0.603000000000000425,-2.315201644758214439
0.604000000000000425,-2.319605516956996460
0.605000000000000426,-2.323319810253083428
0.606000000000000427,-2.326354969135191908
0.607000000000000428,-2.328721425569077574
0.608000000000000429,-2.330429595935695097
0.609000000000000430,-2.331489878053395248
0.610000000000000431,-2.331912648283188894
0.611000000000000432,-2.331708258715841531
0.612000000000000433,-2.330887034439756089
0.613000000000000433,-2.329459270888489364
0.614000000000000434,-2.327435231266751892
0.615000000000000435,-2.324825144053741521
0.616000000000000436,-2.321639200582724882
0.617000000000000437,-2.317887552695679254
0.618000000000000438,-2.313580310471832213
