# AuFCC100UCD_CS-693-AC
# h[nm],U(h)[kJ/mol]
0.200000000000000011,116.724096397591779350
0.201000000000000012,110.537546037830978207
0.202000000000000013,106.683764933310129663
0.203000000000000014,103.841871173697697373
0.204000000000000015,101.304655136872042931
0.205000000000000016,98.739819999095928438
0.206000000000000016,96.031867066255841792
0.207000000000000017,93.180271394226096504
0.208000000000000018,90.236327352776925181
0.209000000000000019,87.266040289932249152
0.210000000000000020,84.330124150573340103
0.211000000000000021,81.474861023998329301
0.212000000000000022,78.729535359323136845
0.213000000000000023,76.107561821158157045
0.214000000000000024,73.609424584156371907
0.215000000000000024,71.226245326284526982
0.216000000000000025,68.943278466067226873
0.217000000000000026,66.742955994752392712
0.218000000000000027,64.607315690545192410
0.219000000000000028,62.519778870040148888
0.220000000000000029,60.466321523838288954
0.221000000000000030,58.436123402050199616
0.222000000000000031,56.421796069153991482
0.223000000000000032,54.419292138459454122
0.224000000000000032,52.427590096106122530
0.225000000000000033,50.448236611037202692
0.226000000000000034,48.484813837165340544
0.227000000000000035,46.542384753994625157
0.228000000000000036,44.626956145295039846
0.229000000000000037,42.744986965632520537
0.230000000000000038,40.902959839417235344
0.231000000000000039,39.107025306507004814
0.232000000000000040,37.362722068016672949
0.233000000000000040,35.674771715979090914
0.234000000000000041,34.046943035427901236
0.235000000000000042,32.481978722808719340
0.236000000000000043,30.981576053611355803
0.237000000000000044,29.546412455723135793
0.238000000000000045,28.176206927134181512
0.239000000000000046,26.869808626097658077
0.240000000000000047,25.625304632251452830
0.241000000000000048,24.440139725461914821
0.242000000000000048,23.311241973308103326
0.243000000000000049,22.235148894813725917
0.244000000000000050,21.208129929833877014
0.245000000000000051,20.226301856340974439
0.246000000000000052,19.285734638666902185
0.247000000000000053,18.382545944295202389
0.248000000000000054,17.512983227770451577
0.249000000000000055,16.673492845738401513
0.250000000000000056,15.860776139042609856
0.251000000000000056,15.071832801008692826
0.252000000000000057,14.303992152272337890
0.253000000000000058,13.554933169656052883
0.254000000000000059,12.822694278160430059
0.255000000000000060,12.105674019759884885
0.256000000000000061,11.402623768847165664
0.257000000000000062,10.712633679921150787
0.258000000000000063,10.035113035950081084
0.259000000000000064,9.369766122597729563
0.260000000000000064,8.716564690280499406
0.261000000000000065,8.075717988208230835
0.262000000000000066,7.447641266799483795
0.263000000000000067,6.832923551121436567
0.264000000000000068,6.232295391593937417
0.265000000000000069,5.646597201838846836
0.266000000000000070,5.076748699430714495
0.267000000000000071,4.523719875111773980
0.268000000000000071,3.988503831058643812
0.269000000000000072,3.472091749941412786
0.270000000000000073,2.975450184407326226
0.271000000000000074,2.499500791592925708
0.272000000000000075,2.045102579446263835
0.273000000000000076,1.613036680978801485
0.274000000000000077,1.203993628872046084
0.275000000000000078,0.818563065843419535
0.276000000000000079,0.457225795449152095
0.277000000000000079,0.120348053134951449
0.278000000000000080,-0.191822142132837159
0.279000000000000081,-0.479156709906651213
0.280000000000000082,-0.741647468405340349
0.281000000000000083,-0.979404503492678602
0.282000000000000084,-1.192653120074742557
0.283000000000000085,-1.381729549411187641
0.284000000000000086,-1.547075583220897332
0.285000000000000087,-1.689232300735544090
0.286000000000000087,-1.808833048392034515
0.287000000000000088,-1.906595824002696116
0.288000000000000089,-1.983315208313303213
0.289000000000000090,-2.039853977135095864
0.290000000000000091,-2.077134516965845279
0.291000000000000092,-2.096130156418325896
0.292000000000000093,-2.097856515040084080
0.293000000000000094,-2.083362960402342701
0.294000000000000095,-2.053724253795104371
0.295000000000000095,-2.010032454605977570
0.296000000000000096,-1.953389143577028531
0.297000000000000097,-1.884898015701481411
0.298000000000000098,-1.805657884598773411
0.299000000000000099,-1.716756131836321142
0.300000000000000100,-1.619262626877435052
0.301000000000000101,-1.514224136145623234
0.302000000000000102,-1.402659233114595505
0.303000000000000103,-1.285553715357731441
0.304000000000000103,-1.163856529113587834
0.305000000000000104,-1.038476197130677514
0.306000000000000105,-0.910277741325099976
0.307000000000000106,-0.780080088095177149
0.308000000000000107,-0.648653940962683029
0.309000000000000108,-0.516720102519939273
0.310000000000000109,-0.384948225426626933
0.311000000000000110,-0.253955970388208496
0.312000000000000111,-0.124308547626272969
0.313000000000000111,0.003481382710582515
0.314000000000000112,0.128953476481249940
0.315000000000000113,0.251699163556306504
0.316000000000000114,0.371360823787379890
0.317000000000000115,0.487630706771786937
0.318000000000000116,0.600249620966905040
0.319000000000000117,0.709005417249532699
0.320000000000000118,0.813731291397904122
0.321000000000000119,0.914303929220640965
0.322000000000000119,1.010641517189578398
0.323000000000000120,1.102701640472474764
0.324000000000000121,1.190479089224987019
0.325000000000000122,1.274003592906144844
0.326000000000000123,1.353337501243540020
0.327000000000000124,1.428573429307026244
0.328000000000000125,1.499831882965220631
0.329000000000000126,1.567258879809795502
0.330000000000000127,1.631023579447085980
0.331000000000000127,1.691315935883854760
0.332000000000000128,1.748344383582737693
0.333000000000000129,1.802333567637909750
0.334000000000000130,1.853522127429704458
0.335000000000000131,1.902160542061925641
0.336000000000000132,1.948509044872272167
0.337000000000000133,1.992835613336421563
0.338000000000000134,2.035414039763804972
0.339000000000000135,2.076522087307747899
0.340000000000000135,2.116439734987932919
0.341000000000000136,2.155447514647539808
0.342000000000000137,2.193824942042653880
0.343000000000000138,2.231849043586839887
0.344000000000000139,2.269792979648737941
0.345000000000000140,2.307924764724119449
0.346000000000000141,2.346506084275701731
0.347000000000000142,2.385791207551886117
0.348000000000000143,2.426025995258556556
0.349000000000000143,2.467447000564855664
0.350000000000000144,2.510280661571624439
0.351000000000000145,2.554742583059343097
0.352000000000000146,2.601036905058221382
0.353000000000000147,2.649355755544900770
0.354000000000000148,2.699878784365927320
0.355000000000000149,2.752772775316176368
0.356000000000000150,2.808191333157910918
0.357000000000000151,2.866274642252125915
0.358000000000000151,2.927149293385709505
0.359000000000000152,2.990928175313958270
0.360000000000000153,3.057710427496414418
0.361000000000000154,3.127581450482823655
0.362000000000000155,3.200612970403803992
0.363000000000000156,3.276863154035420500
0.364000000000000157,3.356376770937351317
0.365000000000000158,3.439185399208179117
0.366000000000000159,3.525307671458302483
0.367000000000000159,3.614749557668692326
0.368000000000000160,3.707504681680929171
0.369000000000000161,3.803554668150435081
0.370000000000000162,3.902869516887947476
0.371000000000000163,4.005408001613821156
0.372000000000000164,4.111118090255120983
0.373000000000000165,4.219937384023947580
0.374000000000000166,4.331793572628697575
0.375000000000000167,4.446604903084627303
0.376000000000000167,4.564280659707259602
0.377000000000000168,4.684721652990340601
0.378000000000000169,4.807820715188601213
0.379000000000000170,4.933463200544021099
0.380000000000000171,5.061527488212606229
0.381000000000000172,5.191885486065085153
0.382000000000000173,5.324403133650855935
0.383000000000000174,5.458940902727581701
0.384000000000000175,5.595354293870661522
0.385000000000000175,5.733494327785185085
0.386000000000000176,5.873208030049578809
0.387000000000000177,6.014338908123013638
0.388000000000000178,6.156727419548741587
0.389000000000000179,6.300211430382415045
0.390000000000000180,6.444626662967509745
0.391000000000000181,6.589807132270154355
0.392000000000000182,6.735585570071279449
0.393000000000000183,6.881793836397330111
0.394000000000000183,7.028263317649015463
0.395000000000000184,7.174825310963005798
0.396000000000000185,7.321311394413262619
0.397000000000000186,7.467553782725941502
0.398000000000000187,7.613385668246581695
0.399000000000000188,7.758641546958658708
0.400000000000000189,7.903157529409504889
0.401000000000000190,8.046771636453740939
0.402000000000000191,8.189324079773751208
0.403000000000000191,8.330657527184580857
0.404000000000000192,8.470617352773547992
0.405000000000000193,8.609051871965803571
0.406000000000000194,8.745812561644486394
0.407000000000000195,8.880754265488613797
0.408000000000000196,9.013735384723661426
0.409000000000000197,9.144618054508832472
0.410000000000000198,9.273268306211182477
0.411000000000000199,9.399556215840901174
0.412000000000000199,9.523356038943424196
0.413000000000000200,9.644546332263004729
0.414000000000000201,9.763010062509701825
0.415000000000000202,9.878634702576471582
0.416000000000000203,9.991312315565718194
0.417000000000000204,10.100939626996318310
0.418000000000000205,10.207418085570667543
0.419000000000000206,10.310653912889423012
0.420000000000000207,10.410558142507564838
0.421000000000000207,10.507046648729577498
0.422000000000000208,10.600040165545349780
0.423000000000000209,10.689464296109562724
0.424000000000000210,10.775249513168592586
0.425000000000000211,10.857331150838103184
0.426000000000000212,10.935649388133191096
0.427000000000000213,11.010149224650367827
0.428000000000000214,11.080780448797380444
0.429000000000000214,11.147497598962710086
0.430000000000000215,11.210259918011569624
0.431000000000000216,11.269031301489688346
0.432000000000000217,11.323780239910032464
0.433000000000000218,11.374479755490643385
0.434000000000000219,11.421107333704680897
0.435000000000000220,11.463644849995983321
0.436000000000000221,11.502078492005299637
0.437000000000000222,11.536398677643971311
0.438000000000000222,11.566599969343116072
0.439000000000000223,11.592680984797086197
0.440000000000000224,11.614644304511317685
0.441000000000000225,11.632496376454721343
0.442000000000000226,11.646247418107483540
0.443000000000000227,11.655911316185683546
0.444000000000000228,11.661505524314094373
0.445000000000000229,11.663050958909080279
0.446000000000000230,11.660571893523499654
0.447000000000000230,11.654095851896119740
0.448000000000000231,11.643653499937913764
0.449000000000000232,11.629278536878260297
0.450000000000000233,11.611007585784506091
0.451000000000000234,11.588880083658509079
0.452000000000000235,11.562938171304960377
0.453000000000000236,11.533226583156562128
0.454000000000000237,11.499792537232240264
0.455000000000000238,11.462685625395661049
0.456000000000000238,11.421957704072436712
0.457000000000000239,11.377662785575845206
0.458000000000000240,11.329856930182456765
0.459000000000000241,11.278598139090792785
0.460000000000000242,11.223946248388187996
0.461000000000000243,11.165962824143026211
0.462000000000000244,11.104711058732139151
0.463000000000000245,11.040255668505475128
0.464000000000000246,10.972662792883102867
0.465000000000000246,10.901999894972647098
0.466000000000000247,10.828335663788349663
0.467000000000000248,10.751739918146492769
0.468000000000000249,10.672283512305694941
0.469000000000000250,10.590038243414186425
0.470000000000000251,10.505076760820637460
0.471000000000000252,10.417472477299208222
0.472000000000000253,10.327299482234028716
0.473000000000000254,10.234632456803312905
0.474000000000000254,10.139546591197959202
0.475000000000000255,10.042117503904925968
0.476000000000000256,9.942421163080927826
0.477000000000000257,9.840533810037692675
0.478000000000000258,9.736531884855562424
0.479000000000000259,9.630491954138690858
0.480000000000000260,9.522490640920686644
0.481000000000000261,9.412604556726355653
0.482000000000000262,9.300910235791507219
0.483000000000000262,9.187484071439753208
0.484000000000000263,9.072402254611748873
0.485000000000000264,8.955740714539945913
0.486000000000000265,8.837575061558487377
0.487000000000000266,8.717980532036033736
0.488000000000000267,8.597031935416213244
0.489000000000000268,8.474803603348496139
0.490000000000000269,8.351369340890025583
0.491000000000000270,8.226802379756916750
0.492000000000000270,8.101175333601720041
0.493000000000000271,7.974560155291966268
0.494000000000000272,7.847028096163347399
0.495000000000000273,7.718649667218937971
0.496000000000000274,7.589494602245613564
0.497000000000000275,7.459631822816483293
0.498000000000000276,7.329129405147573273
0.499000000000000277,7.198054548776168460
0.500000000000000222,7.066473547026549618
0.501000000000000334,6.934451759228986489
0.502000000000000224,6.802053584656358787
0.503000000000000336,6.669342438142368046
0.504000000000000226,6.536380727345187935
0.505000000000000338,6.403229831618863166
0.506000000000000227,6.269950082455880036
0.507000000000000339,6.136600745462261308
0.508000000000000229,6.003240003828127946
0.509000000000000341,5.869924943254543948
0.510000000000000231,5.736711538299411828
0.511000000000000343,5.603654640102972984
0.512000000000000233,5.470807965455580124
0.513000000000000345,5.338224087168404353
0.514000000000000234,5.205954425709842681
0.515000000000000346,5.074049242068555898
0.516000000000000236,4.942557631806233864
0.517000000000000348,4.811527520261440038
0.518000000000000238,4.681005658868135910
0.519000000000000350,4.551037622550781592
0.520000000000000240,4.421667808160310464
0.521000000000000352,4.292939433913644187
0.522000000000000242,4.164894539801703210
0.523000000000000353,4.037573988929426427
0.524000000000000243,3.911017469753744535
0.525000000000000355,3.785263499183942226
0.526000000000000245,3.660349426511229076
0.527000000000000357,3.536311438133046270
0.528000000000000247,3.413184563039993513
0.529000000000000359,3.291002679032065892
0.530000000000000249,3.169798519632981204
0.531000000000000361,3.049603681670693955
0.532000000000000250,2.930448633493972110
0.533000000000000362,2.812362723794135988
0.534000000000000252,2.695374191003453213
0.535000000000000364,2.579510173240047610
0.536000000000000254,2.464796718772392925
0.537000000000000366,2.351258796974463827
0.538000000000000256,2.238920309745625836
0.539000000000000368,2.127804103367944677
0.540000000000000258,2.017931980776068279
0.541000000000000369,1.909324714213574081
0.542000000000000259,1.802002058252427874
0.543000000000000371,1.695982763150643446
0.544000000000000261,1.591284588525754051
0.545000000000000373,1.487924317320978185
0.546000000000000263,1.385917770042634611
0.547000000000000375,1.285279819246786248
0.548000000000000265,1.186024404255344278
0.549000000000000377,1.088164546080521156
0.550000000000000266,0.991712362539100667
0.551000000000000378,0.896679083536847665
0.552000000000000268,0.803075066505413715
0.553000000000000380,0.710909811973517991
0.554000000000000270,0.620191979255782511
0.555000000000000382,0.530929402242166892
0.556000000000000272,0.443129105272539014
0.557000000000000384,0.356797319080535469
0.558000000000000274,0.271939496792148017
0.559000000000000385,0.188560329964462925
0.560000000000000275,0.106663764651023341
0.561000000000000387,0.026253017480190897
0.562000000000000277,-0.052669408265826077
0.563000000000000389,-0.130101706584050819
0.564000000000000279,-0.206042752707157939
0.565000000000000391,-0.280492087095051801
0.566000000000000281,-0.353449899471904527
0.567000000000000393,-0.424917012919510451
0.568000000000000282,-0.494894868036369118
0.569000000000000394,-0.563385507172463273
0.570000000000000284,-0.630391558748149450
0.571000000000000396,-0.695916221666470491
0.572000000000000286,-0.759963249826391851
0.573000000000000398,-0.822536936745295932
0.574000000000000288,-0.883642100297698185
0.575000000000000400,-0.943284067577594976
0.576000000000000290,-1.001468659890643709
0.577000000000000401,-1.058202177882921369
0.578000000000000291,-1.113491386811713113
0.579000000000000403,-1.167343501964324792
0.580000000000000293,-1.219766174229772293
0.581000000000000405,-1.270767475828681548
0.582000000000000295,-1.320355886205512252
0.583000000000000407,-1.368540278087952089
0.584000000000000297,-1.415329903716882942
0.585000000000000409,-1.460734381251220793
0.586000000000000298,-1.504763681350518967
0.587000000000000410,-1.547428113938954075
0.588000000000000300,-1.588738315153184200
0.589000000000000412,-1.628705234477114017
0.590000000000000302,-1.667340122065583241
0.591000000000000414,-1.704654516259479946
0.592000000000000304,-1.740660231293963189
0.593000000000000416,-1.775369345201641025
0.594000000000000306,-1.808794187912118545
0.595000000000000417,-1.840947329549353029
0.596000000000000307,-1.871841568927679944
0.597000000000000419,-1.901489922247649789
0.598000000000000309,-1.929905611992263958
0.599000000000000421,-1.957102056024161429
0.600000000000000311,-1.983092856884186572
0.601000000000000423,-2.007891791291553485
0.602000000000000313,-2.031512799845505146
0.603000000000000425,-2.053969976928708085
0.604000000000000314,-2.075277560811723099
0.605000000000000426,-2.095449923958582428
0.606000000000000316,-2.114501563532649620
0.607000000000000428,-2.132447092102336850
0.608000000000000318,-2.149301228545861253
0.609000000000000430,-2.165078789154148531
0.610000000000000320,-2.179794678930944585
0.611000000000000432,-2.193463883089070254
0.612000000000000322,-2.206101458741609456
0.613000000000000433,-2.217722526786775283
0.614000000000000323,-2.228342263985139571
0.615000000000000435,-2.237975895227721779
0.616000000000000325,-2.246638685993405549
0.617000000000000437,-2.254345934994224532
0.618000000000000327,-2.261112967006650987
0.619000000000000439,-2.266955125887314182
0.620000000000000329,-2.271887767771292754
0.621000000000000441,-2.275926254451101194
0.622000000000000330,-2.279085946934524820
0.623000000000000442,-2.281382199179316395
0.624000000000000332,-2.282830352002692464
0.625000000000000444,-2.283445727163691874
0.626000000000000334,-2.283243621616209307
0.627000000000000446,-2.282239301930608644
0.628000000000000336,-2.280447998881760086
0.629000000000000448,-2.277884902201311235
0.630000000000000338,-2.274565155491911295
0.631000000000000449,-2.270503851301237663
0.632000000000000339,-2.265716026353476575
0.633000000000000451,-2.260216656935965407
0.634000000000000341,-2.254020654438733118
0.635000000000000453,-2.247142861044594042
0.636000000000000343,-2.239598045567422702
0.637000000000000455,-2.231400899436311924
0.638000000000000345,-2.222566032823206861
0.639000000000000457,-2.213107970911673217
0.640000000000000346,-2.203041150304446472
0.641000000000000458,-2.192379915567329363
0.642000000000000348,-2.181138515907152353
0.643000000000000460,-2.169331101981303522
0.644000000000000350,-2.156971722836603877
0.645000000000000462,-2.144074322974978575
0.646000000000000352,-2.130652739543758223
0.647000000000000464,-2.116720699648072745
0.648000000000000353,-2.102291817783154215
0.649000000000000465,-2.087379593384016463
0.650000000000000355,-2.071997408490430015
0.651000000000000467,-2.056158525524587777
0.652000000000000357,-2.039876085179484821
0.653000000000000469,-2.023163104415330871
0.654000000000000359,-2.006032474562162271
0.655000000000000471,-1.988496959526000918
0.656000000000000361,-1.970569194096589261
0.657000000000000473,-1.952261682354293981
0.658000000000000362,-1.933586796174134204
0.659000000000000474,-1.914556773824616753
0.660000000000000364,-1.895183718659294581
0.661000000000000476,-1.875479597898837891
0.662000000000000366,-1.855456241501598269
0.663000000000000478,-1.835125341120396714
0.664000000000000368,-1.814498449143656655
0.665000000000000480,-1.793586977818659722
0.666000000000000369,-1.772402198454981370
0.667000000000000481,-1.750955240706079108
