# AuFCC100UCD_CS-730-AC
# h[nm],U(h)[kJ/mol]
0.200000000000000011,120.513389411628665471
0.201000000000000012,112.213909104770749536
0.202000000000000013,107.479109437102877678
0.203000000000000014,104.335659457098842040
0.204000000000000015,101.692868066012167105
0.205000000000000016,99.012066449876002139
0.206000000000000016,96.083902016463710538
0.207000000000000017,92.881908885252499886
0.208000000000000018,89.469247690209471102
0.209000000000000019,85.941881922463423393
0.210000000000000020,82.396196053598359299
0.211000000000000021,78.912559751056718937
0.212000000000000022,75.548907579987229610
0.213000000000000023,72.340267948826209476
0.214000000000000024,69.301516555146676524
0.215000000000000024,66.431583343450284929
0.216000000000000025,63.718010237030192400
0.217000000000000026,61.141216662786440850
0.218000000000000027,58.678138862485710092
0.219000000000000028,56.305110173641956806
0.220000000000000029,53.999974688337204043
0.221000000000000030,51.743499325208027528
0.222000000000000031,49.520186380428022233
0.223000000000000032,47.318602294402900554
0.224000000000000032,45.131337372611078251
0.225000000000000033,42.954701602314955267
0.226000000000000034,40.788247663194908910
0.227000000000000035,38.634196498735590808
0.228000000000000036,36.496825158325208349
0.229000000000000037,34.381862095288767023
0.230000000000000038,32.295922283555015042
0.231000000000000039,30.246003636058958364
0.232000000000000040,28.239057297138792535
0.233000000000000040,26.281637331806280145
0.234000000000000041,24.379629963845747653
0.235000000000000042,22.538058602959964105
0.236000000000000043,20.760958219437608108
0.237000000000000044,19.051310950825545376
0.238000000000000045,17.411033953685908671
0.239000000000000046,15.841010262042363621
0.240000000000000047,14.341153624600815775
0.241000000000000048,12.910498832067279551
0.242000000000000048,11.547309804171888459
0.243000000000000049,10.249198595069501039
0.244000000000000050,9.013249426363135086
0.245000000000000051,7.836142816222968932
0.246000000000000052,6.714275802019967543
0.247000000000000053,5.643875125133114956
0.248000000000000054,4.621101042098736400
0.249000000000000055,3.642140135499558173
0.250000000000000056,2.703286116218075463
0.251000000000000056,1.801008135615980832
0.252000000000000057,0.932006564806534543
0.253000000000000058,0.093256553715321294
0.254000000000000059,-0.717960038171880255
0.255000000000000060,-1.504033536946478566
0.256000000000000061,-2.267015222972837751
0.257000000000000062,-3.008614923455106727
0.258000000000000063,-3.730206326512681692
0.259000000000000064,-4.432838898978375575
0.260000000000000064,-5.117255305082166750
0.261000000000000065,-5.783913262249299692
0.262000000000000066,-6.433010827842322144
0.263000000000000067,-7.064514181893743583
0.264000000000000068,-7.678187051460954926
0.265000000000000069,-8.273621008560336776
0.266000000000000070,-8.850265962663733887
0.267000000000000071,-9.407460257972498852
0.268000000000000071,-9.944459873104005254
0.269000000000000072,-10.460466304859327380
0.270000000000000073,-10.954652797187000246
0.271000000000000074,-11.426188650450487927
0.272000000000000075,-11.874261414063091991
0.273000000000000076,-12.298096827124361141
0.274000000000000077,-12.696976426733497689
0.275000000000000078,-13.070252792178029821
0.276000000000000079,-13.417362435347317984
0.277000000000000079,-13.737836383743950108
0.278000000000000080,-14.031308532682615464
0.279000000000000081,-14.297521868053484795
0.280000000000000082,-14.536332680797496408
0.281000000000000083,-14.747712909428866368
0.282000000000000084,-14.931750757990911893
0.283000000000000085,-15.088649744186199086
0.284000000000000086,-15.218726336515320696
0.285000000000000087,-15.322406340508360145
0.286000000000000087,-15.400220192935947239
0.287000000000000088,-15.452797319616857763
0.288000000000000089,-15.480859707442775175
0.289000000000000090,-15.485214834838942011
0.290000000000000091,-15.466748097360204284
0.291000000000000092,-15.426414856752449722
0.292000000000000093,-15.365232232819721503
0.293000000000000094,-15.284270748039350707
0.294000000000000095,-15.184645925241312625
0.295000000000000095,-15.067509928972308231
0.296000000000000096,-14.934043331535317378
0.297000000000000097,-14.785447075245452098
0.298000000000000098,-14.622934693267524153
0.299000000000000099,-14.447724842578423932
0.300000000000000100,-14.261034194187383051
0.301000000000000101,-14.064070717798793808
0.302000000000000102,-13.858027390648661736
0.303000000000000103,-13.644076353310543581
0.304000000000000103,-13.423363528863607286
0.305000000000000104,-13.197003715949488623
0.306000000000000105,-12.966076160913848625
0.307000000000000106,-12.731620609423988100
0.308000000000000107,-12.494633833663975508
0.309000000000000108,-12.256066627414536896
0.310000000000000109,-12.016821258006496365
0.311000000000000110,-11.777749361271030892
0.312000000000000111,-11.539650263171171929
0.313000000000000111,-11.303269709761694983
0.314000000000000112,-11.069298985460589435
0.315000000000000113,-10.838374398297183632
0.316000000000000114,-10.611077109802719676
0.317000000000000115,-10.387933286500295793
0.318000000000000116,-10.169414549506381462
0.319000000000000117,-9.955938698549976706
0.320000000000000118,-9.747870686721400446
0.321000000000000119,-9.545523822458358509
0.322000000000000119,-9.349161175638148080
0.323000000000000120,-9.158997165150882580
0.324000000000000121,-8.975199305958636131
0.325000000000000122,-8.797890094381148884
0.326000000000000123,-8.627149011171896476
0.327000000000000124,-8.463014622842850443
0.328000000000000125,-8.305486762648476073
0.329000000000000126,-8.154528773633320071
0.330000000000000127,-8.010069797172764794
0.331000000000000127,-7.872007091481781238
0.332000000000000128,-7.740208365619878350
0.333000000000000129,-7.614514115575810926
0.334000000000000130,-7.494739950062468736
0.335000000000000131,-7.380678894686212743
0.336000000000000132,-7.272103664167298476
0.337000000000000133,-7.168768893276064702
0.338000000000000134,-7.070413318107088507
0.339000000000000135,-6.976761900238360070
0.340000000000000135,-6.887527887210306510
0.341000000000000136,-6.802414803609043936
0.342000000000000137,-6.721118367846972141
0.343000000000000138,-6.643328330500841261
0.344000000000000139,-6.568730230791400615
0.345000000000000140,-6.497007068470042945
0.346000000000000141,-6.427840889015120851
0.347000000000000142,-6.360914280635272533
0.348000000000000143,-6.295911782129114620
0.349000000000000143,-6.232521201160226454
0.350000000000000144,-6.170434842975661027
0.351000000000000145,-6.109350650024984120
0.352000000000000146,-6.048973253327419641
0.353000000000000147,-5.989014936787631527
0.354000000000000148,-5.929196515978198079
0.355000000000000149,-5.869248133189557848
0.356000000000000150,-5.808909970798921130
0.357000000000000151,-5.747932885228697941
0.358000000000000151,-5.686078963955114141
0.359000000000000152,-5.623122008189773702
0.360000000000000153,-5.558847943993366236
0.361000000000000154,-5.493055164692316694
0.362000000000000155,-5.425554807558333081
0.363000000000000156,-5.356170967778770553
0.364000000000000157,-5.284740852793735399
0.365000000000000158,-5.211114880106586078
0.366000000000000159,-5.135156721687528680
0.367000000000000159,-5.056743298088660410
0.368000000000000160,-4.975764725373507780
0.369000000000000161,-4.892124217935739594
0.370000000000000162,-4.805737950242730427
0.371000000000000163,-4.716534880490337756
0.372000000000000164,-4.624456539096372332
0.373000000000000165,-4.529456784894689392
0.374000000000000166,-4.431501531817842121
0.375000000000000167,-4.330568448777506241
0.376000000000000167,-4.226646635367409033
0.377000000000000168,-4.119736275924783975
0.378000000000000169,-4.009848274394344436
0.379000000000000170,-3.897003872343954178
0.380000000000000171,-3.781234252383742778
0.381000000000000172,-3.662580129142271268
0.382000000000000173,-3.541091329853268466
0.383000000000000174,-3.416826366506926060
0.384000000000000175,-3.289852001419147687
0.385000000000000175,-3.160242807972980739
0.386000000000000176,-3.028080728187301673
0.387000000000000177,-2.893454628670284468
0.388000000000000178,-2.756459856418993049
0.389000000000000179,-2.617197795831763152
0.390000000000000180,-2.475775428207772411
0.391000000000000181,-2.332304894917459404
0.392000000000000182,-2.186903065340012997
0.393000000000000183,-2.039691110577950717
0.394000000000000183,-1.890794083876636833
0.395000000000000184,-1.740340508596143199
0.396000000000000185,-1.588461974505496865
0.397000000000000186,-1.435292743095436974
0.398000000000000187,-1.280969362533961764
0.399000000000000188,-1.125630292820657186
0.400000000000000189,-0.969415541630644029
0.401000000000000190,-0.812466311275964359
0.402000000000000191,-0.654924657153628020
0.403000000000000191,-0.496933157992194841
0.404000000000000192,-0.338634598155977629
0.405000000000000193,-0.180171662214936551
0.406000000000000194,-0.021686641940690188
0.407000000000000195,0.136678844155743828
0.408000000000000196,0.294784118671360229
0.409000000000000197,0.452489700509905446
0.410000000000000198,0.609657547435076830
0.411000000000000199,0.766151286015860022
0.412000000000000199,0.921836429033539462
0.413000000000000200,1.076580580449366220
0.414000000000000201,1.230253628059356785
0.415000000000000202,1.382727923987778329
0.416000000000000203,1.533878453193426639
0.417000000000000204,1.683582990184439243
0.418000000000000205,1.831722244155567836
0.419000000000000206,1.978179992779404373
0.420000000000000207,2.122843204898450686
0.421000000000000207,2.265602152377902190
0.422000000000000208,2.406350511391922797
0.423000000000000209,2.544985453425761879
0.424000000000000210,2.681407726285729431
0.425000000000000211,2.815521725416318954
0.426000000000000212,2.947235555830223674
0.427000000000000213,3.076461084962131221
0.428000000000000214,3.203113986760976584
0.429000000000000214,3.327113777338522205
0.430000000000000215,3.448383842493729645
0.431000000000000216,3.566851457433325212
0.432000000000000217,3.682447799009336276
0.433000000000000218,3.795107950793195073
0.434000000000000219,3.904770901304738029
0.435000000000000220,4.011379535712181976
0.436000000000000221,4.114880621316220122
0.437000000000000222,4.215224787128050821
0.438000000000000222,4.312366497847014202
0.439000000000000223,4.406264022539104985
0.440000000000000224,4.496879398312819021
0.441000000000000225,4.584178389283262156
0.442000000000000226,4.668130441109774154
0.443000000000000227,4.748708631386612922
0.444000000000000228,4.825889616159495077
0.445000000000000229,4.899653572834712811
0.446000000000000230,4.969984139740327933
0.447000000000000230,5.036868352592554388
0.448000000000000231,5.100296578112836876
0.449000000000000232,5.160262445034256906
0.450000000000000233,5.216762772728541719
0.451000000000000234,5.269797497677413567
0.452000000000000235,5.319369598004846544
0.453000000000000236,5.365485016279166075
0.454000000000000237,5.408152580786415697
0.455000000000000238,5.447383925469262422
0.456000000000000238,5.483193408717859541
0.457000000000000239,5.515598031192153528
0.458000000000000240,5.544617352847362568
0.459000000000000241,5.570273409327515246
0.460000000000000242,5.592590627884389320
0.461000000000000243,5.611595742972435019
0.462000000000000244,5.627317711663065936
0.463000000000000245,5.639787629014966441
0.464000000000000246,5.649038643530314374
0.465000000000000246,5.655105872820111124
0.466000000000000247,5.658026319595466980
0.467000000000000248,5.657838788095334692
0.468000000000000249,5.654583801054879011
0.469000000000000250,5.648303517312769806
0.470000000000000251,5.639041650149726692
0.471000000000000252,5.626843386445003148
0.472000000000000253,5.611755306731721404
0.473000000000000254,5.593825306226841043
0.474000000000000254,5.573102516906078385
0.475000000000000255,5.549637230689085321
0.476000000000000256,5.523480823795312133
0.477000000000000257,5.494685682326133858
0.478000000000000258,5.463305129124232273
0.479000000000000259,5.429393351956973035
0.480000000000000260,5.393005333065874929
0.481000000000000261,5.354196780120569876
0.482000000000000262,5.313024058611287792
0.483000000000000262,5.269544125710528881
0.484000000000000263,5.223814465630477244
0.485000000000000264,5.175893026499665872
0.486000000000000265,5.125838158778608822
0.487000000000000266,5.073708555231295492
0.488000000000000267,5.019563192466229395
0.489000000000000268,4.963461274057602068
0.490000000000000269,4.905462175254823975
0.491000000000000270,4.845625389285559415
0.492000000000000270,4.784010475255185746
0.493000000000000271,4.720677007643061529
0.494000000000000272,4.655684527393945338
0.495000000000000273,4.589092494600264693
0.496000000000000274,4.520960242769701765
0.497000000000000275,4.451346934669925481
0.498000000000000276,4.380311519740816451
0.499000000000000277,4.307912693063075338
0.500000000000000222,4.234208855869927568
0.501000000000000334,4.159258077587892899
0.502000000000000224,4.083118059390585586
0.503000000000000336,4.005846099248560499
0.504000000000000226,3.927499058457094350
0.505000000000000338,3.848133329622232424
0.506000000000000227,3.767804806085163882
0.507000000000000339,3.686568852763175919
0.508000000000000229,3.604480278385511216
0.509000000000000341,3.521593309100629732
0.510000000000000231,3.437961563431890966
0.511000000000000343,3.353638028556700679
0.512000000000000233,3.268675037884951173
0.513000000000000345,3.183124249910746162
0.514000000000000234,3.097036628312244577
0.515000000000000346,3.010462423272838084
0.516000000000000236,2.923451153997783436
0.517000000000000348,2.836051592398832533
0.518000000000000238,2.748311747920549664
0.519000000000000350,2.660278853480415595
0.520000000000000240,2.571999352496090463
0.521000000000000352,2.483518886971797013
0.522000000000000242,2.394882286616990985
0.523000000000000353,2.306133558969145181
0.524000000000000243,2.217315880494008073
0.525000000000000355,2.128471588635206579
0.526000000000000245,2.039642174786610695
0.527000000000000357,1.950868278159651137
0.528000000000000247,1.862189680519244162
0.529000000000000359,1.773645301760969684
0.530000000000000249,1.685273196303337162
0.531000000000000361,1.597110550268409757
0.532000000000000250,1.509193679425091750
0.533000000000000362,1.421558027868701224
0.534000000000000252,1.334238167412048481
0.535000000000000364,1.247267797661822941
0.536000000000000254,1.160679746756482444
0.537000000000000366,1.074505972740056325
0.538000000000000256,0.988777565548550341
0.539000000000000368,0.903524749584389775
0.540000000000000258,0.818776886856148911
0.541000000000000369,0.734562480659761041
0.542000000000000259,0.650909179779399327
0.543000000000000371,0.567843783184979634
0.544000000000000261,0.485392245205037820
0.545000000000000373,0.403579681153228287
0.546000000000000263,0.322430373387783242
0.547000000000000375,0.241967777782849197
0.548000000000000265,0.162214530592360490
0.549000000000000377,0.083192455685897754
0.550000000000000266,0.004922572138109382
0.551000000000000378,-0.072574897847794070
0.552000000000000268,-0.149280520700287023
0.553000000000000380,-0.225175642941857046
0.554000000000000270,-0.300242382370507765
0.555000000000000382,-0.374463618977870449
0.556000000000000272,-0.447822985620115355
0.557000000000000384,-0.520304858458150443
0.558000000000000274,-0.591894347182610581
0.559000000000000385,-0.662577285039101516
0.560000000000000275,-0.732340218668341647
0.561000000000000387,-0.801170397775946674
0.562000000000000277,-0.869055764645473738
0.563000000000000389,-0.935984943508779921
0.564000000000000279,-1.001947229786422033
0.565000000000000391,-1.066932579211313570
0.566000000000000281,-1.130931596847574827
0.567000000000000393,-1.193935526016996151
0.568000000000000282,-1.255936237144277046
0.569000000000000394,-1.316926216532668947
0.570000000000000284,-1.376898555080310782
0.571000000000000396,-1.435846936948347974
0.572000000000000286,-1.493765628190270034
0.573000000000000398,-1.550649465352685663
0.574000000000000288,-1.606493844056490428
0.575000000000000400,-1.661294707567834816
0.576000000000000290,-1.715048535367093674
0.577000000000000401,-1.767752331724668169
0.578000000000000291,-1.819403614291140059
0.579000000000000403,-1.870000402709849796
0.580000000000000293,-1.919541207258892657
0.581000000000000405,-1.968025017530009801
0.582000000000000295,-2.015451291150580637
0.583000000000000407,-2.061819942555768836
0.584000000000000297,-2.107131331816371134
0.585000000000000409,-2.151386253528821069
0.586000000000000298,-2.194585925772423174
0.587000000000000410,-2.236731979139623405
0.588000000000000300,-2.277826445843939673
0.589000000000000412,-2.317871748910794061
0.590000000000000302,-2.356870691455397182
0.591000000000000414,-2.394826446052382707
0.592000000000000304,-2.431742544200964140
0.593000000000000416,-2.467622865889684824
0.594000000000000306,-2.502471629264232611
0.595000000000000417,-2.536293380401918096
0.596000000000000307,-2.569092983195763846
0.597000000000000419,-2.600875609351453566
0.598000000000000309,-2.631646728499793753
0.599000000000000421,-2.661412098427293316
0.600000000000000311,-2.690177755427337836
0.601000000000000423,-2.717950004774218886
0.602000000000000313,-2.744735411321860052
0.603000000000000425,-2.770540790229531147
0.604000000000000314,-2.795373197815796296
0.605000000000000426,-2.819239922542707166
0.606000000000000316,-2.842148476131307611
0.607000000000000428,-2.864106584809915201
0.608000000000000318,-2.885122180696251704
0.609000000000000430,-2.905203393314373272
0.610000000000000320,-2.924358541247235710
0.611000000000000432,-2.942596123925717677
0.612000000000000322,-2.959924813554549949
0.613000000000000433,-2.976353447175735578
0.614000000000000323,-2.991891018869796248
0.615000000000000435,-3.006546672095086858
0.616000000000000325,-3.020329692165257374
0.617000000000000437,-3.033249498865084881
0.618000000000000327,-3.045315639204394298
0.619000000000000439,-3.056537780310098817
0.620000000000000329,-3.066925702456033243
0.621000000000000441,-3.076489292230260908
0.622000000000000330,-3.085238535839485596
0.623000000000000442,-3.093183512550074621
0.624000000000000332,-3.100334388265054031
0.625000000000000444,-3.106701409236600320
0.626000000000000334,-3.112294895913174209
0.627000000000000446,-3.117125236920625486
0.628000000000000336,-3.121202883176420251
0.629000000000000448,-3.124538342136117031
0.630000000000000338,-3.127142172171080148
0.631000000000000449,-3.129024977076576342
0.632000000000000339,-3.130197400709109345
0.633000000000000451,-3.130670121751894630
0.634000000000000341,-3.130453848607412493
0.635000000000000453,-3.129559314415858662
0.636000000000000343,-3.127997272198176137
0.637000000000000455,-3.125778490122594899
0.638000000000000345,-3.122913746893196674
0.639000000000000457,-3.119413827259363892
0.640000000000000346,-3.115289517644657558
0.641000000000000458,-3.110551601893797979
0.642000000000000348,-3.105210857136341041
0.643000000000000460,-3.099278049765615606
0.644000000000000350,-3.092763931531513855
0.645000000000000462,-3.085679235745614424
0.646000000000000352,-3.078034673597211945
0.647000000000000464,-3.069840930578738636
0.648000000000000353,-3.061108663019067144
0.649000000000000465,-3.051848494723123473
0.650000000000000355,-3.042071013716399985
0.651000000000000467,-3.031786769092642775
0.652000000000000357,-3.021006267963384229
0.653000000000000469,-3.009739972507472050
0.654000000000000359,-2.997998297119371713
0.655000000000000471,-2.985791605654369185
0.656000000000000361,-2.973130208769280358
0.657000000000000473,-2.960024361357015632
0.658000000000000362,-2.946484260073473305
0.659000000000000474,-2.932520040955137297
0.660000000000000364,-2.918141777125854652
0.661000000000000476,-2.903359476591162114
0.662000000000000366,-2.888183080118686519
0.663000000000000478,-2.872622459202921252
0.664000000000000368,-2.856687414112970114
0.665000000000000480,-2.840387672021597698
