# AuFCC100UCD_BSAI9
# h[nm],U(h)[kJ/mol]
0.149999999999999994,140.717075762944290318
0.150999999999999995,137.223468760554681012
0.151999999999999996,132.647694221830363404
0.152999999999999997,127.906589495034637594
0.153999999999999998,123.371329720092447246
0.154999999999999999,119.133365943361212658
0.156000000000000000,115.159055122003948668
0.157000000000000001,111.374313163849365083
0.158000000000000002,107.706671764117260182
0.159000000000000002,104.102529842429547102
0.160000000000000003,100.530880526528392238
0.161000000000000004,96.980441579353197312
0.162000000000000005,93.454259333539269505
0.163000000000000006,89.964022876744451196
0.164000000000000007,86.525184204337250549
0.165000000000000008,83.153298989416811082
0.166000000000000009,79.861620755601109067
0.167000000000000010,76.659788733375108905
0.168000000000000010,73.553372614618623970
0.169000000000000011,70.544026971288218419
0.170000000000000012,67.630032796295068920
0.171000000000000013,64.807043805856537233
0.172000000000000014,62.068899093184448645
0.173000000000000015,59.408404935142939962
0.174000000000000016,56.818023851823156178
0.175000000000000017,54.290437283898903331
0.176000000000000018,51.818969563125598654
0.177000000000000018,49.397875925268962760
0.178000000000000019,47.022507152804379871
0.179000000000000020,44.689369103484068546
0.180000000000000021,42.396097888605865478
0.181000000000000022,40.141371697992482837
0.182000000000000023,37.924778966818806225
0.183000000000000024,35.746660333118896347
0.184000000000000025,33.607939096922052613
0.185000000000000026,31.509951995188238527
0.186000000000000026,29.454289283411185352
0.187000000000000027,27.442650516623853463
0.188000000000000028,25.476720138565298157
0.189000000000000029,23.558065059916209805
0.190000000000000030,21.688054842843232706
0.191000000000000031,19.867803894437059853
0.192000000000000032,18.098134175965533643
0.193000000000000033,16.379556319744807524
0.194000000000000034,14.712266668757868260
0.195000000000000034,13.096157573523779405
0.196000000000000035,11.530838255794833458
0.197000000000000036,10.015663642546311252
0.198000000000000037,8.549768753842268865
0.199000000000000038,7.132106466555496738
0.200000000000000039,5.761486749273451835
0.201000000000000040,4.436615753126599060
0.202000000000000041,3.156133433873262284
0.203000000000000042,1.918648661105597952
0.204000000000000042,0.722771032760290089
0.205000000000000043,-0.432861148272478236
0.206000000000000044,-1.549557067079915029
0.207000000000000045,-2.628553907871436834
0.208000000000000046,-3.671001677853833023
0.209000000000000047,-4.677952212151986089
0.210000000000000048,-5.650352128245311079
0.211000000000000049,-6.589039422777602795
0.212000000000000050,-7.494743349780638830
0.213000000000000050,-8.368087184717602156
0.214000000000000051,-9.209593460662711450
0.215000000000000052,-10.019691258793933741
0.216000000000000053,-10.798725142721027126
0.217000000000000054,-11.546965342708929825
0.218000000000000055,-12.264618819494646829
0.219000000000000056,-12.951840866264209495
0.220000000000000057,-13.608746939815905108
0.221000000000000058,-14.235424446560420719
0.222000000000000058,-14.831944244607376149
0.223000000000000059,-15.398371658751965896
0.224000000000000060,-15.934776839902514922
0.225000000000000061,-16.441244333738506356
0.226000000000000062,-16.917881754669927830
0.227000000000000063,-17.364827490133333043
0.228000000000000064,-17.782257386666728394
0.229000000000000065,-18.170390392920278799
0.230000000000000066,-18.529493155723191222
0.231000000000000066,-18.859883583555394182
0.232000000000000067,-19.161933407331261492
0.233000000000000068,-19.436069781403453760
0.234000000000000069,-19.682775978281018325
0.235000000000000070,-19.902591238893485581
0.236000000000000071,-20.096109846505065377
0.237000000000000072,-20.263979496781225009
0.238000000000000073,-20.406899039229450921
0.239000000000000073,-20.525615666469423815
0.240000000000000074,-20.620921627728257874
0.241000000000000075,-20.693650541782140806
0.242000000000000076,-20.744673382452337052
0.243000000000000077,-20.774894206871465485
0.244000000000000078,-20.785245693216669594
0.245000000000000079,-20.776684550593241596
0.246000000000000080,-20.750186859374800008
0.247000000000000081,-20.706743395670564212
0.248000000000000081,-20.647354988798301889
0.249000000000000082,-20.573027955778236731
0.250000000000000111,-20.484769652004153784
0.251000000000000112,-20.383584172455719852
0.252000000000000113,-20.270468233146658577
0.253000000000000114,-20.146407257997520190
0.254000000000000115,-20.012371692019904401
0.255000000000000115,-19.869313557623591748
0.256000000000000116,-19.718163267035304642
0.257000000000000117,-19.559826700258405197
0.258000000000000118,-19.395182554718275014
0.259000000000000119,-19.225079969732476570
0.260000000000000120,-19.050336426218212438
0.261000000000000121,-18.871735919598872755
0.262000000000000122,-18.690027401691491349
0.263000000000000123,-18.505923485437996590
0.264000000000000123,-18.320099404676138732
0.265000000000000124,-18.133192219717859217
0.266000000000000125,-17.945800258301918717
0.267000000000000126,-17.758482780497768516
0.268000000000000127,-17.571759855347504953
0.269000000000000128,-17.386112436424205896
0.270000000000000129,-17.201982623046063736
0.271000000000000130,-17.019774093599700393
0.272000000000000131,-16.839852697279830807
0.273000000000000131,-16.662547190530865748
0.274000000000000132,-16.488150104566194898
0.275000000000000133,-16.316918730530048265
0.276000000000000134,-16.149076209141117744
0.277000000000000135,-15.984812712006839064
0.278000000000000136,-15.824286702210113020
0.279000000000000137,-15.667626262235751611
0.280000000000000138,-15.514930477814449006
0.281000000000000139,-15.366270866806010176
0.282000000000000139,-15.221692842815595981
0.283000000000000140,-15.081217203827744555
0.284000000000000141,-14.944841636746781788
0.285000000000000142,-14.812542229343488742
0.286000000000000143,-14.684274981720317754
0.287000000000000144,-14.559977310016620322
0.288000000000000145,-14.439569535678057122
0.289000000000000146,-14.322956354204871232
0.290000000000000147,-14.210028277871211699
0.291000000000000147,-14.100663047467918432
0.292000000000000148,-13.994727008662632528
0.293000000000000149,-13.892076449091737445
0.294000000000000150,-13.792558892796794368
0.295000000000000151,-13.696014349093465157
0.296000000000000152,-13.602276513411073466
0.297000000000000153,-13.511173918067578725
0.298000000000000154,-13.422531031344689723
0.299000000000000155,-13.336169303604037850
0.300000000000000155,-13.251908159535409126
0.301000000000000156,-13.169565935953405855
0.302000000000000157,-13.088960764860122055
0.303000000000000158,-13.009911401768004424
0.304000000000000159,-12.932237999531258410
0.305000000000000160,-12.855762828164188250
0.306000000000000161,-12.780310941334906971
0.307000000000000162,-12.705710790410266853
0.308000000000000163,-12.631794787096044530
0.309000000000000163,-12.558399815865225690
0.310000000000000164,-12.485367697497794737
0.311000000000000165,-12.412545605168565643
0.312000000000000166,-12.339786434616952349
0.313000000000000167,-12.266949130013975022
0.314000000000000168,-12.193898967209372941
0.315000000000000169,-12.120507796095719044
0.316000000000000170,-12.046654243867923384
0.317000000000000171,-11.972223880986739175
0.318000000000000171,-11.897109351674039601
0.319000000000000172,-11.821210470777591794
0.320000000000000173,-11.744434288843624614
0.321000000000000174,-11.666695127227917794
0.322000000000000175,-11.587914585061609429
0.323000000000000176,-11.508021519866316495
0.324000000000000177,-11.426952003585618911
0.325000000000000178,-11.344649255767453866
0.326000000000000179,-11.261063555594533980
0.327000000000000179,-11.176152134418206430
0.328000000000000180,-11.089879050406333150
0.329000000000000181,-11.002215046867878101
0.330000000000000182,-10.913137395765662774
0.331000000000000183,-10.822629727876844186
0.332000000000000184,-10.730681851005710925
0.333000000000000185,-10.637289557597878087
0.334000000000000186,-10.542454423048507550
0.335000000000000187,-10.446183595939574573
0.336000000000000187,-10.348489581384130886
0.337000000000000188,-10.249390018597322793
0.338000000000000189,-10.148907453757097130
0.339000000000000190,-10.047069109160155165
0.340000000000000191,-9.943906649622290317
0.341000000000000192,-9.839455947017302861
0.342000000000000193,-9.733756843793010205
0.343000000000000194,-9.626852916250566494
0.344000000000000195,-9.518791238319888492
0.345000000000000195,-9.409622146513987317
0.346000000000000196,-9.299399006694697434
0.347000000000000197,-9.188177983234648849
0.348000000000000198,-9.076017811113818112
0.349000000000000199,-8.962979571443716154
0.350000000000000200,-8.849126470869634886
0.351000000000000201,-8.734523625259054569
0.352000000000000202,-8.619237848045013806
0.353000000000000203,-8.503337443554780606
0.354000000000000203,-8.386892005617536228
0.355000000000000204,-8.269972221710252924
0.356000000000000205,-8.152649682867695091
0.357000000000000206,-8.034996699551012256
0.358000000000000207,-7.917086123639525574
0.359000000000000208,-7.798991176682397608
0.360000000000000209,-7.680785284519987322
0.361000000000000210,-7.562541918359807269
0.362000000000000210,-7.444334442368498728
0.363000000000000211,-7.326235967819168415
0.364000000000000212,-7.208319213812922399
0.365000000000000213,-7.090656374574047405
0.366000000000000214,-6.973318993300763324
0.367000000000000215,-6.856377842536538481
0.368000000000000216,-6.739902811012139061
0.369000000000000217,-6.623962796894028671
0.370000000000000218,-6.508625607362252374
0.371000000000000218,-6.393957864428848836
0.372000000000000219,-6.280024916897271048
0.373000000000000220,-6.166890758353523516
0.374000000000000221,-6.054617951071046278
0.375000000000000222,-5.943267555703452665
0.376000000000000223,-5.832899066632450058
0.377000000000000224,-5.723570352832027197
0.378000000000000225,-5.615337604104830405
0.379000000000000226,-5.508255282541937525
0.380000000000000226,-5.402376079053591518
0.381000000000000227,-5.297750874814953548
0.382000000000000228,-5.194428707468750517
0.383000000000000229,-5.092456741924442198
0.384000000000000230,-4.991880245592058785
0.385000000000000231,-4.892742567888307192
0.386000000000000232,-4.795085123851619890
0.387000000000000233,-4.698947381703169057
0.388000000000000234,-4.604366854191069613
0.389000000000000234,-4.511379093556056930
0.390000000000000235,-4.420017689957587592
0.391000000000000236,-4.330314273201407715
0.392000000000000237,-4.242298517610731068
0.393000000000000238,-4.155998149885808957
0.394000000000000239,-4.071438959798408419
0.395000000000000240,-3.988644813570628944
0.396000000000000241,-3.907637669789898016
0.397000000000000242,-3.828437597714999363
0.398000000000000242,-3.751062797830987172
0.399000000000000243,-3.675529624513986793
0.400000000000000244,-3.601852610670022159
0.401000000000000245,-3.530044494215867523
0.402000000000000246,-3.460116246272759266
0.403000000000000247,-3.392077100947787471
0.404000000000000248,-3.325934586581335672
0.405000000000000249,-3.261694558342463246
0.406000000000000250,-3.199361232057906790
0.407000000000000250,-3.138937219164078307
0.408000000000000251,-3.080423562675110638
0.409000000000000252,-3.023819774063891686
0.410000000000000253,-2.969123870956421385
0.411000000000000254,-2.916332415543976708
0.412000000000000255,-2.865440553620793196
0.413000000000000256,-2.816442054159044694
0.414000000000000257,-2.769329349336107082
0.415000000000000258,-2.724093574933088568
0.416000000000000258,-2.680724611026755078
0.417000000000000259,-2.639211122900715356
0.418000000000000260,-2.599540602105037568
0.419000000000000261,-2.561699407596790934
0.420000000000000262,-2.525672806897417910
0.421000000000000263,-2.491445017206002532
0.422000000000000264,-2.458999246410546125
0.423000000000000265,-2.428317733942649603
0.424000000000000266,-2.399381791423929489
0.425000000000000266,-2.372171843055309814
0.426000000000000267,-2.346667465703345279
0.427000000000000268,-2.322847428640478107
0.428000000000000269,-2.300689732898745454
0.429000000000000270,-2.280171650199141364
0.430000000000000271,-2.261269761421420554
0.431000000000000272,-2.243959994581449902
0.432000000000000273,-2.228217662285736811
0.433000000000000274,-2.214017498634976988
0.434000000000000274,-2.201333695550744540
0.435000000000000275,-2.190139938501484806
0.436000000000000276,-2.180409441606200094
0.437000000000000277,-2.172114982096005953
0.438000000000000278,-2.165228934115818404
0.439000000000000279,-2.159723301850184907
0.440000000000000280,-2.155569751959015790
0.441000000000000281,-2.152739645310669303
0.442000000000000282,-2.151204068001585146
0.443000000000000282,-2.150933861652926105
0.444000000000000283,-2.151899652976497546
0.445000000000000284,-2.154071882603370902
0.446000000000000285,-2.157420833170043739
0.447000000000000286,-2.161916656658415814
0.448000000000000287,-2.167529400986730970
0.449000000000000288,-2.174229035850170799
0.450000000000000289,-2.181985477810616025
0.451000000000000290,-2.190768614636205314
0.452000000000000290,-2.200548328892358629
0.453000000000000291,-2.211294520786776463
0.454000000000000292,-2.222977130271844182
0.455000000000000293,-2.235566158408681670
0.456000000000000294,-2.249031687997853357
0.457000000000000295,-2.263343903482432751
0.458000000000000296,-2.278473110129918489
0.459000000000000297,-2.294389752499928825
0.460000000000000298,-2.311064432205442110
0.461000000000000298,-2.328467924975576420
0.462000000000000299,-2.346571197028818112
0.463000000000000300,-2.365345420765636142
0.464000000000000301,-2.384761989790216585
0.465000000000000302,-2.404792533271161492
0.466000000000000303,-2.425408929651647227
0.467000000000000304,-2.446583319719516147
0.468000000000000305,-2.468288119048399398
0.469000000000000306,-2.490496029821037460
0.470000000000000306,-2.513180052046235069
0.471000000000000307,-2.536313494181134054
0.472000000000000308,-2.559869983170676822
0.473000000000000309,-2.583823473916222468
0.474000000000000310,-2.608148258185395640
0.475000000000000311,-2.632818972975602190
0.476000000000000312,-2.657810608343269099
0.477000000000000313,-2.683098514711455440
0.478000000000000314,-2.708658409668103673
0.479000000000000314,-2.734466384267522976
0.480000000000000315,-2.760498908847476507
0.481000000000000316,-2.786732838374467391
0.482000000000000317,-2.813145417329578901
0.483000000000000318,-2.839714284147365486
0.484000000000000319,-2.866417475220092825
0.485000000000000320,-2.893233428479716096
0.486000000000000321,-2.920140986569756958
0.487000000000000322,-2.947119399619267277
0.488000000000000322,-2.974148327630911748
0.489000000000000323,-3.001207842495094535
0.490000000000000324,-3.028278429641995562
0.491000000000000325,-3.055340989343178215
0.492000000000000326,-3.082376837674333458
0.493000000000000327,-3.109367707150609395
0.494000000000000328,-3.136295747045755089
0.495000000000000329,-3.163143523406275914
0.496000000000000330,-3.189894018771458839
0.497000000000000330,-3.216530631610170499
0.498000000000000331,-3.243037175484990708
0.499000000000000332,-3.269397877954114850
0.500000000000000333,-3.295597379221385292
0.501000000000000334,-3.321620730544474931
0.502000000000000335,-3.347453392411158468
0.503000000000000336,-3.373081232493379211
0.504000000000000337,-3.398490523388710383
0.505000000000000338,-3.423667940158452438
0.506000000000000338,-3.448600557671616773
0.507000000000000339,-3.473275847763718893
0.508000000000000340,-3.497681676219155378
0.509000000000000341,-3.521806299585718225
0.510000000000000342,-3.545638361829662522
0.511000000000000343,-3.569166890839505779
0.512000000000000344,-3.592381294786536561
0.513000000000000345,-3.615271358349804842
0.514000000000000346,-3.637827238813308384
0.515000000000000346,-3.660039462042644853
0.516000000000000347,-3.681898918348441185
0.517000000000000348,-3.703396858243593215
0.518000000000000349,-3.724524888101117703
0.519000000000000350,-3.745274965719288751
0.520000000000000351,-3.765639395800568501
0.521000000000000352,-3.785610825350576469
0.522000000000000353,-3.805182239003182865
0.523000000000000353,-3.824346954277765942
0.524000000000000354,-3.843098616774230258
0.525000000000000355,-3.861431195311503473
0.526000000000000356,-3.879338977014799017
0.527000000000000357,-3.896816562356955504
0.528000000000000358,-3.913858860158934583
0.529000000000000359,-3.930461082554232100
0.530000000000000360,-3.946618739922148400
0.531000000000000361,-3.962327635794330227
0.532000000000000361,-3.977583861739105942
0.533000000000000362,-3.992383792227788497
0.534000000000000363,-4.006724079487174350
0.535000000000000364,-4.020601648342104539
0.536000000000000365,-4.034013691051949735
0.537000000000000366,-4.046957662144710532
0.538000000000000367,-4.059431273252218197
0.539000000000000368,-4.071432487949914858
0.540000000000000369,-4.082959516604385719
0.541000000000000369,-4.094010811231859392
0.542000000000000370,-4.104585060370608218
0.543000000000000371,-4.114681183970183120
0.544000000000000372,-4.124298328300222138
0.545000000000000373,-4.133435860881430557
0.546000000000000374,-4.142093365441331443
0.547000000000000375,-4.150270636897072762
0.548000000000000376,-4.157967676367734455
0.549000000000000377,-4.165184686218151633
0.550000000000000377,-4.171922065136480562
0.551000000000000378,-4.178180403247353958
0.552000000000000379,-4.183960477262619548
0.553000000000000380,-4.189263245671313918
0.554000000000000381,-4.194089843970646214
0.555000000000000382,-4.198441579939554913
0.556000000000000383,-4.202319928956267603
0.557000000000000384,-4.205726529361397681
0.558000000000000385,-4.208663177867765448
0.559000000000000385,-4.211131825018304298
0.560000000000000386,-4.213134570693108039
0.561000000000000387,-4.214673659666799743
0.562000000000000388,-4.215751477217155596
0.563000000000000389,-4.216370544785943864
0.564000000000000390,-4.216533515692860057
0.565000000000000391,-4.216243170903323012
0.566000000000000392,-4.215502414850885948
0.567000000000000393,-4.214314271314932192
0.568000000000000393,-4.212681879354189363
0.569000000000000394,-4.210608489296720158
0.570000000000000395,-4.208097458786804523
0.571000000000000396,-4.205152248889098665
0.572000000000000397,-4.201776420250564748
0.573000000000000398,-4.197973629320400413
0.574000000000000399,-4.193747624628260340
0.575000000000000400,-4.189102243121032743
0.576000000000000401,-4.184041406558277387
0.577000000000000401,-4.178569117966558721
0.578000000000000402,-4.172689458152655462
0.579000000000000403,-4.166406582275771875
0.580000000000000404,-4.159724716478748974
0.581000000000000405,-4.152648154578210793
0.582000000000000406,-4.145181254813622651
0.583000000000000407,-4.137328436655126396
0.584000000000000408,-4.129094177670063814
0.585000000000000409,-4.120483010447977712
0.586000000000000409,-4.111499519583884599
0.587000000000000410,-4.102148338719698195
0.588000000000000411,-4.092434147643382758
0.589000000000000412,-4.082361669445717212
0.590000000000000413,-4.071935667734243758
0.591000000000000414,-4.061160943904148724
0.592000000000000415,-4.050042334465699057
0.593000000000000416,-4.038584708427822356
0.594000000000000417,-4.026792964737497371
0.595000000000000417,-4.014672029774525086
0.596000000000000418,-4.002226854901165254
0.597000000000000419,-3.989462414066362150
0.598000000000000420,-3.976383701463865883
0.599000000000000421,-3.962995729243983245
0.600000000000000422,-3.949303525278316407
0.601000000000000423,-3.935312130977012934
0.602000000000000424,-3.921026599158052850
0.603000000000000425,-3.906451991967984760
0.604000000000000425,-3.891593378853544838
0.605000000000000426,-3.876455834583683924
0.606000000000000427,-3.861044437321370815
0.607000000000000428,-3.845364266744572657
0.608000000000000429,-3.829420402215930608
0.609000000000000430,-3.813217921000416677
0.610000000000000431,-3.796761896530482794
