# AuFCC100UCD_BSAI14
# h[nm],U(h)[kJ/mol]
0.149999999999999994,120.135887104100902434
0.150999999999999995,115.807153483833417340
0.151999999999999996,111.813806431451581602
0.152999999999999997,107.915202701247608275
0.153999999999999998,104.045429601759636284
0.154999999999999999,100.209944330170344529
0.156000000000000000,96.434266249039481522
0.157000000000000001,92.741605726542331922
0.158000000000000002,89.145609926041032622
0.159000000000000002,85.650246011550763114
0.160000000000000003,82.252433382423987496
0.161000000000000004,78.945184809012516780
0.162000000000000005,75.720254566668103280
0.163000000000000006,72.569968158946764447
0.164000000000000007,69.488247569352026289
0.165000000000000008,66.470990592896299631
0.166000000000000009,63.516001081649015703
0.167000000000000010,60.622652274875065359
0.168000000000000010,57.791428802383151719
0.169000000000000011,55.023451496725158449
0.170000000000000012,52.320051359483429110
0.171000000000000013,49.682428433959827885
0.172000000000000014,47.111408694989599155
0.173000000000000015,44.607296713691937384
0.174000000000000016,42.169812523260375769
0.175000000000000017,39.798096388610943563
0.176000000000000018,37.490763750005669408
0.177000000000000018,35.245993353719782704
0.178000000000000019,33.061633620817033830
0.179000000000000020,30.935314982052499744
0.180000000000000021,28.864558761837674439
0.181000000000000022,26.846875924771950395
0.182000000000000023,24.879851424730084375
0.183000000000000024,22.961211929337348892
0.184000000000000025,21.088876305393789323
0.185000000000000026,19.260989458435684440
0.186000000000000026,17.475940962144409951
0.187000000000000027,15.732370443629832835
0.188000000000000028,14.029161966039271903
0.189000000000000029,12.365429726583153425
0.190000000000000030,10.740497317355472973
0.191000000000000031,9.153872623141683817
0.192000000000000032,7.605220192326243023
0.193000000000000033,6.094332644300274993
0.194000000000000034,4.621102392873154940
0.195000000000000034,3.185494687456481788
0.196000000000000035,1.787522714367397514
0.197000000000000036,0.427225267319714053
0.198000000000000037,-0.895352706583515734
0.199000000000000038,-2.180176549563244137
0.200000000000000039,-3.427235327355114602
0.201000000000000040,-4.636552365943959586
0.202000000000000041,-5.808193082547082220
0.203000000000000042,-6.942270358698634070
0.204000000000000042,-8.038947738363209083
0.205000000000000043,-9.098440751456305264
0.206000000000000044,-10.121016666299446740
0.207000000000000045,-11.106992966467258199
0.208000000000000046,-12.056734830978454553
0.209000000000000047,-12.970651874281989180
0.210000000000000048,-13.849194376086160219
0.211000000000000049,-14.692849202518328156
0.212000000000000050,-15.502135590812144983
0.213000000000000050,-16.277600940816036257
0.214000000000000051,-17.019816728964446639
0.215000000000000052,-17.729374634571524183
0.216000000000000053,-18.406882944820811332
0.217000000000000054,-19.052963283891340751
0.218000000000000055,-19.668247693399738552
0.219000000000000056,-20.253376075758364294
0.220000000000000057,-20.808993999082566972
0.221000000000000058,-21.335750851779298642
0.222000000000000058,-21.834298326744708163
0.223000000000000059,-22.305289208967483461
0.224000000000000060,-22.749376436058316386
0.225000000000000061,-23.167212398566984888
0.226000000000000062,-23.559448445675847950
0.227000000000000063,-23.926734561749828600
0.228000000000000064,-24.269719180066118724
0.229000000000000065,-24.589049101649475659
0.230000000000000066,-24.885369489321007563
0.231000000000000066,-25.159323909674991882
0.232000000000000067,-25.411554398588542369
0.233000000000000068,-25.642701528923915077
0.234000000000000069,-25.853404462201222458
0.235000000000000070,-26.044300969115017352
0.236000000000000071,-26.216027406773132924
0.237000000000000072,-26.369218643397164925
0.238000000000000073,-26.504507923896863275
0.239000000000000073,-26.622526672188008945
0.240000000000000074,-26.723904228343958067
0.241000000000000075,-26.809267520643892624
0.242000000000000076,-26.879240674300199032
0.243000000000000077,-26.934444560117754008
0.244000000000000078,-26.975496287563618836
0.245000000000000079,-27.003008647717830826
0.246000000000000080,-27.017589512348468617
0.247000000000000081,-27.019841195923042676
0.248000000000000081,-27.010359787748576821
0.249000000000000082,-26.989734461645173980
0.250000000000000111,-26.958546770619030042
0.251000000000000112,-26.917369933929030879
0.252000000000000113,-26.866768123756457953
0.253000000000000114,-26.807295758402680974
0.254000000000000115,-26.739496808577989384
0.255000000000000115,-26.663904122914356520
0.256000000000000116,-26.581038778356134600
0.257000000000000117,-26.491409460565318312
0.258000000000000118,-26.395511878934360794
0.259000000000000119,-26.293828220241842075
0.260000000000000120,-26.186826644422911414
0.261000000000000121,-26.074960825364712491
0.262000000000000122,-25.958669539087065203
0.263000000000000123,-25.838376301133060053
0.264000000000000123,-25.714489054481060037
0.265000000000000124,-25.587399908800861681
0.266000000000000125,-25.457484931417265983
0.267000000000000126,-25.325103989915238145
0.268000000000000127,-25.190600645925432133
0.269000000000000128,-25.054302099266720916
0.270000000000000129,-24.916519181295296193
0.271000000000000130,-24.777546396017580577
0.272000000000000131,-24.637662007266165176
0.273000000000000131,-24.497128170013560577
0.274000000000000132,-24.356191103707082846
0.275000000000000133,-24.215081305348313379
0.276000000000000134,-24.074013799910133571
0.277000000000000135,-23.933188425583331593
0.278000000000000136,-23.792790151269308296
0.279000000000000137,-23.652989423685895076
0.280000000000000138,-23.513942541426203547
0.281000000000000139,-23.375792053304575546
0.282000000000000139,-23.238667178337259145
0.283000000000000140,-23.102684244736384045
0.284000000000000141,-22.967947145341955917
0.285000000000000142,-22.834547806977312234
0.286000000000000143,-22.702566671285190125
0.287000000000000144,-22.572073184684711578
0.288000000000000145,-22.443126295181006213
0.289000000000000146,-22.315774953858174001
0.290000000000000147,-22.190058618991454154
0.291000000000000147,-22.066007760823826089
0.292000000000000148,-21.943644365166115051
0.293000000000000149,-21.822982434094882365
0.294000000000000150,-21.704028482139662515
0.295000000000000151,-21.586782026468988249
0.296000000000000152,-21.471236069701490123
0.297000000000000153,-21.357377574085283811
0.298000000000000154,-21.245187925902691006
0.299000000000000155,-21.134643389070220110
0.300000000000000155,-21.025715547012982398
0.301000000000000156,-20.918371731998696816
0.302000000000000157,-20.812575441219554051
0.303000000000000158,-20.708286739008549660
0.304000000000000159,-20.605462644671682426
0.305000000000000160,-20.504057505507415016
0.306000000000000161,-20.404023354670634660
0.307000000000000162,-20.305310253619520466
0.308000000000000163,-20.207866618959762661
0.309000000000000163,-20.111639533572621019
0.310000000000000164,-20.016575041980313898
0.311000000000000165,-19.922618429964039422
0.312000000000000166,-19.829714488508425774
0.313000000000000167,-19.737807762198762873
0.314000000000000168,-19.646842782246224601
0.315000000000000169,-19.556764284361058515
0.316000000000000170,-19.467517411733577859
0.317000000000000171,-19.379047903419301946
0.318000000000000171,-19.291302268456593794
0.319000000000000172,-19.204227946074333033
0.320000000000000173,-19.117773452371601195
0.321000000000000174,-19.031888513873486346
0.322000000000000175,-18.946524188385332366
0.323000000000000176,-18.861632973583542849
0.324000000000000177,-18.777168903793263866
0.325000000000000178,-18.693087635413338177
0.326000000000000179,-18.609346521456640033
0.327000000000000179,-18.525904675678400935
0.328000000000000180,-18.442723026768451433
0.329000000000000181,-18.359764363084352112
0.330000000000000182,-18.276993368400688666
0.331000000000000183,-18.194376649148225056
0.332000000000000184,-18.111882753611389774
0.333000000000000185,-18.029482183547781204
0.334000000000000186,-17.947147398685910247
0.335000000000000187,-17.864852814549784910
0.336000000000000187,-17.782574794049764932
0.337000000000000188,-17.700291633269067404
0.338000000000000189,-17.617983541864852270
0.339000000000000190,-17.535632618491270307
0.340000000000000191,-17.453222821639606366
0.341000000000000192,-17.370739936279051108
0.342000000000000193,-17.288171536667427119
0.343000000000000194,-17.205506945689414522
0.344000000000000195,-17.122737191065198203
0.345000000000000195,-17.039854958759676151
0.346000000000000196,-16.956854543908161048
0.347000000000000197,-16.873731799560882649
0.348000000000000198,-16.790484083534913395
0.349000000000000199,-16.707110203648152691
0.350000000000000200,-16.623610361596774965
0.351000000000000201,-16.539986095723598680
0.352000000000000202,-16.456240222911940663
0.353000000000000203,-16.372376779826186777
0.354000000000000203,-16.288400963707491798
0.355000000000000204,-16.204319072920490896
0.356000000000000205,-16.120138447434584350
0.357000000000000206,-16.035867409411359574
0.358000000000000207,-15.951515204057978181
0.359000000000000208,-15.867091940895175384
0.360000000000000209,-15.782608535577560716
0.361000000000000210,-15.698076652393023522
0.362000000000000210,-15.613508647558168363
0.363000000000000211,-15.528917513416633511
0.364000000000000212,-15.444316823637777247
0.365000000000000213,-15.359720679503913843
0.366000000000000214,-15.275143657365893191
0.367000000000000215,-15.190600757338071247
0.368000000000000216,-15.106107353296261309
0.369000000000000217,-15.021679144233996084
0.370000000000000218,-14.937332107026005446
0.371000000000000218,-14.853082450640226142
0.372000000000000219,-14.768946571833646786
0.373000000000000220,-14.684941012360999579
0.374000000000000221,-14.601082417719442930
0.375000000000000222,-14.517387497446978983
0.376000000000000223,-14.433872986987278608
0.377000000000000224,-14.350555611128603672
0.378000000000000225,-14.267452049020226568
0.379000000000000226,-14.184578900765222542
0.380000000000000226,-14.101952655585076712
0.381000000000000227,-14.019589661547263049
0.382000000000000228,-13.937506096844225922
0.383000000000000229,-13.855717942608702486
0.384000000000000230,-13.774240957247361195
0.385000000000000231,-13.693090652272667640
0.386000000000000232,-13.612282269609824681
0.387000000000000233,-13.531830760353861010
0.388000000000000234,-13.451750764949881756
0.389000000000000234,-13.372056594767832038
0.390000000000000235,-13.292762215041188156
0.391000000000000236,-13.213881229138189966
0.392000000000000237,-13.135426864132346836
0.393000000000000238,-13.057411957638526800
0.394000000000000239,-12.979848945879428612
0.395000000000000240,-12.902749852946991282
0.396000000000000241,-12.826126281222382630
0.397000000000000242,-12.749989402917663028
0.398000000000000242,-12.674349952702195665
0.399000000000000243,-12.599218221376165872
0.400000000000000244,-12.524604050553715950
0.401000000000000245,-12.450516828318109575
0.402000000000000246,-12.376965485811263434
0.403000000000000247,-12.303958494720138361
0.404000000000000248,-12.231503865622809002
0.405000000000000249,-12.159609147157164344
0.406000000000000250,-12.088281425975509364
0.407000000000000250,-12.017527327448968677
0.408000000000000251,-11.947353017085669435
0.409000000000000252,-11.877764202627670187
0.410000000000000253,-11.808766136791691181
0.411000000000000254,-11.740363620619600482
0.412000000000000255,-11.672561007405194644
0.413000000000000256,-11.605362207164439781
0.414000000000000257,-11.538770691616949904
0.415000000000000258,-11.472789499647488398
0.416000000000000258,-11.407421243216715467
0.417000000000000259,-11.342668113691345866
0.418000000000000260,-11.278531888564685914
0.419000000000000261,-11.215013938539176053
0.420000000000000262,-11.152115234943495992
0.421000000000000263,-11.089836357457699023
0.422000000000000264,-11.028177502120289688
0.423000000000000265,-10.967138489592448636
0.424000000000000266,-10.906718773655200039
0.425000000000000266,-10.846917449916084308
0.426000000000000267,-10.787733264702890068
0.427000000000000268,-10.729164624122720539
0.428000000000000269,-10.671209603265534582
0.429000000000000270,-10.613865955532043373
0.430000000000000271,-10.557131122066747864
0.431000000000000272,-10.501002241277596738
0.432000000000000273,-10.445476158424565227
0.433000000000000274,-10.390549435260284739
0.434000000000000274,-10.336218359706451864
0.435000000000000275,-10.282478955550693911
0.436000000000000276,-10.229326992149150755
0.437000000000000277,-10.176757994120753992
0.438000000000000278,-10.124767251019994418
0.439000000000000279,-10.073349826975576349
0.440000000000000280,-10.022500570282986132
0.441000000000000281,-9.972214122939730530
0.442000000000000282,-9.922484930112677404
0.443000000000000282,-9.873307249527368157
0.444000000000000283,-9.824675160770009796
0.445000000000000284,-9.776582574493250632
0.446000000000000285,-9.729023241517470666
0.447000000000000286,-9.681990761820051361
0.448000000000000287,-9.635478593405174763
0.449000000000000288,-9.589480061047813919
0.450000000000000289,-9.543988364905519717
0.451000000000000290,-9.498996588992490331
0.452000000000000290,-9.454497709510670589
0.453000000000000291,-9.410484603033149043
0.454000000000000292,-9.366950054535518433
0.455000000000000293,-9.323886765271351962
0.456000000000000294,-9.281287360488260418
0.457000000000000295,-9.239144396981412655
0.458000000000000296,-9.197450370481854875
0.459000000000000297,-9.156197722877138290
0.460000000000000298,-9.115378849262331329
0.461000000000000298,-9.074986104819554811
0.462000000000000299,-9.035011811524807257
0.463000000000000300,-8.995448264680765860
0.464000000000000301,-8.956287739274930715
0.465000000000000302,-8.917522496162400003
0.466000000000000303,-8.879144788073077166
0.467000000000000304,-8.841146865443135994
0.468000000000000305,-8.803520982071047385
0.469000000000000306,-8.766259400598425344
0.470000000000000306,-8.729354397816409872
0.471000000000000307,-8.692798269798194255
0.472000000000000308,-8.656583336858941990
0.473000000000000309,-8.620701948343938881
0.474000000000000310,-8.585146487246488434
0.475000000000000311,-8.549909374656955663
0.476000000000000312,-8.514983074044549127
0.477000000000000313,-8.480360095373583817
0.478000000000000314,-8.446032999056075852
0.479000000000000314,-8.411994399742706463
0.480000000000000315,-8.378236969954114599
0.481000000000000316,-8.344753443554854044
0.482000000000000317,-8.311536619072155574
0.483000000000000318,-8.278579362861917090
0.484000000000000319,-8.245874612124342917
0.485000000000000320,-8.213415377771731585
0.486000000000000321,-8.181194747150986046
0.487000000000000322,-8.149205886623414941
0.488000000000000322,-8.117442044004558710
0.489000000000000323,-8.085896550866737087
0.490000000000000324,-8.054562824707005575
0.491000000000000325,-8.023434370983441255
0.492000000000000326,-7.992504785022363833
0.493000000000000327,-7.961767753799580127
0.494000000000000328,-7.931217057598225040
0.495000000000000329,-7.900846571546345842
0.496000000000000330,-7.870650267036836567
0.497000000000000330,-7.840622213032842680
0.498000000000000331,-7.810756577261313893
0.499000000000000332,-7.781047627297732916
0.500000000000000333,-7.751489731544820572
0.501000000000000334,-7.722077360108093202
0.502000000000000335,-7.692805085571132295
0.503000000000000336,-7.663667583673418271
0.504000000000000337,-7.634659633893529751
0.505000000000000338,-7.605776119940523827
0.506000000000000338,-7.577012030156249800
0.507000000000000339,-7.548362457831423455
0.508000000000000340,-7.519822601438079346
0.509000000000000341,-7.491387764781242353
0.510000000000000342,-7.463053357072348959
0.511000000000000343,-7.434814892927171570
0.512000000000000344,-7.406667992290770997
0.513000000000000345,-7.378608380292106972
0.514000000000000346,-7.350631887030823819
0.515000000000000346,-7.322734447298687499
0.516000000000000347,-7.294912100238164498
0.517000000000000348,-7.267160988940593924
0.518000000000000349,-7.239477359986214999
0.519000000000000350,-7.211857562928561727
0.520000000000000351,-7.184298049725382107
0.521000000000000352,-7.156795374118447128
0.522000000000000353,-7.129346190964359842
0.523000000000000353,-7.101947255518626712
0.524000000000000354,-7.074595422675111323
0.525000000000000355,-7.047287646162883945
0.526000000000000356,-7.020020977702602138
0.527000000000000357,-6.992792566124360398
0.528000000000000358,-6.965599656449020571
0.529000000000000359,-6.938439588934836699
0.530000000000000360,-6.911309798091359369
0.531000000000000361,-6.884207811662361287
0.532000000000000361,-6.857131249579607513
0.533000000000000362,-6.830077822889158767
0.534000000000000363,-6.803045332651959320
0.535000000000000364,-6.776031668820321485
0.536000000000000365,-6.749034809091891240
0.537000000000000366,-6.722052817742744324
0.538000000000000367,-6.695083844441006349
0.539000000000000368,-6.668126123042616982
0.540000000000000369,-6.641177970370530481
0.541000000000000369,-6.614237784978906021
0.542000000000000370,-6.587304045903475291
0.543000000000000371,-6.560375311399559095
0.544000000000000372,-6.533450217668887561
0.545000000000000373,-6.506527477576537599
0.546000000000000374,-6.479605879359160880
0.547000000000000375,-6.452684285325614333
0.548000000000000376,-6.425761630551225956
0.549000000000000377,-6.398836921566681823
0.550000000000000377,-6.371909235042599207
0.551000000000000378,-6.344977716470838303
0.552000000000000379,-6.318041578843521577
0.553000000000000380,-6.291100101330653338
0.554000000000000381,-6.264152627957294328
0.555000000000000382,-6.237198566281209722
0.556000000000000383,-6.210237386071678856
0.557000000000000384,-6.183268617990496097
0.558000000000000385,-6.156291852275730392
0.559000000000000385,-6.129306737429156549
0.560000000000000386,-6.102312978907958652
0.561000000000000387,-6.075310337821477447
0.562000000000000388,-6.048298629633622525
0.563000000000000389,-6.021277722871576366
0.564000000000000390,-5.994247537841401297
0.565000000000000391,-5.967208045351151569
0.566000000000000392,-5.940159265442000347
0.567000000000000393,-5.913101266127943845
0.568000000000000393,-5.886034162144541781
0.569000000000000394,-5.858958113707195992
0.570000000000000395,-5.831873325279461007
0.571000000000000396,-5.804780044351675272
0.572000000000000397,-5.777678560230517846
0.573000000000000398,-5.750569202839684202
0.574000000000000399,-5.723452341532175858
0.575000000000000400,-5.696328383914480042
0.576000000000000401,-5.669197774682950275
0.577000000000000401,-5.642060994472772428
0.578000000000000402,-5.614918558719682373
0.579000000000000403,-5.587771016534777146
0.580000000000000404,-5.560618949592650573
0.581000000000000405,-5.533462971033060285
0.582000000000000406,-5.506303724376349962
0.583000000000000407,-5.479141882452811529
0.584000000000000408,-5.451978146346196930
0.585000000000000409,-5.424813244351483377
0.586000000000000409,-5.397647930947083950
0.587000000000000410,-5.370482985781648289
0.588000000000000411,-5.343319212675497809
0.589000000000000412,-5.316157438636901489
0.590000000000000413,-5.288998512893190451
0.591000000000000414,-5.261843305936852566
0.592000000000000415,-5.234692708586665688
0.593000000000000416,-5.207547631063873972
0.594000000000000417,-5.180409002083501413
0.595000000000000417,-5.153277767960876332
0.596000000000000418,-5.126154891733213148
0.597000000000000419,-5.099041352296539209
0.598000000000000420,-5.071938143557657597
0.599000000000000421,-5.044846273601423903
0.600000000000000422,-5.017766763873099833
0.601000000000000423,-4.990700648375892889
0.602000000000000424,-4.963648972883595967
0.603000000000000425,-4.936612794168305562
0.604000000000000425,-4.909593179243107564
0.605000000000000426,-4.882591204619791903
0.606000000000000427,-4.855607955581435320
0.607000000000000428,-4.828644525469776738
