# AuFCC100UCD_ILE-AC
# h[nm],U(h)[kJ/mol]
0.149999999999999994,170.734829741950790094
0.150999999999999995,165.725312370364292747
0.151999999999999996,161.095405076118566967
0.152999999999999997,156.572351291608640622
0.153999999999999998,152.086019325147930203
0.154999999999999999,147.645819184248381362
0.156000000000000000,143.281111706745093670
0.157000000000000001,139.016318475224352369
0.158000000000000002,134.863732420485632701
0.159000000000000002,130.824365773906663435
0.160000000000000003,126.891632619031014428
0.161000000000000004,123.055294610278977530
0.162000000000000005,119.304587719296861792
0.163000000000000006,115.630240823036729125
0.164000000000000007,112.025478347175223348
0.165000000000000008,108.486247684697787008
0.166000000000000009,105.010937205953865714
0.167000000000000010,101.599817393544782362
0.168000000000000010,98.254382940873554730
0.169000000000000011,94.976717198042479140
0.170000000000000012,91.768951416831185952
0.171000000000000013,88.632853173948262793
0.172000000000000014,85.569551278014131412
0.173000000000000015,82.579386997112152358
0.174000000000000016,79.661871620429636209
0.175000000000000017,76.815726192569002251
0.176000000000000018,74.038978959325390861
0.177000000000000018,71.329098192314219773
0.178000000000000019,68.683141510565363319
0.179000000000000020,66.097906793319296526
0.180000000000000021,63.570073742177420684
0.181000000000000022,61.096328769240905388
0.182000000000000023,58.673468980860342015
0.183000000000000024,56.298483523082907709
0.184000000000000025,53.968612457054483400
0.185000000000000026,51.681384688243880987
0.186000000000000026,49.434637355066215036
0.187000000000000027,47.226519573258215701
0.188000000000000028,45.055483615620730120
0.189000000000000029,42.920266560175001302
0.190000000000000030,40.819865231840054776
0.191000000000000031,38.753506951102068001
0.192000000000000032,36.720618234457361950
0.193000000000000033,34.720793201859450505
0.194000000000000034,32.753763062822137897
0.195000000000000034,30.819367693984183632
0.196000000000000035,28.917529998929097701
0.197000000000000036,27.048233462621631418
0.198000000000000037,25.211503080596642690
0.199000000000000038,23.407389656591590210
0.200000000000000039,21.635957319073416016
0.201000000000000040,19.897274003095837713
0.202000000000000041,18.191404574344772982
0.203000000000000042,16.518406231947636797
0.204000000000000042,14.878325810478420621
0.205000000000000043,13.271198604666540888
0.206000000000000044,11.697048358072166252
0.207000000000000045,10.155888085387243081
0.208000000000000046,8.647721433545438430
0.209000000000000047,7.172544326517271251
0.210000000000000048,5.730346680096261025
0.211000000000000049,4.321114014216310473
0.212000000000000050,2.944828829889032384
0.213000000000000050,1.601471654635190145
0.214000000000000051,0.291021693552434901
0.215000000000000052,-0.986542947534943204
0.216000000000000053,-2.231245475280347002
0.217000000000000054,-3.443111045904006406
0.218000000000000055,-4.622167796884457225
0.219000000000000056,-5.768448231017634598
0.220000000000000057,-6.881990901217427847
0.221000000000000058,-7.962842338230236905
0.222000000000000058,-9.011059160057993012
0.223000000000000059,-10.026710300916228391
0.224000000000000060,-11.009879298620331767
0.225000000000000061,-11.960666582012418502
0.226000000000000062,-12.879191704064066215
0.227000000000000063,-13.765595471295910102
0.228000000000000064,-14.620041925850241427
0.229000000000000065,-15.442720142687189622
0.230000000000000066,-16.233845810718712244
0.231000000000000066,-16.993662573067531696
0.232000000000000067,-17.722443107876259205
0.233000000000000068,-18.420489937074073339
0.234000000000000069,-19.088135956131228710
0.235000000000000070,-19.725744683023272330
0.236000000000000071,-20.333710229332361052
0.237000000000000072,-20.912457000602078239
0.238000000000000073,-21.462439136714955623
0.239000000000000073,-21.984139706175938045
0.240000000000000074,-22.478069670773518141
0.241000000000000075,-22.944766639164384969
0.242000000000000076,-23.384793429517884533
0.243000000000000077,-23.798736462494222366
0.244000000000000078,-24.187204006547666779
0.245000000000000079,-24.550824297883451663
0.246000000000000080,-24.890243557392633278
0.247000000000000081,-25.206123926584272255
0.248000000000000081,-25.499141343965668227
0.249000000000000082,-25.769983382530064375
0.250000000000000111,-26.019347068033056303
0.251000000000000112,-26.247936696608043405
0.252000000000000113,-26.456461669022377947
0.253000000000000114,-26.645634357535108450
0.254000000000000115,-26.816168019918411147
0.255000000000000115,-26.968774773765211705
0.256000000000000116,-27.104163642754286911
0.257000000000000117,-27.223038685095843903
0.258000000000000118,-27.326097212954106652
0.259000000000000119,-27.414028110254044179
0.260000000000000120,-27.487510254937951970
0.261000000000000121,-27.547211050454382786
0.262000000000000122,-27.593785070046386920
0.263000000000000123,-27.627872816262101452
0.264000000000000123,-27.650099597046011723
0.265000000000000124,-27.661074518783159704
0.266000000000000125,-27.661389595767580829
0.267000000000000126,-27.651618974745325374
0.268000000000000127,-27.632318272447310648
0.269000000000000128,-27.604024023371209751
0.270000000000000129,-27.567253234496284620
0.271000000000000130,-27.522503043116028465
0.272000000000000131,-27.470250473548770032
0.273000000000000131,-27.410952288130697951
0.274000000000000132,-27.345044927607339957
0.275000000000000133,-27.272944535813120837
0.276000000000000134,-27.195047063359510275
0.277000000000000135,-27.111728444937607918
0.278000000000000136,-27.023344844775255780
0.279000000000000137,-26.930232964767789383
0.280000000000000138,-26.832710409821874720
0.281000000000000139,-26.731076105007872457
0.282000000000000139,-26.625610759205681433
0.283000000000000140,-26.516577370046388040
0.284000000000000141,-26.404221765094625596
0.285000000000000142,-26.288773174380963837
0.286000000000000143,-26.170444829575490786
0.287000000000000144,-26.049434585291123767
0.288000000000000145,-25.925925558214895972
0.289000000000000146,-25.800086779983889329
0.290000000000000147,-25.672073859948746133
0.291000000000000147,-25.542029654198294963
0.292000000000000148,-25.410084937452136700
0.293000000000000149,-25.276359074662547499
0.294000000000000150,-25.140960689399840078
0.295000000000000151,-25.003988326327579728
0.296000000000000152,-24.865531105300142656
0.297000000000000153,-24.725669364839372832
0.298000000000000154,-24.584475292962821413
0.299000000000000155,-24.442013543547485455
0.300000000000000155,-24.298341836615474421
0.301000000000000156,-24.153511541123556583
0.302000000000000157,-24.007568239025367518
0.303000000000000158,-23.860552269553227944
0.304000000000000159,-23.712499252835659291
0.305000000000000160,-23.563440592126582374
0.306000000000000161,-23.413403954072997237
0.307000000000000162,-23.262413726589443286
0.308000000000000163,-23.110491454038943004
0.309000000000000163,-22.957656249544218241
0.310000000000000164,-22.803925184365574808
0.311000000000000165,-22.649313654387562167
0.312000000000000166,-22.493835723852804165
0.313000000000000167,-22.337504446568757999
0.314000000000000168,-22.180332164893648894
0.315000000000000169,-22.022330786879088294
0.316000000000000170,-21.863512042011837622
0.317000000000000171,-21.703887716054101276
0.318000000000000171,-21.543469865532056673
0.319000000000000172,-21.382271012466461002
0.320000000000000173,-21.220304319976627028
0.321000000000000174,-21.057583749420984987
0.322000000000000175,-20.894124199763989935
0.323000000000000176,-20.729941629880308085
0.324000000000000177,-20.565053164523817486
0.325000000000000178,-20.399477184700927523
0.326000000000000179,-20.233233403195896472
0.327000000000000179,-20.066342925999784086
0.328000000000000180,-19.898828300395216218
0.329000000000000181,-19.730713550447262605
0.330000000000000182,-19.562024200644152927
0.331000000000000183,-19.392787288424745640
0.332000000000000184,-19.223031366317961499
0.333000000000000185,-19.052786494407833118
0.334000000000000186,-18.882084223822513280
0.335000000000000187,-18.710957571929874632
0.336000000000000187,-18.539440989904559132
0.337000000000000188,-18.367570323312271796
0.338000000000000189,-18.195382766337427682
0.339000000000000190,-18.022916810259211218
0.340000000000000191,-17.850212186759158328
0.341000000000000192,-17.677309806622162114
0.342000000000000193,-17.504251694368640813
0.343000000000000194,-17.331080919334251433
0.344000000000000195,-17.157841523688912133
0.345000000000000195,-16.984578447864855377
0.346000000000000196,-16.811337453839225731
0.347000000000000197,-16.638165046694229687
0.348000000000000198,-16.465108394854759410
0.349000000000000199,-16.292215249380259223
0.350000000000000200,-16.119533862666287405
0.351000000000000201,-15.947112906887957351
0.352000000000000202,-15.775001392496983854
0.353000000000000203,-15.603248587062628516
0.354000000000000203,-15.431903934726104666
0.355000000000000204,-15.261016976518485322
0.356000000000000205,-15.090637271772541439
0.357000000000000206,-14.920814320840481315
0.358000000000000207,-14.751597489310887212
0.359000000000000208,-14.583035933901513204
0.360000000000000209,-14.415178530187244377
0.361000000000000210,-14.248073802306560509
0.362000000000000210,-14.081769854774545792
0.363000000000000211,-13.916314306515612742
0.364000000000000212,-13.751754227215112536
0.365000000000000213,-13.588136076075482350
0.366000000000000214,-13.425505643050104965
0.367000000000000215,-13.263907992615603604
0.368000000000000216,-13.103387410132370405
0.369000000000000217,-12.943987350831823946
0.370000000000000218,-12.785750391459142605
0.371000000000000218,-12.628718184590464801
0.372000000000000219,-12.472931415634686658
0.373000000000000220,-12.318429762521567739
0.374000000000000221,-12.165251858070178059
0.375000000000000222,-12.013435255024235815
0.376000000000000223,-11.863016393734460152
0.377000000000000224,-11.714030572461613389
0.378000000000000225,-11.566511920268292002
0.379000000000000226,-11.420493372462273030
0.380000000000000226,-11.276006648549522282
0.381000000000000227,-11.133082232650314936
0.382000000000000228,-10.991749356328451626
0.383000000000000229,-10.852035983779655837
0.384000000000000230,-10.713968799322083569
0.385000000000000231,-10.577573197129490623
0.386000000000000232,-10.442873273144618551
0.387000000000000233,-10.309891819108603528
0.388000000000000234,-10.178650318640228178
0.389000000000000234,-10.049168945297601852
0.390000000000000235,-9.921466562552996749
0.391000000000000236,-9.795560725611498043
0.392000000000000237,-9.671467685002408388
0.393000000000000238,-9.549202391872690043
0.394000000000000239,-9.428778504910813041
0.395000000000000240,-9.310208398829701082
0.396000000000000241,-9.193503174337291028
0.397000000000000242,-9.078672669523633942
0.398000000000000242,-8.965725472593909728
0.399000000000000243,-8.854668935877189284
0.400000000000000244,-8.745509191041424657
0.401000000000000245,-8.638251165446492408
0.402000000000000246,-8.532898599567246833
0.403000000000000247,-8.429454065420275199
0.404000000000000248,-8.327918985928910445
0.405000000000000249,-8.228293655162353559
0.406000000000000250,-8.130577259385960431
0.407000000000000250,-8.034767898861350233
0.408000000000000251,-7.940862610336123950
0.409000000000000252,-7.848857390164837966
0.410000000000000253,-7.758747218003978041
0.411000000000000254,-7.670526081025725418
0.412000000000000255,-7.584186998596433860
0.413000000000000256,-7.499722047367820110
0.414000000000000257,-7.417122386730049755
0.415000000000000258,-7.336378284578062292
0.416000000000000258,-7.257479143343672945
0.417000000000000259,-7.180413526248019984
0.418000000000000260,-7.105169183730471794
0.419000000000000261,-7.031733080011659531
0.420000000000000262,-6.960091419750237485
0.421000000000000263,-6.890229674754482225
0.422000000000000264,-6.822132610711326706
0.423000000000000265,-6.755784313897367888
0.424000000000000266,-6.691168217837902610
0.425000000000000266,-6.628267129881360908
0.426000000000000267,-6.567063257658486641
0.427000000000000268,-6.507538235396870263
0.428000000000000269,-6.449673150063086169
0.429000000000000270,-6.393448567306039720
0.430000000000000271,-6.338844557176797956
0.431000000000000272,-6.285840719601358373
0.432000000000000273,-6.234416209584351165
0.433000000000000274,-6.184549762123038086
0.434000000000000274,-6.136219716812179925
0.435000000000000275,-6.089404042121707050
0.436000000000000276,-6.044080359330466834
0.437000000000000277,-6.000225966100289909
0.438000000000000278,-5.957817859676096894
0.439000000000000279,-5.916832759698709587
0.440000000000000280,-5.877247130618207471
0.441000000000000281,-5.839037203696701539
0.442000000000000282,-5.802178998590628467
0.443000000000000282,-5.766648344503235712
0.444000000000000283,-5.732420900899477090
0.445000000000000284,-5.699472177775947834
0.446000000000000285,-5.667777555479614371
0.447000000000000286,-5.637312304070122515
0.448000000000000287,-5.608051602220795573
0.449000000000000288,-5.579970555654827358
0.450000000000000289,-5.553044215113470905
0.451000000000000290,-5.527247593853926055
0.452000000000000290,-5.502555684675402681
0.453000000000000291,-5.478943476472297291
0.454000000000000292,-5.456385970314240552
0.455000000000000293,-5.434858195053224428
0.456000000000000294,-5.414335222458730001
0.457000000000000295,-5.394792181882139381
0.458000000000000296,-5.376204274452435428
0.459000000000000297,-5.358546786805487905
0.460000000000000298,-5.341795104349806422
0.461000000000000298,-5.325924724071994021
0.462000000000000299,-5.310911266885648629
0.463000000000000300,-5.296730489527655905
0.464000000000000301,-5.283358296006401389
0.465000000000000302,-5.270770748606563139
0.466000000000000303,-5.258944078455613180
0.467000000000000304,-5.247854695657296453
0.468000000000000305,-5.237479198997780472
0.469000000000000306,-5.227794385230311036
0.470000000000000306,-5.218777257944463344
0.471000000000000307,-5.210405036026260817
0.472000000000000308,-5.202655161715780352
0.473000000000000309,-5.195505308268748124
0.474000000000000310,-5.188933387229061722
0.475000000000000311,-5.182917555319204617
0.476000000000000312,-5.177436220955604185
0.477000000000000313,-5.172468050396169303
0.478000000000000314,-5.167991973527280791
0.479000000000000314,-5.163987189297700731
0.480000000000000315,-5.160433170806722813
0.481000000000000316,-5.157309670054223361
0.482000000000000317,-5.154596722360069272
0.483000000000000318,-5.152274650460507033
0.484000000000000319,-5.150324068289165780
0.485000000000000320,-5.148725884450301216
0.486000000000000321,-5.147461305391910713
0.487000000000000322,-5.146511838286320639
0.488000000000000322,-5.145859293625917985
0.489000000000000323,-5.145485787541566047
0.490000000000000324,-5.145373743851307857
0.491000000000000325,-5.145505895846868682
0.492000000000000326,-5.145865287825385437
0.493000000000000327,-5.146435276373908962
0.494000000000000328,-5.147199531413913398
0.495000000000000329,-5.148142037013249350
0.496000000000000330,-5.149247091972663171
0.497000000000000330,-5.150499310194161851
0.498000000000000331,-5.151883620838221489
0.499000000000000332,-5.153385268276880815
0.500000000000000333,-5.154989811849683079
0.501000000000000334,-5.156683125429220915
0.502000000000000335,-5.158451396803052980
0.503000000000000336,-5.160281126878670577
0.504000000000000337,-5.162159128718018408
0.505000000000000338,-5.164072526407981201
0.506000000000000338,-5.166008753773257745
0.507000000000000339,-5.167955552937770314
0.508000000000000340,-5.169900972740775202
0.509000000000000341,-5.171833367013693561
0.510000000000000342,-5.173741392723516519
0.511000000000000343,-5.175614007988651011
0.512000000000000344,-5.177440469972809822
0.513000000000000345,-5.179210332662517402
0.514000000000000346,-5.180913444533802981
0.515000000000000346,-5.182539946113211116
0.516000000000000347,-5.184080267438474721
0.517000000000000348,-5.185525125424014448
0.518000000000000349,-5.186865521136077462
0.519000000000000350,-5.188092736982510722
0.520000000000000351,-5.189198333821947173
0.521000000000000352,-5.190174147996953202
0.522000000000000353,-5.191012288295718591
0.523000000000000353,-5.191705132846728077
0.524000000000000354,-5.192245325950666235
0.525000000000000355,-5.192625774853799392
0.526000000000000356,-5.192839646466831383
0.527000000000000357,-5.192880364033313434
0.528000000000000358,-5.192741603751402479
0.529000000000000359,-5.192417291352672493
0.530000000000000360,-5.191901598641740279
0.531000000000000361,-5.191188940000134089
0.532000000000000361,-5.190273968857925802
0.533000000000000362,-5.189151574136364964
0.534000000000000363,-5.187816876664828492
0.535000000000000364,-5.186265225575179549
0.536000000000000365,-5.184492194676506571
0.537000000000000366,-5.182493578813312851
0.538000000000000367,-5.180265390209802590
0.539000000000000368,-5.177803854803199712
0.540000000000000369,-5.175105408568587251
0.541000000000000369,-5.172166693837896290
0.542000000000000370,-5.168984555615525167
0.543000000000000371,-5.165556037892891972
0.544000000000000372,-5.161878379964301544
0.545000000000000373,-5.157949012746248840
0.546000000000000374,-5.153765555102345353
0.547000000000000375,-5.149325810175834128
0.548000000000000376,-5.144627761731772608
0.549000000000000377,-5.139669570510625896
0.550000000000000377,-5.134449570595154277
0.551000000000000378,-5.128966265792321622
0.552000000000000379,-5.123218326031873104
0.553000000000000380,-5.117204583783125926
0.554000000000000381,-5.110924030491558412
0.555000000000000382,-5.104375813036604370
0.556000000000000383,-5.097559230211999193
0.557000000000000384,-5.090473729230074795
0.558000000000000385,-5.083118902251152704
0.559000000000000385,-5.075494482939332030
0.560000000000000386,-5.067600343045675970
0.561000000000000387,-5.059436489019987881
0.562000000000000388,-5.051003058652091759
0.563000000000000389,-5.042300317743648286
0.564000000000000390,-5.033328656811310253
0.565000000000000391,-5.024088587822189922
0.566000000000000392,-5.014580740962328420
0.567000000000000393,-5.004805861438972769
0.568000000000000393,-4.994764806317317785
0.569000000000000394,-4.984458541392401187
0.570000000000000395,-4.973888138096766554
0.571000000000000396,-4.963054770444354169
0.572000000000000397,-4.951959712011300141
0.573000000000000398,-4.940604332953972389
0.574000000000000399,-4.928990097064765763
0.575000000000000400,-4.917118558866020450
0.576000000000000401,-4.904991360742400275
0.577000000000000401,-4.892610230112145686
0.578000000000000402,-4.879976976637348862
0.579000000000000403,-4.867093489473613310
0.580000000000000404,-4.853961734559282704
0.581000000000000405,-4.840583751944416591
0.582000000000000406,-4.826961653159676402
0.583000000000000407,-4.813097618625238105
0.584000000000000408,-4.798993895099871843
0.585000000000000409,-4.784652793170186769
0.586000000000000409,-4.770076684780154785
0.587000000000000410,-4.755268000800899841
0.588000000000000411,-4.740229228640727044
0.589000000000000412,-4.724962909895429775
0.590000000000000413,-4.709471638038714048
0.591000000000000414,-4.693758056152777414
0.592000000000000415,-4.677824854698891421
0.593000000000000416,-4.661674769327850854
0.594000000000000417,-4.645310578730211581
0.595000000000000417,-4.628735102526137624
0.596000000000000418,-4.611951199194640694
0.597000000000000419,-4.594961764042157171
0.598000000000000420,-4.577769727210068140
0.599000000000000421,-4.560378051721139414
0.600000000000000422,-4.542789731564493394
0.601000000000000423,-4.525007789818971560
0.602000000000000424,-4.507035276814560731
0.603000000000000425,-4.488875268331662838
0.604000000000000425,-4.470530863837870683
0.605000000000000426,-4.452005184761992140
0.606000000000000427,-4.433301372805049212
0.607000000000000428,-4.414422588287793658
0.608000000000000429,-4.395372008534645047
0.609000000000000430,-4.376152826293460585
