# AuFCC100UCD_FLUORANE-AC
# h[nm],U(h)[kJ/mol]
0.149999999999999994,97.370432932841254114
0.150999999999999995,98.424345116828888536
0.151999999999999996,96.243330926915376722
0.152999999999999997,93.394735647244459642
0.153999999999999998,90.844148103729907007
0.154999999999999999,88.789695630379739555
0.156000000000000000,87.119130817287683044
0.157000000000000001,85.642262398201282281
0.158000000000000002,84.194782623226473106
0.159000000000000002,82.672566282409135852
0.160000000000000003,81.031674847157574959
0.161000000000000004,79.274207851125453317
0.162000000000000005,77.430812668700156109
0.163000000000000006,75.545070781675889293
0.164000000000000007,73.661768187290746823
0.165000000000000008,71.819331747705447810
0.166000000000000009,70.045884964017218977
0.167000000000000010,68.358068528526203522
0.168000000000000010,66.761745652652109584
0.169000000000000011,65.253824381817281619
0.170000000000000012,63.824593518280508420
0.171000000000000013,62.460138065410546915
0.172000000000000014,61.144550566908115741
0.173000000000000015,59.861776747220552863
0.174000000000000016,58.597025889872021764
0.175000000000000017,57.337741025312666920
0.176000000000000018,56.074165686396156616
0.177000000000000018,54.799567649860136953
0.178000000000000019,53.510190370326156994
0.179000000000000020,52.205003759844977651
0.180000000000000021,50.885320854110709377
0.181000000000000022,49.554338279904541764
0.182000000000000023,48.216648176967581207
0.183000000000000024,46.877758651464333184
0.184000000000000025,45.543649817702217319
0.185000000000000026,44.220383542948262345
0.186000000000000026,42.913777412882119222
0.187000000000000027,41.629147265658119181
0.188000000000000028,40.371117860946370115
0.189000000000000029,39.143497740017082265
0.190000000000000030,37.949211934704109694
0.191000000000000031,36.790284719921828582
0.192000000000000032,35.667863898507157216
0.193000000000000033,34.582277990987918770
0.194000000000000034,33.533118025758774650
0.195000000000000034,32.519336256516325534
0.196000000000000035,31.539354964243891288
0.197000000000000036,30.591179441674974271
0.198000000000000037,29.672510239172822821
0.199000000000000038,28.780850719466918974
0.200000000000000039,27.913606886440465615
0.201000000000000040,27.068177294195276517
0.202000000000000041,26.242031590984176148
0.203000000000000042,25.432776900305974266
0.204000000000000042,24.638211786642113310
0.205000000000000043,23.856367998672833863
0.206000000000000044,23.085540534256349332
0.207000000000000045,22.324306837044861851
0.208000000000000046,21.571536123654290407
0.209000000000000047,20.826389962690132762
0.210000000000000048,20.088315292600206874
0.211000000000000049,19.357031083892394463
0.212000000000000050,18.632509831741060680
0.213000000000000050,17.914955015667381133
0.214000000000000051,17.204775591200235141
0.215000000000000052,16.502558490687395221
0.216000000000000053,15.809040012301196043
0.217000000000000054,15.125076872463409927
0.218000000000000055,14.451617591274558805
0.219000000000000056,13.789674776192603289
0.220000000000000057,13.140298768604248281
0.221000000000000058,12.504553022916029548
0.222000000000000058,11.883491499678248360
0.223000000000000059,11.278138273928410840
0.224000000000000060,10.689469487903963341
0.225000000000000061,10.118397713730502119
0.226000000000000062,9.565758736593908296
0.227000000000000063,9.032300722013879124
0.228000000000000064,8.518675691765567493
0.229000000000000065,8.025433201249009940
0.230000000000000066,7.553016086118157446
0.231000000000000066,7.101758127136500676
0.232000000000000067,6.671883468893211599
0.233000000000000068,6.263507619553292827
0.234000000000000069,5.876639854605100410
0.235000000000000070,5.511186847006838363
0.236000000000000071,5.166957348653358650
0.237000000000000072,4.843667753155115108
0.238000000000000073,4.540948377055747720
0.239000000000000073,4.258350305371377154
0.240000000000000074,3.995352657312490230
0.241000000000000075,3.751370138899328133
0.242000000000000076,3.525760760590706866
0.243000000000000077,3.317833609748024770
0.244000000000000078,3.126856579520779889
0.245000000000000079,2.952063967375269105
0.246000000000000080,2.792663867834144220
0.247000000000000081,2.647845294922463122
0.248000000000000081,2.516784980224493928
0.249000000000000082,2.398653802267239676
0.250000000000000111,2.292622812105524321
0.251000000000000112,2.197868828453025891
0.252000000000000113,2.113579583462270151
0.253000000000000114,2.038958407298464781
0.254000000000000115,1.973228445979799073
0.255000000000000115,1.915636412586997350
0.256000000000000116,1.865455876896943810
0.257000000000000117,1.821990102799185607
0.258000000000000118,1.784574446541861148
0.259000000000000119,1.752578331961631708
0.260000000000000120,1.725406821419218861
0.261000000000000121,1.702501803228881672
0.262000000000000122,1.683342817976540173
0.263000000000000123,1.667447547309118594
0.264000000000000123,1.654371989586355340
0.265000000000000124,1.643710347256182924
0.266000000000000125,1.635094650982203746
0.267000000000000126,1.628194145454727959
0.268000000000000127,1.622714461487785531
0.269000000000000128,1.618396598477185311
0.270000000000000129,1.615015740598173988
0.271000000000000130,1.612379929284051938
0.272000000000000131,1.610328613574421919
0.273000000000000131,1.608731098877741683
0.274000000000000132,1.607484913577980068
0.275000000000000133,1.606514111749473894
0.276000000000000134,1.605767529044483055
0.277000000000000135,1.605217007599493373
0.278000000000000136,1.604855604583104167
0.279000000000000137,1.604695797791724443
0.280000000000000138,1.604767700499496019
0.281000000000000139,1.605117296595043097
0.282000000000000139,1.605804705896484608
0.283000000000000140,1.606902488434400311
0.284000000000000141,1.608493995434713497
0.285000000000000142,1.610671773723656885
0.286000000000000143,1.613536029318329401
0.287000000000000144,1.617193155060988374
0.288000000000000145,1.621754326304033267
0.289000000000000146,1.627334167857403369
0.290000000000000147,1.634049494669806091
0.291000000000000147,1.642018128030629409
0.292000000000000148,1.651357788448771347
0.293000000000000149,1.662185065787719296
0.294000000000000150,1.674614466711075167
0.295000000000000151,1.688757539017559761
0.296000000000000152,1.704722072018135082
0.297000000000000153,1.722611371727148732
0.298000000000000154,1.742523609303327392
0.299000000000000155,1.764551240881617078
0.300000000000000155,1.788780496681793952
0.301000000000000156,1.815290937061706744
0.302000000000000157,1.844155072999598577
0.303000000000000158,1.875438048338935459
0.304000000000000159,1.909197381008005845
0.305000000000000160,1.945482760333568040
0.306000000000000161,1.984335897499611034
0.307000000000000162,2.025790426158079693
0.308000000000000163,2.069871850175204031
0.309000000000000163,2.116597535492936721
0.310000000000000164,2.165976743098542823
0.311000000000000165,2.218010700124365187
0.312000000000000166,2.272692706142289687
0.313000000000000167,2.330008271772627815
0.314000000000000168,2.389935286792540303
0.315000000000000169,2.452444215004032646
0.316000000000000170,2.517498313204167282
0.317000000000000171,2.585053871689511062
0.318000000000000171,2.655060473821670985
0.319000000000000172,2.727461272280071736
0.320000000000000173,2.802193279730596398
0.321000000000000174,2.879187671744339649
0.322000000000000175,2.958370099907330353
0.323000000000000176,3.039661013170244175
0.324000000000000177,3.122975985595398019
0.325000000000000178,3.208226048766290806
0.326000000000000179,3.295318027232063685
0.327000000000000179,3.384154875465213763
0.328000000000000180,3.474636014915174709
0.329000000000000181,3.566657669841903466
0.330000000000000182,3.660113200714042669
0.331000000000000183,3.754893434052411383
0.332000000000000184,3.850886987694087882
0.333000000000000185,3.947980590543073820
0.334000000000000186,4.046059395961128402
0.335000000000000187,4.145007288036692827
0.336000000000000187,4.244707180050531825
0.337000000000000188,4.345041304533888926
0.338000000000000189,4.445891494388529708
0.339000000000000190,4.547139454608072562
0.340000000000000191,4.648667024206386778
0.341000000000000192,4.750356428021353494
0.342000000000000193,4.852090518121944918
0.343000000000000194,4.953753004601675336
0.344000000000000195,5.055228675594251264
0.345000000000000195,5.156403606395702610
0.346000000000000196,5.257165357623001078
0.347000000000000197,5.357403162381567441
0.348000000000000198,5.457008102453047016
0.349000000000000199,5.555873273551291014
0.350000000000000200,5.653893939727464790
0.351000000000000201,5.750967677035947467
0.352000000000000202,5.846994506600418973
0.353000000000000203,5.941877017244684644
0.354000000000000203,6.035520477875904177
0.355000000000000204,6.127832939827899672
0.356000000000000205,6.218725329390807133
0.357000000000000206,6.308111530769277664
0.358000000000000207,6.395908459725527351
0.359000000000000208,6.482036128175839629
0.360000000000000209,6.566417700019424153
0.361000000000000210,6.648979538487381546
0.362000000000000210,6.729651245306667029
0.363000000000000211,6.808365691979565426
0.364000000000000212,6.885059043483646057
0.365000000000000213,6.959670774700052576
0.366000000000000214,7.032143679879941267
0.367000000000000215,7.102423875459566993
0.368000000000000216,7.170460796534205983
0.369000000000000217,7.236207187299969590
0.370000000000000218,7.299619085770421734
0.371000000000000218,7.360655803072096326
0.372000000000000219,7.419279897619335706
0.373000000000000220,7.475457144464861869
0.374000000000000221,7.529156500117362150
0.375000000000000222,7.580350063112400782
0.376000000000000223,7.629013030616832225
0.377000000000000224,7.675123651341040798
0.378000000000000225,7.718663175026374113
0.379000000000000226,7.759615798768604300
0.380000000000000226,7.797968610430913827
0.381000000000000227,7.833711529392580530
0.382000000000000228,7.866837244872056267
0.383000000000000229,7.897341152055245672
0.384000000000000230,7.925221286252254416
0.385000000000000231,7.950478255297724672
0.386000000000000232,7.973115170402072849
0.387000000000000233,7.993137575652970561
0.388000000000000234,8.010553376358359401
0.389000000000000234,8.025372766414424319
0.390000000000000235,8.037608154874076760
0.391000000000000236,8.047274091883467761
0.392000000000000237,8.054387194146624296
0.393000000000000238,8.058966070070338716
0.394000000000000239,8.061031244734053303
0.395000000000000240,8.060605084822068278
0.396000000000000241,8.057711723648079527
0.397000000000000242,8.052376986394873981
0.398000000000000242,8.044628315685175224
0.399000000000000243,8.034494697592617030
0.400000000000000244,8.022006588195441878
0.401000000000000245,8.007195840768668305
0.402000000000000246,7.990095633704653366
0.403000000000000247,7.970740399245404895
0.404000000000000248,7.949165753104452392
0.405000000000000249,7.925408425050088468
0.406000000000000250,7.899506190516426329
0.407000000000000250,7.871497803303237006
0.408000000000000251,7.841422929420490462
0.409000000000000252,7.809322082128427489
0.410000000000000253,7.775236558219376093
0.411000000000000254,7.739208375582689037
0.412000000000000255,7.701280212090115818
0.413000000000000256,7.661495345834319792
0.414000000000000257,7.619897596749558133
0.415000000000000258,7.576531269639419364
0.416000000000000258,7.531441098633041342
0.417000000000000259,7.484672193087563485
0.418000000000000260,7.436269984951333178
0.419000000000000261,7.386280177599175545
0.420000000000000262,7.334748696148023051
0.421000000000000263,7.281721639258345924
0.422000000000000264,7.227245232424190036
0.423000000000000265,7.171365782752006979
0.424000000000000266,7.114129635226069226
0.425000000000000266,7.055583130456072993
0.426000000000000267,6.995772563900336749
0.427000000000000268,6.934744146556051092
0.428000000000000269,6.872543967106153673
0.429000000000000270,6.809217955510767695
0.430000000000000271,6.744811848029297785
0.431000000000000272,6.679371153658076210
0.432000000000000273,6.612941121966834146
0.433000000000000274,6.545566712316113644
0.434000000000000274,6.477292564436450739
0.435000000000000275,6.408162970349269294
0.436000000000000276,6.338221847608246584
0.437000000000000277,6.267512713839058947
0.438000000000000278,6.196078662554783456
0.439000000000000279,6.123962340223235046
0.440000000000000280,6.051205924562085059
0.441000000000000281,5.977851104036985497
0.442000000000000282,5.903939058537328144
0.443000000000000282,5.829510441204042159
0.444000000000000283,5.754605361383230644
0.445000000000000284,5.679263368679361434
0.446000000000000285,5.603523438081336572
0.447000000000000286,5.527423956134663641
0.448000000000000287,5.451002708132770991
0.449000000000000288,5.374296866300461772
0.450000000000000289,5.297342978942397806
0.451000000000000290,5.220176960529618881
0.452000000000000290,5.142834082697036457
0.453000000000000291,5.065348966124985530
0.454000000000000292,4.987755573278073840
0.455000000000000293,4.910087201974572935
0.456000000000000294,4.832376479760016608
0.457000000000000295,4.754655359058700625
0.458000000000000296,4.676955113077019277
0.459000000000000297,4.599306332433066302
0.460000000000000298,4.521738922486838064
0.461000000000000298,4.444282101346150426
0.462000000000000299,4.366964398523264457
0.463000000000000300,4.289813654217893735
0.464000000000000301,4.212857019202467690
0.465000000000000302,4.136120955286019196
0.466000000000000303,4.059631236333248516
0.467000000000000304,3.983412949816051984
0.468000000000000305,3.907490498874886420
0.469000000000000306,3.831887604867989516
0.470000000000000306,3.756627310386856156
0.471000000000000307,3.681731982716701879
0.472000000000000308,3.607223317721310885
0.473000000000000309,3.533122344131847115
0.474000000000000310,3.459449428219998346
0.475000000000000311,3.386224278835794799
0.476000000000000312,3.313465952791619706
0.477000000000000313,3.241192860573502976
0.478000000000000314,3.169422772362097795
0.479000000000000314,3.098172824345621912
0.480000000000000315,3.027459525307764743
0.481000000000000316,2.957298763473968695
0.482000000000000317,2.887705813599948268
0.483000000000000318,2.818695344286750615
0.484000000000000319,2.750281425507126176
0.485000000000000320,2.682477536328463419
0.486000000000000321,2.615296572817889409
0.487000000000000322,2.548750856115686414
0.488000000000000322,2.482852140663507789
0.489000000000000323,2.417611622574451058
0.490000000000000324,2.353039948132251702
0.491000000000000325,2.289147222407502902
0.492000000000000326,2.225943017979062688
0.493000000000000327,2.163436383749310910
0.494000000000000328,2.101635853842245716
0.495000000000000329,2.040549456573848452
0.496000000000000330,1.980184723484540665
0.497000000000000330,1.920548698423842904
0.498000000000000331,1.861647946677856380
0.499000000000000332,1.803488564130502514
0.500000000000000333,1.746076186449665446
0.501000000000000334,1.689415998289992560
0.502000000000000335,1.633512742504241944
0.503000000000000336,1.578370729355532243
0.504000000000000337,1.523993845723019103
0.505000000000000338,1.470385564294077296
0.506000000000000338,1.417548952736135126
0.507000000000000339,1.365486682841753563
0.508000000000000340,1.314201039640838342
0.509000000000000341,1.263693930474097948
0.510000000000000342,1.213966894022193266
0.511000000000000343,1.165021109285254042
0.512000000000000344,1.116857404507771268
0.513000000000000345,1.069476266044095514
0.514000000000000346,1.022877847159943787
0.515000000000000346,0.977061976765780216
0.516000000000000347,0.932028168077914443
0.517000000000000348,0.887775627203583495
0.518000000000000349,0.844303261646399461
0.519000000000000350,0.801609688728858183
0.520000000000000351,0.759693243928686757
0.521000000000000352,0.718551989126139712
0.522000000000000353,0.678183720759505393
0.523000000000000353,0.638585977886178879
0.524000000000000354,0.599756050147069342
0.525000000000000355,0.561690985632005590
0.526000000000000356,0.524387598644244446
0.527000000000000357,0.487842477362161131
0.528000000000000358,0.452051991396390018
0.529000000000000359,0.417012299241036999
0.530000000000000360,0.382719355617386736
0.531000000000000361,0.349168918709000020
0.532000000000000361,0.316356557287011786
0.533000000000000362,0.284277657724741006
0.534000000000000363,0.252927430900693806
0.535000000000000364,0.222300918989278118
0.536000000000000365,0.192393002138642161
0.537000000000000366,0.163198405035118871
0.538000000000000367,0.134711703353935341
0.539000000000000368,0.106927330095868453
0.540000000000000369,0.079839581809724308
0.541000000000000369,0.053442624700517374
0.542000000000000370,0.027730500623418614
0.543000000000000371,0.002697132963507759
0.544000000000000372,-0.021663667598427909
0.545000000000000373,-0.045358197433808076
0.546000000000000374,-0.068392854427559602
0.547000000000000375,-0.090774132552352144
0.548000000000000376,-0.112508616555337199
0.549000000000000377,-0.133602976756783232
0.550000000000000377,-0.154063963960082900
0.551000000000000378,-0.173898404472362461
0.552000000000000379,-0.193113195235070756
0.553000000000000380,-0.211715299063705065
0.554000000000000381,-0.229711739995873104
0.555000000000000382,-0.247109598746849096
0.556000000000000383,-0.263916008271643798
0.557000000000000384,-0.280138149432713812
0.558000000000000385,-0.295783246772242436
0.559000000000000385,-0.310858564388023006
0.560000000000000386,-0.325371401911842606
0.561000000000000387,-0.339329090589290838
0.562000000000000388,-0.352738989459851937
0.563000000000000389,-0.365608481636178428
0.564000000000000390,-0.377944970681289516
0.565000000000000391,-0.389755877082581637
0.566000000000000392,-0.401048634821381200
0.567000000000000393,-0.411830688036817605
0.568000000000000393,-0.422109487782756254
0.569000000000000394,-0.431892488876538416
0.570000000000000395,-0.441187146838234401
0.571000000000000396,-0.450000914919088058
0.572000000000000397,-0.458341241217905815
0.573000000000000398,-0.466215565884025462
0.574000000000000399,-0.473631318405551394
0.575000000000000400,-0.480595914981542083
0.576000000000000401,-0.487116755976793492
0.577000000000000401,-0.493201223457918059
0.578000000000000402,-0.498856678809318499
0.579000000000000403,-0.504090460427771947
0.580000000000000404,-0.508909881494251093
0.581000000000000405,-0.513322227821635280
0.582000000000000406,-0.517334755777010491
0.583000000000000407,-0.520954690277133148
0.584000000000000408,-0.524189222855857673
0.585000000000000409,-0.527045509802048229
0.586000000000000409,-0.529530670366751943
0.587000000000000410,-0.531651785038291802
0.588000000000000411,-0.533415893883914749
0.589000000000000412,-0.534829994956781185
0.590000000000000413,-0.535901042766895652
0.591000000000000414,-0.536635946814756015
0.592000000000000415,-0.537041570186442829
0.593000000000000416,-0.537124728208815960
0.594000000000000417,-0.536892187163619194
0.595000000000000417,-0.536350663059229626
0.596000000000000418,-0.535506820458763633
0.597000000000000419,-0.534367271363399454
0.598000000000000420,-0.532938574149603328
0.599000000000000421,-0.531227232559131957
0.600000000000000422,-0.529239694740572864
0.601000000000000423,-0.526982352341256455
0.602000000000000424,-0.524461539648378938
0.603000000000000425,-0.521683532778203785
0.604000000000000425,-0.518654548912129920
0.605000000000000426,-0.515380745578593258
0.606000000000000427,-0.511868219979642491
0.607000000000000428,-0.508123008361066608
0.608000000000000429,-0.504151085425078249
0.609000000000000430,-0.499958363784365478
0.610000000000000431,-0.495550693456590696
0.611000000000000432,-0.490933861398175408
0.612000000000000433,-0.486113591076430152
0.613000000000000433,-0.481095542079002403
0.614000000000000434,-0.475885309759628172
0.615000000000000435,-0.470488424919205173
0.616000000000000436,-0.464910353521277464
0.617000000000000437,-0.459156496440930817
0.618000000000000438,-0.453232189246179140
0.619000000000000439,-0.447142702010922544
0.620000000000000440,-0.440893239158594075
