# AuFCC100UCD_FLUOROFORM-AC
# h[nm],U(h)[kJ/mol]
0.149999999999999994,129.980776567315331249
0.150999999999999995,130.289486742872526293
0.151999999999999996,126.869707761739761054
0.152999999999999997,122.687390384513903996
0.153999999999999998,118.876327318139686895
0.154999999999999999,115.680618369246488442
0.156000000000000000,112.976721820626877957
0.157000000000000001,110.542797039503710721
0.158000000000000002,108.181772476960333051
0.159000000000000002,105.764193603244706310
0.160000000000000003,103.230669414797532113
0.161000000000000004,100.576985476416297161
0.162000000000000005,97.834490706496282542
0.163000000000000006,95.052019068986737693
0.164000000000000007,92.281908320688359026
0.165000000000000008,89.570646070557614848
0.166000000000000009,86.953662669054779144
0.167000000000000010,84.453381641876319463
0.168000000000000010,82.079564776518694202
0.169000000000000011,79.831085170847273957
0.170000000000000012,77.698428569798082322
0.171000000000000013,75.666404888813815433
0.172000000000000014,73.716718553961158023
0.173000000000000015,71.830185148479756663
0.174000000000000016,69.988489344129362735
0.175000000000000017,68.175456883926955243
0.176000000000000018,66.377865605435857788
0.177000000000000018,64.585852132438333228
0.178000000000000019,62.792986834498869086
0.179000000000000020,60.996094344653499775
0.180000000000000021,59.194893997434213873
0.181000000000000022,57.391526907718649397
0.182000000000000023,55.590026256918420700
0.183000000000000024,53.795776279140589793
0.184000000000000025,52.014994537497706517
0.185000000000000026,50.254262045636892253
0.186000000000000026,48.520117017495444145
0.187000000000000027,46.818720695698189616
0.188000000000000028,45.155597839280368078
0.189000000000000029,43.535449967120776193
0.190000000000000030,41.962036216252300846
0.191000000000000031,40.438114514264007937
0.192000000000000032,38.965434502007383344
0.193000000000000033,37.544773100186468184
0.194000000000000034,36.176003627376246641
0.195000000000000034,34.858189801794146945
0.196000000000000035,33.589696669371711835
0.197000000000000036,32.368311391800219212
0.198000000000000037,31.191367815699862831
0.199000000000000038,30.055869761662467710
0.200000000000000039,28.958608969638845565
0.201000000000000040,27.896274578936235855
0.202000000000000041,26.865551882588988519
0.203000000000000042,25.863208862230390395
0.204000000000000042,24.886169673546184811
0.205000000000000043,23.931574812498688232
0.206000000000000044,22.996828151664676199
0.207000000000000045,22.079631400218367787
0.208000000000000046,21.178006818333845018
0.209000000000000047,20.290309216325368880
0.210000000000000048,19.415228400488960148
0.211000000000000049,18.551783301223164102
0.212000000000000050,17.699309044148169079
0.213000000000000050,16.857438210611046969
0.214000000000000051,16.026077488419080197
0.215000000000000052,15.205380844310969479
0.216000000000000053,14.395720263104731629
0.217000000000000054,13.597655000311315021
0.218000000000000055,12.811900190082718964
0.219000000000000056,12.039295542669842476
0.220000000000000057,11.280774758347842379
0.221000000000000058,10.537336180610669345
0.222000000000000058,9.810015112310592755
0.223000000000000059,9.099858125788285790
0.224000000000000060,8.407899612901017505
0.225000000000000061,7.735140743837931154
0.226000000000000062,7.082530935017457452
0.227000000000000063,6.450951866239293508
0.228000000000000064,5.841204035456479815
0.229000000000000065,5.253995795719310635
0.230000000000000066,4.689934782589946671
0.231000000000000066,4.149521611106555596
0.232000000000000067,3.633145698614718810
0.233000000000000068,3.141083052867600589
0.234000000000000069,2.673495853106514275
0.235000000000000070,2.230433644750436706
0.236000000000000071,1.811835965247674096
0.237000000000000072,1.417536218999682740
0.238000000000000073,1.047266622516559664
0.239000000000000073,0.700664046603693413
0.240000000000000074,0.377276589945320873
0.241000000000000075,0.076570727529136004
0.242000000000000076,-0.202061112432915829
0.243000000000000077,-0.459292678419893907
0.244000000000000078,-0.695855856164563469
0.245000000000000079,-0.912532571897849087
0.246000000000000080,-1.110146738493700269
0.247000000000000081,-1.289556333060662308
0.248000000000000081,-1.451645683148020449
0.249000000000000082,-1.597318027772762106
0.250000000000000111,-1.727488409025803362
0.251000000000000112,-1.843076940155118137
0.252000000000000113,-1.945002486804209285
0.253000000000000114,-2.034176789541121799
0.254000000000000115,-2.111499047968979692
0.255000000000000115,-2.177850979568183298
0.256000000000000116,-2.234092359982691622
0.257000000000000117,-2.281057045712801656
0.258000000000000118,-2.319549475095548097
0.259000000000000119,-2.350341639015119721
0.260000000000000120,-2.374170508958158621
0.261000000000000121,-2.391735906777782361
0.262000000000000122,-2.403698797819978417
0.263000000000000123,-2.410679986856639978
0.264000000000000123,-2.413259194523522666
0.265000000000000124,-2.411974490637585511
0.266000000000000125,-2.407322059829726246
0.267000000000000126,-2.399756274335477890
0.268000000000000127,-2.389690048503175568
0.269000000000000128,-2.377495449569194452
0.270000000000000129,-2.363504539480852706
0.271000000000000130,-2.348010422986690493
0.272000000000000131,-2.331268477832156183
0.273000000000000131,-2.313497743667443096
0.274000000000000132,-2.294882447169079853
0.275000000000000133,-2.275573641872797204
0.276000000000000134,-2.255690942291647350
0.277000000000000135,-2.235324333030546562
0.278000000000000136,-2.214536034788381791
0.279000000000000137,-2.193362410346171743
0.280000000000000138,-2.171815894860535945
0.281000000000000139,-2.149886936003018612
0.282000000000000139,-2.127545930697556376
0.283000000000000140,-2.104745146400778033
0.284000000000000141,-2.081420616034903581
0.285000000000000142,-2.057493996814441672
0.286000000000000143,-2.032874384299693471
0.287000000000000144,-2.007460074057587640
0.288000000000000145,-1.981140264311053389
0.289000000000000146,-1.953796693907451143
0.290000000000000147,-1.925305210834673542
0.291000000000000147,-1.895537267357161770
0.292000000000000148,-1.864361338634303866
0.293000000000000149,-1.831644262418992586
0.294000000000000150,-1.797252498115621488
0.295000000000000151,-1.761053304105341777
0.296000000000000152,-1.722915832822138116
0.297000000000000153,-1.682712143588962039
0.298000000000000154,-1.640318133698909886
0.299000000000000155,-1.595614388655393512
0.300000000000000155,-1.548486952868464162
0.301000000000000156,-1.498828022444285368
0.302000000000000157,-1.446536562003621906
0.303000000000000158,-1.391518847724894314
0.304000000000000159,-1.333688939030658105
0.305000000000000160,-1.272969081524602863
0.306000000000000161,-1.209290043943189730
0.307000000000000162,-1.142591392012310081
0.308000000000000163,-1.072821702198158977
0.309000000000000163,-0.999938718415089189
0.310000000000000164,-0.923909454802735786
0.311000000000000165,-0.844710247713026496
0.312000000000000166,-0.762326760056668995
0.313000000000000167,-0.676753941149587979
0.314000000000000168,-0.587995945175094237
0.315000000000000169,-0.496066011338484270
0.316000000000000170,-0.400986308739234409
0.317000000000000171,-0.302787748923116051
0.318000000000000171,-0.201509769004131950
0.319000000000000172,-0.097200088165337276
0.320000000000000173,0.010085559740168119
0.321000000000000174,0.120283714861018118
0.322000000000000175,0.233323498763596676
0.323000000000000176,0.349126938166631651
0.324000000000000177,0.467609302674549365
0.325000000000000178,0.588679454297610816
0.326000000000000179,0.712240206656174712
0.327000000000000179,0.838188691876650793
0.328000000000000180,0.966416733297068786
0.329000000000000181,1.096811222209234771
0.330000000000000182,1.229254496974414135
0.331000000000000183,1.363624722955635971
0.332000000000000184,1.499796271816239424
0.333000000000000185,1.637640098837224611
0.334000000000000186,1.777024117007109938
0.335000000000000187,1.917813566736368047
0.336000000000000187,2.059871380143739827
0.337000000000000188,2.203058538954118184
0.338000000000000189,2.347234425136579095
0.339000000000000190,2.492257163496848893
0.340000000000000191,2.637983955520768919
0.341000000000000192,2.784271403843531001
0.342000000000000193,2.930975826795274575
0.343000000000000194,3.077953562544208488
0.344000000000000195,3.225061262427188602
0.345000000000000195,3.372156173121324318
0.346000000000000196,3.519096407371346658
0.347000000000000197,3.665741203044694974
0.348000000000000198,3.811951170339924033
0.349000000000000199,3.957588527024865410
0.350000000000000200,4.102517321627694002
0.351000000000000201,4.246603644548565093
0.352000000000000202,4.389715827099827550
0.353000000000000203,4.531724628520902520
0.354000000000000203,4.672503411048944955
0.355000000000000204,4.811928303158152787
0.356000000000000205,4.949878351110198693
0.357000000000000206,5.086235658985083674
0.358000000000000207,5.220885517385769781
0.359000000000000208,5.353716521032056086
0.360000000000000209,5.484620675478664609
0.361000000000000210,5.613493493210064855
0.362000000000000210,5.740234079379891163
0.363000000000000211,5.864745207476344646
0.364000000000000212,5.986933385206545388
0.365000000000000213,6.106708910902778342
0.366000000000000214,6.223985920761736956
0.367000000000000215,6.338682427234677341
0.368000000000000216,6.450720348891638700
0.369000000000000217,6.560025532086863898
0.370000000000000218,6.666527764755207031
0.371000000000000218,6.770160782670926025
0.372000000000000219,6.870862268500535386
0.373000000000000220,6.968573843981110016
0.374000000000000221,7.063241055553609371
0.375000000000000222,7.154813353778801677
0.376000000000000223,7.243244066860033747
0.377000000000000224,7.328490368593458371
0.378000000000000225,7.410513241061662093
0.379000000000000226,7.489277432381896915
0.380000000000000226,7.564751409814304495
0.381000000000000227,7.636907308529673699
0.382000000000000228,7.705720876329777980
0.383000000000000229,7.771171414606550698
0.384000000000000230,7.833241715819275086
0.385000000000000231,7.891917997761579429
0.386000000000000232,7.947189834882353310
0.387000000000000233,7.999050086917071312
0.388000000000000234,8.047494825077828651
0.389000000000000234,8.092523256042490232
0.390000000000000235,8.134137643975202892
0.391000000000000236,8.172343230802017189
0.392000000000000237,8.207148154957598862
0.393000000000000238,8.238563368810233101
0.394000000000000239,8.266602554964400440
0.395000000000000240,8.291282041631935940
0.396000000000000241,8.312620717254521452
0.397000000000000242,8.330639944552238774
0.398000000000000242,8.345363474165040429
0.399000000000000243,8.356817358045827149
0.400000000000000244,8.365029862756456325
0.401000000000000245,8.370031382809875353
0.402000000000000246,8.371854354194590897
0.403000000000000247,8.370533168209940200
0.404000000000000248,8.366104085733704565
0.405000000000000249,8.358605152036380659
0.406000000000000250,8.348076112249810166
0.407000000000000250,8.334558327590952942
0.408000000000000251,8.318094692435328952
0.409000000000000252,8.298729552328122594
0.410000000000000253,8.276508623015107702
0.411000000000000254,8.251478910569268521
0.412000000000000255,8.223688632683714417
0.413000000000000256,8.193187141195380718
0.414000000000000257,8.160024845899261692
0.415000000000000258,8.124253139707246163
0.416000000000000258,8.085924325201027330
0.417000000000000259,8.045091542623534764
0.418000000000000260,8.001808699348890386
0.419000000000000261,7.956130400866483043
0.420000000000000262,7.908111883310415813
0.421000000000000263,7.857808947561622404
0.422000000000000264,7.805277894946229367
0.423000000000000265,7.750575464549728011
0.424000000000000266,7.693758772163310944
0.425000000000000266,7.634885250875226959
0.426000000000000267,7.574012593316892250
0.427000000000000268,7.511198695570399764
0.428000000000000269,7.446501602741290249
0.429000000000000270,7.379979456197764520
0.430000000000000271,7.311690442474739093
0.431000000000000272,7.241692743839038826
0.432000000000000273,7.170044490509518198
0.433000000000000274,7.096803714523886697
0.434000000000000274,7.022028305241837742
0.435000000000000275,6.945775966472501395
0.436000000000000276,6.868104175212157436
0.437000000000000277,6.789070141976694117
0.438000000000000278,6.708730772711772872
0.439000000000000279,6.627142632262180477
0.440000000000000280,6.544361909380524089
0.441000000000000281,6.460444383254424494
0.442000000000000282,6.375445391529917849
0.443000000000000282,6.289419799808149136
0.444000000000000283,6.202421972591172228
0.445000000000000284,6.114505745652136781
0.446000000000000285,6.025724399804182063
0.447000000000000286,5.936130636041832886
0.448000000000000287,5.845776552027970752
0.449000000000000288,5.754713619899122889
0.450000000000000289,5.662992665361104017
0.451000000000000290,5.570663848046941702
0.452000000000000290,5.477776643108485999
0.453000000000000291,5.384379824012940574
0.454000000000000292,5.290521446515358051
0.455000000000000293,5.196248833777868725
0.456000000000000294,5.101608562606533503
0.457000000000000295,5.006646450776448098
0.458000000000000296,4.911407545415783282
0.459000000000000297,4.815936112419620940
0.460000000000000298,4.720275626864167684
0.461000000000000298,4.624468764392603681
0.462000000000000299,4.528557393543279908
0.463000000000000300,4.432582568991792371
0.464000000000000301,4.336584525678221169
0.465000000000000302,4.240602673791427968
0.466000000000000303,4.144675594582100331
0.467000000000000304,4.048841036977102625
0.468000000000000305,3.953135914967516040
0.469000000000000306,3.857596305743317799
0.470000000000000306,3.762257448548044003
0.471000000000000307,3.667153744226928413
0.472000000000000308,3.572318755442677407
0.473000000000000309,3.477785207533177214
0.474000000000000310,3.383584989986151648
0.475000000000000311,3.289749158505713922
0.476000000000000312,3.196307937647023589
0.477000000000000313,3.103290723994588607
0.478000000000000314,3.010726089861344157
0.479000000000000314,2.918641787485254824
0.480000000000000315,2.827064753701108213
0.481000000000000316,2.736021115065455866
0.482000000000000317,2.645536193413212001
0.483000000000000318,2.555634511824865118
0.484000000000000319,2.466339800983703423
0.485000000000000320,2.377675005903076233
0.486000000000000321,2.289662293003988047
0.487000000000000322,2.202323057524002259
0.488000000000000322,2.115677931238754805
0.489000000000000323,2.029746790478061946
0.490000000000000324,1.944548764418791986
0.491000000000000325,1.860102243637448138
0.492000000000000326,1.776424888905669963
0.493000000000000327,1.693533640212474767
0.494000000000000328,1.611444725997409844
0.495000000000000329,1.530173672579320687
0.496000000000000330,1.449735313765913247
0.497000000000000330,1.370143800629626707
0.498000000000000331,1.291412611435927005
0.499000000000000332,1.213554561710558088
0.500000000000000333,1.136581814432497506
0.501000000000000334,1.060505890340132762
0.502000000000000335,0.985337678338349621
0.503000000000000336,0.911087445994788636
0.504000000000000337,0.837764850113737025
0.505000000000000338,0.765378947376830654
0.506000000000000338,0.693938205039837053
0.507000000000000339,0.623450511675315289
0.508000000000000340,0.553923187951387619
0.509000000000000341,0.485362997437104760
0.510000000000000342,0.417776157425332584
0.511000000000000343,0.351168349764390431
0.512000000000000344,0.285544731690103193
0.513000000000000345,0.220909946650229699
0.514000000000000346,0.157268135113457330
0.515000000000000346,0.094622945355750415
0.516000000000000347,0.032977544216858015
0.517000000000000348,-0.027665372179689340
0.518000000000000349,-0.087303567749595162
0.519000000000000350,-0.145935255819862997
0.520000000000000351,-0.203559088555891332
0.521000000000000352,-0.260174146449080268
0.522000000000000353,-0.315779927870222354
0.523000000000000353,-0.370376338693833351
0.524000000000000354,-0.423963681998002273
0.525000000000000355,-0.476542647844449330
0.526000000000000356,-0.528114303142902863
0.527000000000000357,-0.578680081603902274
0.528000000000000358,-0.628241773783888013
0.529000000000000359,-0.676801517225915861
0.530000000000000360,-0.724361786699600385
0.531000000000000361,-0.770925384543251657
0.532000000000000361,-0.816495431111238568
0.533000000000000362,-0.861075355329195657
0.534000000000000363,-0.904668885359726338
0.535000000000000364,-0.947280039380891559
0.536000000000000365,-0.988913116479644083
0.537000000000000366,-1.029572687662246855
0.538000000000000367,-1.069263586983447256
0.539000000000000368,-1.107990902796132993
0.540000000000000369,-1.145759969122926769
0.541000000000000369,-1.182576357151100543
0.542000000000000370,-1.218445866851985082
0.543000000000000371,-1.253374518726009690
0.544000000000000372,-1.287368545674227649
0.545000000000000373,-1.320434384997168475
0.546000000000000374,-1.352578670521719095
0.547000000000000375,-1.383808224856515334
0.548000000000000376,-1.414130051776372854
0.549000000000000377,-1.443551328735996453
0.550000000000000377,-1.472079399513298803
0.551000000000000378,-1.499721766982311522
0.552000000000000379,-1.526486086015855781
0.553000000000000380,-1.552380156517781051
0.554000000000000381,-1.577411916584678275
0.555000000000000382,-1.601589435796826111
0.556000000000000383,-1.624920908637966566
0.557000000000000384,-1.647414648043615149
0.558000000000000385,-1.669079079077310679
0.559000000000000385,-1.689922732734350230
0.560000000000000386,-1.709954239872320203
0.561000000000000387,-1.729182325267782261
0.562000000000000388,-1.747615801798330981
0.563000000000000389,-1.765263564749294911
0.564000000000000390,-1.782134586244113361
0.565000000000000391,-1.798237909797589129
0.566000000000000392,-1.813582644991004189
0.567000000000000393,-1.828177962268104917
0.568000000000000393,-1.842033087850905471
0.569000000000000394,-1.855157298774249508
0.570000000000000395,-1.867559918037997591
0.571000000000000396,-1.879250309875629910
0.572000000000000397,-1.890237875138164103
0.573000000000000398,-1.900532046792105856
0.574000000000000399,-1.910142285530162409
0.575000000000000400,-1.919078075493502622
0.576000000000000401,-1.927348920104198005
0.577000000000000401,-1.934964338006587070
0.578000000000000402,-1.941933859116129923
0.579000000000000403,-1.948267020774473668
0.580000000000000404,-1.953973364009297997
0.581000000000000405,-1.959062429897542312
0.582000000000000406,-1.963543756030656340
0.583000000000000407,-1.967426873080342586
0.584000000000000408,-1.970721301463517205
0.585000000000000409,-1.973436548104883226
0.586000000000000409,-1.975582103295765446
0.587000000000000410,-1.977167437647760595
0.588000000000000411,-1.978201999139630685
0.589000000000000412,-1.978695210256149251
0.590000000000000413,-1.978656465217247584
0.591000000000000414,-1.978095127296124689
0.592000000000000415,-1.977020526224824382
0.593000000000000416,-1.975441955685741435
0.594000000000000417,-1.973368670887687415
0.595000000000000417,-1.970809886225006746
0.596000000000000418,-1.967774773018243550
0.597000000000000419,-1.964272457335007216
0.598000000000000420,-1.960312017889459302
0.599000000000000421,-1.955902484019092835
0.600000000000000422,-1.951052833737284775
0.601000000000000423,-1.945771991860212990
0.602000000000000424,-1.940068828206743534
0.603000000000000425,-1.933952155869866019
0.604000000000000425,-1.927430729558202938
0.605000000000000426,-1.920513244006312847
0.606000000000000427,-1.913208332452329019
0.607000000000000428,-1.905524565181549779
0.608000000000000429,-1.897470448134699783
0.609000000000000430,-1.889054421579389853
0.610000000000000431,-1.880284858843585427
0.611000000000000432,-1.871170065109604153
0.612000000000000433,-1.861718276267449124
0.613000000000000433,-1.851937657826135508
0.614000000000000434,-1.841836303881715153
0.615000000000000435,-1.831422236140718196
0.616000000000000436,-1.820703402997807974
0.617000000000000437,-1.809687678666371369
