# AuFCC100UCD_PYRIMIDINE-AC
# h[nm],U(h)[kJ/mol]
0.149999999999999994,141.088523071295298905
0.150999999999999995,138.533370635998835496
0.151999999999999996,134.142940737484423153
0.152999999999999997,129.397245198269644106
0.153999999999999998,124.896308993316779379
0.154999999999999999,120.791244122898618230
0.156000000000000000,117.033426170409299516
0.157000000000000001,113.510044817275385753
0.158000000000000002,110.110940711749591969
0.159000000000000002,106.755708309268840139
0.160000000000000003,103.399310924850141191
0.161000000000000004,100.027330744761812298
0.162000000000000005,96.647334974235633354
0.163000000000000006,93.279884587779051230
0.164000000000000007,89.950888186707942396
0.165000000000000008,86.685924734830479110
0.166000000000000009,83.506560965849558897
0.167000000000000010,80.428392859684308291
0.168000000000000010,77.460426217494813272
0.169000000000000011,74.605400762789983560
0.170000000000000012,71.860705369633421924
0.171000000000000013,69.219598084588426445
0.172000000000000014,66.672515379052015305
0.173000000000000015,64.208320616727007746
0.174000000000000016,61.815397348461274873
0.175000000000000017,59.482537236553312709
0.176000000000000018,57.199605472234260617
0.177000000000000018,54.957989741652319537
0.178000000000000019,52.750853773692440996
0.179000000000000020,50.573224991198330258
0.180000000000000021,48.421949391769885551
0.181000000000000022,46.295546902380102949
0.182000000000000023,44.193998238911412102
0.183000000000000024,42.118490672854136392
0.184000000000000025,40.071145759583025381
0.185000000000000026,38.054747523771496276
0.186000000000000026,36.072485179383726006
0.187000000000000027,34.127720411448130733
0.188000000000000028,32.223785695503998738
0.189000000000000029,30.363817137727245665
0.190000000000000030,28.550622892637147032
0.191000000000000031,26.786586329592772415
0.192000000000000032,25.073601725737017176
0.193000000000000033,23.413039301208819154
0.194000000000000034,21.805735816896024915
0.195000000000000034,20.252006660355412748
0.196000000000000035,18.751675289862014040
0.197000000000000036,17.304116033491347082
0.198000000000000037,15.908306500025943819
0.199000000000000038,14.562886208805043253
0.200000000000000039,13.266218450997232736
0.201000000000000040,12.016452826488714933
0.202000000000000041,10.811586336099882288
0.203000000000000042,9.649521331067585805
0.204000000000000042,8.528119018253008221
0.205000000000000043,7.445247581925935165
0.206000000000000044,6.398824306062723011
0.207000000000000045,5.386851362350819628
0.208000000000000046,4.407445168038050198
0.209000000000000047,3.458859415492980816
0.210000000000000048,2.539502034077725678
0.211000000000000049,1.647946467687689154
0.212000000000000050,0.782937741577378388
0.213000000000000050,-0.056606146372735290
0.214000000000000051,-0.871596938167189195
0.215000000000000052,-1.662782344725235673
0.216000000000000053,-2.430755206254261669
0.217000000000000054,-3.175965015094395660
0.218000000000000055,-3.898731259624612200
0.219000000000000056,-4.599258083701920796
0.220000000000000057,-5.277649797990900282
0.221000000000000058,-5.933926825328054377
0.222000000000000058,-6.568041710181040216
0.223000000000000059,-7.179894870804152340
0.224000000000000060,-7.769349820646960225
0.225000000000000061,-8.336247631964983640
0.226000000000000062,-8.880420458656264060
0.227000000000000063,-9.401703976547835850
0.228000000000000064,-9.899948637287968367
0.229000000000000065,-10.375029666420450880
0.230000000000000066,-10.826855766996050789
0.231000000000000066,-11.255376517193683483
0.232000000000000067,-11.660588473931653652
0.233000000000000068,-12.042540014472246312
0.234000000000000069,-12.401334964728629728
0.235000000000000070,-12.737135076579765069
0.236000000000000071,-13.050161427218347043
0.237000000000000072,-13.340694821646817303
0.238000000000000073,-13.609075285152860246
0.239000000000000073,-13.855700736193771405
0.240000000000000074,-14.081024931855202098
0.241000000000000075,-14.285554778164131662
0.242000000000000076,-14.469847096264938813
0.243000000000000077,-14.634504933030004992
0.244000000000000078,-14.780173501276189896
0.245000000000000079,-14.907535830583697134
0.246000000000000080,-15.017308204936252736
0.247000000000000081,-15.110235458174738454
0.248000000000000081,-15.187086192717686117
0.249000000000000082,-15.248647981273018459
0.250000000000000111,-15.295722605452416687
0.251000000000000112,-15.329121379391963842
0.252000000000000113,-15.349660600760765661
0.253000000000000114,-15.358157165963763902
0.254000000000000115,-15.355424380973456522
0.255000000000000115,-15.342267994096150829
0.256000000000000116,-15.319482472127930350
0.257000000000000117,-15.287847536806236093
0.258000000000000118,-15.248124974232144524
0.259000000000000119,-15.201055726037456139
0.260000000000000120,-15.147357267503199552
0.261000000000000121,-15.087721274601733512
0.262000000000000122,-15.022811579030431517
0.263000000000000123,-14.953262407720961491
0.264000000000000123,-14.879676901035853831
0.265000000000000124,-14.802625901888657012
0.266000000000000125,-14.722647006332646669
0.267000000000000126,-14.640243864737609414
0.268000000000000127,-14.555885721500001040
0.269000000000000128,-14.470007180289567117
0.270000000000000129,-14.383008181108346335
0.271000000000000130,-14.295254174907814360
0.272000000000000131,-14.207076481159557346
0.273000000000000131,-14.118772813585746206
0.274000000000000132,-14.030607959213176272
0.275000000000000133,-13.942814596000630445
0.276000000000000134,-13.855594234489354122
0.277000000000000135,-13.769118269226344964
0.278000000000000136,-13.683529126094745365
0.279000000000000137,-13.598941492143831411
0.280000000000000138,-13.515443615029454349
0.281000000000000139,-13.433098659743873071
0.282000000000000139,-13.351946110921650401
0.283000000000000140,-13.272003209645751198
0.284000000000000141,-13.193266414337509573
0.285000000000000142,-13.115712875987131980
0.286000000000000143,-13.039301918662030033
0.287000000000000144,-12.963976516911259296
0.288000000000000145,-12.889664762361800143
0.289000000000000146,-12.816281312469593345
0.290000000000000147,-12.743728815043370517
0.291000000000000147,-12.671899302796623132
0.292000000000000148,-12.600675552801551049
0.293000000000000149,-12.529932406314358673
0.294000000000000150,-12.459538045013067276
0.295000000000000151,-12.389355220234923749
0.296000000000000152,-12.319242432319065017
0.297000000000000153,-12.249055057651425216
0.298000000000000154,-12.178646421470888939
0.299000000000000155,-12.107868814929865664
0.300000000000000155,-12.036574455307270881
0.301000000000000156,-11.964616388648227741
0.302000000000000157,-11.891849334453146625
0.303000000000000158,-11.818130472359088756
0.304000000000000159,-11.743320171050047662
0.305000000000000160,-11.667282659899427699
0.306000000000000161,-11.589886644090256596
0.307000000000000162,-11.511005864175805513
0.308000000000000163,-11.430519601236944993
0.309000000000000163,-11.348313128964642615
0.310000000000000164,-11.264278114145922061
0.311000000000000165,-11.178312967161806668
0.312000000000000166,-11.090323144217325790
0.313000000000000167,-11.000221403116679397
0.314000000000000168,-10.907928014473309730
0.315000000000000169,-10.813370930305925555
0.316000000000000170,-10.716485912017763127
0.317000000000000171,-10.617216619789799026
0.318000000000000171,-10.515514665438951525
0.319000000000000172,-10.411339630802141087
0.320000000000000173,-10.304659053705810479
0.321000000000000174,-10.195448383569992501
0.322000000000000175,-10.083690908677303000
0.323000000000000176,-9.969377657110319646
0.324000000000000177,-9.852507273327358206
0.325000000000000178,-9.733085872306986630
0.326000000000000179,-9.611126873146812244
0.327000000000000179,-9.486650813952158146
0.328000000000000180,-9.359685149796664660
0.329000000000000181,-9.230264035480193030
0.330000000000000182,-9.098428094748516770
0.331000000000000183,-8.964224177578294928
0.332000000000000184,-8.827705107065613177
0.333000000000000185,-8.688929417391666021
0.334000000000000186,-8.547961084272492016
0.335000000000000187,-8.404869249232493900
0.336000000000000187,-8.259727938974627648
0.337000000000000188,-8.112615781052557651
0.338000000000000189,-7.963615716983616366
0.339000000000000190,-7.812814713875043893
0.340000000000000191,-7.660303475570502840
0.341000000000000192,-7.506176154260229438
0.342000000000000193,-7.350530063434061567
0.343000000000000194,-7.193465392996193586
0.344000000000000195,-7.035084927299256385
0.345000000000000195,-6.875493766797752926
0.346000000000000196,-6.714799053963632858
0.347000000000000197,-6.553109704052067386
0.348000000000000198,-6.390536141252726843
0.349000000000000199,-6.227190040710429031
0.350000000000000200,-6.063184076850564708
0.351000000000000201,-5.898631678397105560
0.352000000000000202,-5.733646790426594642
0.353000000000000203,-5.568343643758350225
0.354000000000000203,-5.402836531940184983
0.355000000000000204,-5.237239596050340396
0.356000000000000205,-5.071666617499442253
0.357000000000000206,-4.906230818981361708
0.358000000000000207,-4.741044673689133404
0.359000000000000208,-4.576219722881150531
0.360000000000000209,-4.411866401853718145
0.361000000000000210,-4.248093874348928267
0.362000000000000210,-4.085009875401302004
0.363000000000000211,-3.922720562603073891
0.364000000000000212,-3.761330375745977506
0.365000000000000213,-3.600941904776874480
0.366000000000000214,-3.441655765986082915
0.367000000000000215,-3.283570486329700167
0.368000000000000216,-3.126782395771622980
0.369000000000000217,-2.971385527516434255
0.370000000000000218,-2.817471525991361414
0.371000000000000218,-2.665129562423650178
0.372000000000000219,-2.514446257849212607
0.373000000000000220,-2.365505613378973582
0.374000000000000221,-2.218388947541176659
0.375000000000000222,-2.073174840510494832
0.376000000000000223,-1.929939085028761214
0.377000000000000224,-1.788754643816718781
0.378000000000000225,-1.649691613271943469
0.379000000000000226,-1.512817193244326175
0.380000000000000226,-1.378195662677999866
0.381000000000000227,-1.245888360906305836
0.382000000000000228,-1.115953674385266492
0.383000000000000229,-0.988447028650273674
0.384000000000000230,-0.863420885280446138
0.385000000000000231,-0.740924743655937190
0.386000000000000232,-0.621005147294080073
0.387000000000000233,-0.503705694551913163
0.388000000000000234,-0.389067053484498715
0.389000000000000234,-0.277126980650773236
0.390000000000000235,-0.167920343661135868
0.391000000000000236,-0.061479147264399646
0.392000000000000237,0.042167437225552204
0.393000000000000238,0.142993039358881913
0.394000000000000239,0.240974054026821344
0.395000000000000240,0.336089603174446527
0.396000000000000241,0.428321494932888069
0.397000000000000242,0.517654180350322735
0.398000000000000242,0.604074707896430696
0.399000000000000243,0.687572675910458009
0.400000000000000244,0.768140183158384726
0.401000000000000245,0.845771777659344304
0.402000000000000246,0.920464403937244269
0.403000000000000247,0.992217348848078773
0.404000000000000248,1.061032186128545884
0.405000000000000249,1.126912719806686169
0.406000000000000250,1.189864926610138651
0.407000000000000250,1.249896897502627668
0.408000000000000251,1.307018778474380749
0.409000000000000252,1.361242710707025960
0.410000000000000253,1.412582770228922424
0.411000000000000254,1.461054907171605688
0.412000000000000255,1.506676884733639810
0.413000000000000256,1.549468217952994609
0.414000000000000257,1.589450112384814373
0.415000000000000258,1.626645402776444538
0.416000000000000258,1.661078491827385095
0.417000000000000259,1.692775289117182114
0.418000000000000260,1.721763150280046117
0.419000000000000261,1.748070816500744140
0.420000000000000262,1.771728354402053895
0.421000000000000263,1.792767096390109671
0.422000000000000264,1.811219581520067567
0.423000000000000265,1.827119496940581955
0.424000000000000266,1.840501619971795177
0.425000000000000266,1.851401760868168767
0.426000000000000267,1.859856706313691932
0.427000000000000268,1.865904163693720808
0.428000000000000269,1.869582706184401699
0.429000000000000270,1.870931718697474988
0.430000000000000271,1.869991344714981185
0.431000000000000272,1.866802434045730763
0.432000000000000273,1.861406491532240137
0.433000000000000274,1.853845626734276664
0.434000000000000274,1.844162504612321118
0.435000000000000275,1.832400297231932651
0.436000000000000276,1.818602636507331782
0.437000000000000277,1.802813568000291911
0.438000000000000278,1.785077505788179142
0.439000000000000279,1.765439188412768701
0.440000000000000280,1.743943635919452007
0.441000000000000281,1.720636107994574671
0.442000000000000282,1.695562063206512038
0.443000000000000282,1.668767119354709560
0.444000000000000283,1.640297014928802977
0.445000000000000284,1.610197571678665396
0.446000000000000285,1.578514658294539075
0.447000000000000286,1.545294155194955055
0.448000000000000287,1.510581920418899715
0.449000000000000288,1.474423756617315062
0.450000000000000289,1.436865379137764354
0.451000000000000290,1.397952385195143421
0.452000000000000290,1.357730224120026197
0.453000000000000291,1.316244168675384074
0.454000000000000292,1.273539287431426414
0.455000000000000293,1.229660418187437321
0.456000000000000294,1.184652142428701760
0.457000000000000295,1.138558760805856718
0.458000000000000296,1.091424269623223697
0.459000000000000297,1.043292338322256541
0.460000000000000298,0.994206287945289091
0.461000000000000298,0.944209070564735464
0.462000000000000299,0.893343249661815997
0.463000000000000300,0.841650981438976542
0.464000000000000301,0.789173997049402609
0.465000000000000302,0.735953585726930370
0.466000000000000303,0.682030578799032061
0.467000000000000304,0.627445334565726487
0.468000000000000305,0.572237724026537498
0.469000000000000306,0.516447117437777492
0.470000000000000306,0.460112371682159904
0.471000000000000307,0.403271818432482276
0.472000000000000308,0.345963253091236322
0.473000000000000309,0.288223924487722216
0.474000000000000310,0.230090525314425864
0.475000000000000311,0.171599183283984880
0.476000000000000312,0.112785452988744872
0.477000000000000313,0.053684308444096815
0.478000000000000314,-0.005669863702392019
0.479000000000000314,-0.065243270314515156
0.480000000000000315,-0.125002717281703118
0.481000000000000316,-0.184915614422166114
0.482000000000000317,-0.244949979792798922
0.483000000000000318,-0.305074443423684005
0.484000000000000319,-0.365258250494832903
0.485000000000000320,-0.425471263972628133
0.486000000000000321,-0.485683966723310323
0.487000000000000322,-0.545867463120564667
0.488000000000000322,-0.605993480164173426
0.489000000000000323,-0.666034368126314780
0.490000000000000324,-0.725963100742115008
0.491000000000000325,-0.785753274960565462
0.492000000000000326,-0.845379110271862855
0.493000000000000327,-0.904815447626869274
0.494000000000000328,-0.964037747964225367
0.495000000000000329,-1.023022090360323100
0.496000000000000330,-1.081745169817083463
0.497000000000000330,-1.140184294702289103
0.498000000000000331,-1.198317383856860596
0.499000000000000332,-1.256122963383157876
0.500000000000000333,-1.313580163128327039
0.501000000000000334,-1.370668712876140782
0.502000000000000335,-1.427368938260701325
0.503000000000000336,-1.483661756414972555
0.504000000000000337,-1.539528671366963142
0.505000000000000338,-1.594951769195896762
0.506000000000000338,-1.649913712960594081
0.507000000000000339,-1.704397737411962099
0.508000000000000340,-1.758387643501111430
0.509000000000000341,-1.811867792694435764
0.510000000000000342,-1.864823101106697578
0.511000000000000343,-1.917239033462830644
0.512000000000000344,-1.969101596898935380
0.513000000000000345,-2.020397334612586970
0.514000000000000346,-2.071113319372507089
0.515000000000000346,-2.121237146897036130
0.516000000000000347,-2.170756929110917000
0.517000000000000348,-2.219661287289410811
0.518000000000000349,-2.267939345098605397
0.519000000000000350,-2.315580721540422271
0.520000000000000351,-2.362575523810726885
0.521000000000000352,-2.408914340078493588
0.522000000000000353,-2.454588232193850139
0.523000000000000353,-2.499588728332632570
0.524000000000000354,-2.543907815584602439
0.525000000000000355,-2.587537932492563364
0.526000000000000356,-2.630471961549043947
0.527000000000000357,-2.672703221657244388
0.528000000000000358,-2.714225460562657233
0.529000000000000359,-2.755032847261298379
0.530000000000000360,-2.795119964390713641
0.531000000000000361,-2.834481800609307101
0.532000000000000361,-2.873113742969574780
0.533000000000000362,-2.911011569290425260
0.534000000000000363,-2.948171440533788434
0.535000000000000364,-2.984589893190315646
0.536000000000000365,-3.020263831678868360
0.537000000000000366,-3.055190520764312634
0.538000000000000367,-3.089367577997905734
0.539000000000000368,-3.122792966184416930
0.540000000000000369,-3.155464985879925965
0.541000000000000369,-3.187382267924062429
0.542000000000000370,-3.218543766010289797
0.543000000000000371,-3.248948749297696281
0.544000000000000372,-3.278596795067544978
0.545000000000000373,-3.307487781427679518
0.546000000000000374,-3.335621880067830780
0.547000000000000375,-3.362999549068525162
0.548000000000000376,-3.389621525766379762
0.549000000000000377,-3.415488819678202503
0.550000000000000377,-3.440602705486397017
0.551000000000000378,-3.464964716087818086
0.552000000000000379,-3.488576635708300788
0.553000000000000380,-3.511440493084791115
0.554000000000000381,-3.533558554716981881
0.555000000000000382,-3.554933318190245384
0.556000000000000383,-3.575567505571414895
0.557000000000000384,-3.595464056879044357
0.558000000000000385,-3.614626123629494536
0.559000000000000385,-3.633057062460210318
0.560000000000000386,-3.650760428831346438
0.561000000000000387,-3.667739970806930039
0.562000000000000388,-3.683999622916489525
0.563000000000000389,-3.699543500098191551
0.564000000000000390,-3.714375891724174039
0.565000000000000391,-3.728501255708981610
0.566000000000000392,-3.741924212701662977
0.567000000000000393,-3.754649540362171134
0.568000000000000393,-3.766682167722528618
0.569000000000000394,-3.778027169633261018
0.570000000000000395,-3.788689761295422898
0.571000000000000396,-3.798675292878473719
0.572000000000000397,-3.807989244224317726
0.573000000000000398,-3.816637219637605938
0.574000000000000399,-3.824624942762403723
0.575000000000000400,-3.831958251545318550
0.576000000000000401,-3.838643093284996866
0.577000000000000401,-3.844685519767997217
0.578000000000000402,-3.850091682490867306
0.579000000000000403,-3.854867827968264660
0.580000000000000404,-3.859020293126932621
0.581000000000000405,-3.862555500785203488
0.582000000000000406,-3.865479955217801855
0.583000000000000407,-3.867800237805503194
0.584000000000000408,-3.869523002769368336
0.585000000000000409,-3.870654972989005849
0.586000000000000409,-3.871202935904483500
0.587000000000000410,-3.871173739501391431
0.588000000000000411,-3.870574288378425987
0.589000000000000412,-3.869411539897083863
0.590000000000000413,-3.867692500412720502
0.591000000000000414,-3.865424221586478470
0.592000000000000415,-3.862613796777361053
0.593000000000000416,-3.859268357513798264
0.594000000000000417,-3.855395070044040473
0.595000000000000417,-3.851001131964630453
0.596000000000000418,-3.846093768926202472
0.597000000000000419,-3.840680231415935619
0.598000000000000420,-3.834767791615758092
0.599000000000000421,-3.828363740335632315
0.600000000000000422,-3.821475384021046473
0.601000000000000423,-3.814110041833894904
0.602000000000000424,-3.806275042805940867
0.603000000000000425,-3.797977723064017930
0.604000000000000425,-3.789225423126041825
0.605000000000000426,-3.780025485267061836
0.606000000000000427,-3.770385250954430667
0.607000000000000428,-3.760312058351154896
0.608000000000000429,-3.749813239886655047
0.609000000000000430,-3.738896119893890813
0.610000000000000431,-3.727568012312084900
0.611000000000000432,-3.715836218454010353
0.612000000000000433,-3.703708024837019330
