# CNT15-NH2-2_GLY-AC
# h[nm],U(h)[kJ/mol]
0.200000000000000011,63.893760803294256334
0.201000000000000012,62.051163046012085545
0.202000000000000013,60.671637030061205564
0.203000000000000014,59.507136123824714957
0.204000000000000015,58.413968135769984258
0.205000000000000016,57.316711622850775143
0.206000000000000016,56.182901961103858923
0.207000000000000017,55.005613887309415588
0.208000000000000018,53.791770544950452404
0.209000000000000019,52.554551256262598713
0.210000000000000020,51.308686386018237613
0.211000000000000021,50.067745500852232965
0.212000000000000022,48.842766443405309928
0.213000000000000023,47.641755158470502352
0.214000000000000024,46.469722654611814505
0.215000000000000024,45.329026952355491176
0.216000000000000025,44.219862530730139838
0.217000000000000026,43.140794075878318381
0.218000000000000027,42.089270251775154463
0.219000000000000028,41.062080610606287223
0.220000000000000029,40.055737604771003646
0.221000000000000030,39.066778222634049200
0.222000000000000031,38.091987771698136100
0.223000000000000032,37.128553079545064008
0.224000000000000032,36.174154852020585338
0.225000000000000033,35.227009845653114439
0.226000000000000034,34.285873410496741087
0.227000000000000035,33.350012227028230427
0.228000000000000036,32.419155971901005842
0.229000000000000037,31.493435394391347870
0.230000000000000038,30.573312998360318460
0.231000000000000039,29.659511287974929417
0.232000000000000040,28.752942400656195332
0.233000000000000040,27.854641945510202561
0.234000000000000041,26.965709001155676816
0.235000000000000042,26.087253503558702761
0.236000000000000043,25.220351665194073121
0.237000000000000044,24.366009600210674080
0.238000000000000045,23.525134972625728835
0.239000000000000046,22.698516221396630499
0.240000000000000047,21.886808733109518244
0.241000000000000048,21.090527216320605675
0.242000000000000048,20.310043468745014650
0.243000000000000049,19.545588708289052704
0.244000000000000050,18.797259651554220738
0.245000000000000051,18.065027560468770673
0.246000000000000052,17.348749532031039422
0.247000000000000053,16.648181371889506863
0.248000000000000054,15.962991464862586355
0.249000000000000055,15.292775130710897002
0.250000000000000056,14.637069028556833672
0.251000000000000056,13.995365246067976273
0.252000000000000057,13.367124778255572437
0.253000000000000058,12.751790164371342939
0.254000000000000059,12.148797109206007860
0.255000000000000060,11.557584966730757969
0.256000000000000061,10.977606009363885420
0.257000000000000062,10.408333445277381912
0.258000000000000063,9.849268179320642247
0.259000000000000064,9.299944340675519783
0.260000000000000064,8.759933622686453702
0.261000000000000065,8.228848497894505343
0.262000000000000066,7.706344384626103938
0.263000000000000067,7.192120851037737239
0.264000000000000068,6.685921948772067580
0.265000000000000069,6.187535771800017237
0.266000000000000070,5.696793337040698901
0.267000000000000071,5.213566882366291289
0.268000000000000071,4.737767674982546140
0.269000000000000072,4.269343419257397798
0.270000000000000073,3.808275348148530526
0.271000000000000074,3.354575076716945770
0.272000000000000075,2.908281290035547251
0.273000000000000076,2.469456331307463337
0.274000000000000077,2.038182749363820712
0.275000000000000078,1.614559858056745512
0.276000000000000079,1.198700353515130157
0.277000000000000079,0.790727028880755300
0.278000000000000080,0.390769620066848733
0.279000000000000081,-0.001038189667685652
0.280000000000000082,-0.384561583912492122
0.281000000000000083,-0.759667228633861935
0.282000000000000084,-1.126225676168632450
0.283000000000000085,-1.484113548961597973
0.284000000000000086,-1.833215498050588810
0.285000000000000087,-2.173425934615739852
0.286000000000000087,-2.504650535823038204
0.287000000000000088,-2.826807528721503981
0.288000000000000089,-3.139828758118993424
0.289000000000000090,-3.443660546185822291
0.290000000000000091,-3.738264353040386734
0.291000000000000092,-4.023617248783429190
0.292000000000000093,-4.299712208389666834
0.293000000000000094,-4.566558241563931198
0.294000000000000095,-4.824180370146870622
0.295000000000000095,-5.072619465937375338
0.296000000000000096,-5.311931961906252830
0.297000000000000097,-5.542189449731742101
0.298000000000000098,-5.763478176411132026
0.299000000000000099,-5.975898452414158513
0.300000000000000100,-6.179563983459696708
0.301000000000000101,-6.374601137535391260
0.302000000000000102,-6.561148158253020668
0.303000000000000103,-6.739354335057214485
0.304000000000000103,-6.909379140190556434
0.305000000000000104,-7.071391341678075371
0.306000000000000105,-7.225568100936866855
0.307000000000000106,-7.372094062950862892
0.308000000000000107,-7.511160446285032322
0.309000000000000108,-7.642964139553066971
0.310000000000000109,-7.767706810304510157
0.311000000000000110,-7.885594031664808767
0.312000000000000111,-7.996834431450862368
0.313000000000000111,-8.101638867896085117
0.314000000000000112,-8.200219635557560949
0.315000000000000113,-8.292789704444315291
0.316000000000000114,-8.379561994901825628
0.317000000000000115,-8.460748690314758846
0.318000000000000116,-8.536560589248045616
0.319000000000000117,-8.607206498235967729
0.320000000000000118,-8.672892666049822452
0.321000000000000119,-8.733822259926856901
0.322000000000000119,-8.790194883925392944
0.323000000000000120,-8.842206139282996702
0.324000000000000121,-8.890047226395321189
0.325000000000000122,-8.933904587801334785
0.326000000000000123,-8.973959591355102461
0.327000000000000124,-9.010388252583961588
0.328000000000000125,-9.043360995076492159
0.329000000000000126,-9.073042447609093841
0.330000000000000127,-9.099591276607176482
0.331000000000000127,-9.123160052443093804
0.332000000000000128,-9.143895147997854522
0.333000000000000129,-9.161936667855000493
0.334000000000000130,-9.177418406452197530
0.335000000000000131,-9.190467833487582894
0.336000000000000132,-9.201206104861832102
0.337000000000000133,-9.209748097433349656
0.338000000000000134,-9.216202465870534155
0.339000000000000135,-9.220671719900998653
0.340000000000000135,-9.223252320282700367
0.341000000000000136,-9.224034791853444659
0.342000000000000137,-9.223103852054181928
0.343000000000000138,-9.220538553365347667
0.344000000000000139,-9.216412438144711672
0.345000000000000140,-9.210793704408006377
0.346000000000000141,-9.203745381150032046
0.347000000000000142,-9.195325511862732171
0.348000000000000143,-9.185587344968046963
0.349000000000000143,-9.174579529945592782
0.350000000000000144,-9.162346317999038092
0.351000000000000145,-9.148927766168919007
0.352000000000000146,-9.134359943864101439
0.353000000000000147,-9.118675140847919636
0.354000000000000148,-9.101902075778671275
0.355000000000000149,-9.084066104466540281
0.356000000000000150,-9.065189427070723838
0.357000000000000151,-9.045291293520548948
0.358000000000000151,-9.024388206503120458
0.359000000000000152,-9.002494121416777517
0.360000000000000153,-8.979620642745073766
0.361000000000000154,-8.955777216358821846
0.362000000000000155,-8.930971317305056445
0.363000000000000156,-8.905208632690818860
0.364000000000000157,-8.878493239316224361
0.365000000000000158,-8.850827775756425098
0.366000000000000159,-8.822213608633967752
0.367000000000000159,-8.792650992863622506
0.368000000000000160,-8.762139225689612232
0.369000000000000161,-8.730676794370902272
0.370000000000000162,-8.698261517403889087
0.371000000000000163,-8.664890679203278268
0.372000000000000164,-8.630561158191145665
0.373000000000000165,-8.595269548271692983
0.374000000000000166,-8.559012273694428075
0.375000000000000167,-8.521785697331665688
0.376000000000000167,-8.483586222418107781
0.377000000000000168,-8.444410387819591080
0.378000000000000169,-8.404254956916158648
0.379000000000000170,-8.363117000200986695
0.380000000000000171,-8.320993971711107662
0.381000000000000172,-8.277883779419216381
0.382000000000000173,-8.233784849727401323
0.383000000000000174,-8.188696186214063033
0.384000000000000175,-8.142617422794101500
0.385000000000000175,-8.095548871460326978
0.386000000000000176,-8.047491564780653306
0.387000000000000177,-7.998447293330919194
0.388000000000000178,-7.948418638247974677
0.389000000000000179,-7.897408999090744786
0.390000000000000180,-7.845422617199955262
0.391000000000000181,-7.792464594748682138
0.392000000000000182,-7.738540909677046109
0.393000000000000183,-7.683658426704454314
0.394000000000000183,-7.627824904612578116
0.395000000000000184,-7.571048999991091932
0.396000000000000185,-7.513340267636655412
0.397000000000000186,-7.454709157793653951
0.398000000000000187,-7.395167010422477816
0.399000000000000188,-7.334726046678357037
0.400000000000000189,-7.273399357780346186
0.401000000000000190,-7.211200891446340577
0.402000000000000191,-7.148145436066255520
0.403000000000000191,-7.084248602781046955
0.404000000000000192,-7.019526805630983191
0.405000000000000193,-6.953997239931898555
0.406000000000000194,-6.887677859033328964
0.407000000000000195,-6.820587349607703409
0.408000000000000196,-6.752745105614401666
0.409000000000000197,-6.684171201077693247
0.410000000000000198,-6.614886361812324367
0.411000000000000199,-6.544911936225160431
0.412000000000000199,-6.474269865316204964
0.413000000000000200,-6.402982651997167984
0.414000000000000201,-6.331073329840307906
0.415000000000000202,-6.258565431365250120
0.416000000000000203,-6.185482955966390861
0.417000000000000204,-6.111850337578185410
0.418000000000000205,-6.037692412170888367
0.419000000000000206,-5.963034385164187157
0.420000000000000207,-5.887901798841300938
0.421000000000000207,-5.812320499841598043
0.422000000000000208,-5.736316606804711782
0.423000000000000209,-5.659916478235094139
0.424000000000000210,-5.583146680651087657
0.425000000000000211,-5.506033957078460439
0.426000000000000212,-5.428605195944252060
0.427000000000000213,-5.350887400422411844
0.428000000000000214,-5.272907658279189391
0.429000000000000214,-5.194693112261964174
0.430000000000000215,-5.116270931071887240
0.431000000000000216,-5.037668280957034561
0.432000000000000217,-4.958912297959219728
0.433000000000000218,-4.880030060844569917
0.434000000000000219,-4.801048564744633929
0.435000000000000220,-4.721994695531880559
0.436000000000000221,-4.642895204950448829
0.437000000000000222,-4.563776686520353287
0.438000000000000222,-4.484665552230636010
0.439000000000000223,-4.405588010034520607
0.440000000000000224,-4.326570042157140250
0.441000000000000225,-4.247637384224161927
0.442000000000000226,-4.168815505217686734
0.443000000000000227,-4.090129588263346605
0.444000000000000228,-4.011604512251068400
0.445000000000000229,-3.933264834289825096
0.446000000000000230,-3.855134772995131076
0.447000000000000230,-3.777238192606466871
0.448000000000000231,-3.699598587930254645
0.449000000000000232,-3.622239070102535319
0.450000000000000233,-3.545182353164483935
0.451000000000000234,-3.468450741442242524
0.452000000000000235,-3.392066117721895147
0.453000000000000236,-3.316049932208939843
0.454000000000000237,-3.240423192261042029
0.455000000000000238,-3.165206452881614396
0.456000000000000238,-3.090419807961313658
0.457000000000000239,-3.016082882253457775
0.458000000000000240,-2.942214824069102175
0.459000000000000241,-2.868834298676460115
0.460000000000000242,-2.795959482389334561
0.461000000000000243,-2.723608057328250620
0.462000000000000244,-2.651797206838054421
0.463000000000000245,-2.580543611544868998
0.464000000000000246,-2.509863446035538459
0.465000000000000246,-2.439772376142028243
0.466000000000000247,-2.370285556813190198
0.467000000000000248,-2.301417630556155558
0.468000000000000249,-2.233182726429535414
0.469000000000000250,-2.165594459570371999
0.470000000000000251,-2.098665931236936011
0.471000000000000252,-2.032409729349281324
0.472000000000000253,-1.966837929509680949
0.473000000000000254,-1.901962096484940856
0.474000000000000254,-1.837793286132801684
0.475000000000000255,-1.774342047754707608
0.476000000000000256,-1.711618426857332009
0.477000000000000257,-1.649631968305536045
0.478000000000000258,-1.588391719849381101
0.479000000000000259,-1.527906236008320429
0.480000000000000260,-1.468183582295681244
0.481000000000000261,-1.409231339766844560
0.482000000000000262,-1.351056609874920600
0.483000000000000262,-1.293666019617783380
0.484000000000000263,-1.237065726960729029
0.485000000000000264,-1.181261426519322644
0.486000000000000265,-1.126258355487226526
0.487000000000000266,-1.072061299794197620
0.488000000000000267,-1.018674600479668957
0.489000000000000268,-0.966102160267804377
0.490000000000000269,-0.914347450330017408
0.491000000000000270,-0.863413517221585325
0.492000000000000270,-0.813302989978990865
0.493000000000000271,-0.764018087365306298
0.494000000000000272,-0.715560625251012494
0.495000000000000273,-0.667932024118103485
0.496000000000000274,-0.621133316675783087
0.497000000000000275,-0.575165155576146225
0.498000000000000276,-0.530027821218870931
0.499000000000000277,-0.485721229634112794
0.500000000000000222,-0.442244940433181910
0.501000000000000334,-0.399598164816981571
0.502000000000000224,-0.357779773632517617
0.503000000000000336,-0.316788305467960829
0.504000000000000226,-0.276621974777469082
0.505000000000000338,-0.237278680026757616
0.506000000000000227,-0.198756011851395020
0.507000000000000339,-0.161051261219403108
0.508000000000000229,-0.124161427590778445
0.509000000000000341,-0.088083227066214714
0.510000000000000231,-0.052813100518243325
0.511000000000000343,-0.018347221697652218
0.512000000000000233,0.015318494690991984
0.513000000000000345,0.048188384951192195
0.514000000000000234,0.080267028399366988
0.515000000000000346,0.111559239418656420
0.516000000000000236,0.142070059566698409
0.517000000000000348,0.171804749742726498
0.518000000000000238,0.200768782418618036
0.519000000000000350,0.228967833938587884
0.520000000000000240,0.256407776891713013
0.521000000000000352,0.283094672561431560
0.522000000000000242,0.309034763455776851
0.523000000000000353,0.334234465921989021
0.524000000000000243,0.358700362848782817
0.525000000000000355,0.382439196459507413
0.526000000000000245,0.405457861198994629
0.527000000000000357,0.427763396716964117
0.528000000000000247,0.449362980950321400
0.529000000000000359,0.470263923306845855
0.530000000000000249,0.490473657952230080
0.531000000000000361,0.509999737202550096
0.532000000000000250,0.528849825023811837
0.533000000000000362,0.547031690640289336
0.534000000000000252,0.564553202252976227
0.535000000000000364,0.581422320869489861
0.536000000000000254,0.597647094246488098
0.537000000000000366,0.613235650945650468
0.538000000000000256,0.628196194503917726
0.539000000000000368,0.642536997718826330
0.540000000000000258,0.656266397049338313
0.541000000000000369,0.669392787132746081
0.542000000000000259,0.681924615417816460
0.543000000000000371,0.693870376914477505
0.544000000000000261,0.705238609060037103
0.545000000000000373,0.716037886701972881
0.546000000000000263,0.726276817197102686
0.547000000000000375,0.735964035626965329
0.548000000000000265,0.745108200129012799
0.549000000000000377,0.753717987343286988
0.550000000000000266,0.761802087974023379
0.551000000000000378,0.769369202465625013
0.552000000000000268,0.776428036792358944
0.553000000000000380,0.782987298361054962
0.554000000000000270,0.789055692025983468
0.555000000000000382,0.794641916215103605
0.556000000000000272,0.799754659166701964
0.557000000000000384,0.804402595275526822
0.558000000000000274,0.808594381547282359
0.559000000000000385,0.812338654160517315
0.560000000000000275,0.815644025134677042
0.561000000000000387,0.818519079103209868
0.562000000000000277,0.820972370190509615
0.563000000000000389,0.823012418991400097
0.564000000000000279,0.824647709651918470
0.565000000000000391,0.825886687050042645
0.566000000000000281,0.826737754075054454
0.567000000000000393,0.827209269004106629
0.568000000000000282,0.827309542974617118
0.569000000000000394,0.827046837551072223
0.570000000000000284,0.826429362384783595
0.571000000000000396,0.825465272965107077
0.572000000000000286,0.824162668460671322
0.573000000000000398,0.822529589649122483
0.574000000000000288,0.820574016933863781
0.575000000000000400,0.818303868446226823
0.576000000000000290,0.815726998231660283
0.577000000000000401,0.812851194518265041
0.578000000000000291,0.809684178066227056
0.579000000000000403,0.806233600596579891
0.580000000000000293,0.802507043297740141
0.581000000000000405,0.798512015408246567
0.582000000000000295,0.794255952874234339
0.583000000000000407,0.789746217079991708
0.584000000000000297,0.784990093650160814
0.585000000000000409,0.779994791321941383
0.586000000000000298,0.774767440885885561
0.587000000000000410,0.769315094193614990
0.588000000000000300,0.763644723231085898
0.589000000000000412,0.757763219255771059
0.590000000000000302,0.751677391996358080
0.591000000000000414,0.745393968913359517
0.592000000000000304,0.738919594519299450
0.593000000000000416,0.732260829756865350
0.594000000000000306,0.725424151433668007
0.595000000000000417,0.718415951712108258
0.596000000000000307,0.711242537652993390
0.597000000000000419,0.703910130811390200
0.598000000000000309,0.696424866883382454
0.599000000000000421,0.688792795402370817
0.600000000000000311,0.681019879483465873
0.601000000000000423,0.673111995614686043
0.602000000000000313,0.665074933493615239
0.603000000000000425,0.656914395908190452
0.604000000000000314,0.648635998660323509
0.605000000000000426,0.640245270531069499
0.606000000000000316,0.631747653286101274
0.607000000000000428,0.623148501720212522
0.608000000000000318,0.614453083739648576
0.609000000000000430,0.605666580481019068
0.610000000000000320,0.596794086465673668
0.611000000000000432,0.587840609788263357
0.612000000000000322,0.578811072338467181
0.613000000000000433,0.569710310054619251
0.614000000000000323,0.560543073208229714
0.615000000000000435,0.551314026718227046
0.616000000000000325,0.542027750493926153
0.617000000000000437,0.532688739805578182
0.618000000000000327,0.523301405681550480
0.619000000000000439,0.513870075331063658
0.620000000000000329,0.504398992591520878
0.621000000000000441,0.494892318399433484
0.622000000000000330,0.485354131284008006
0.623000000000000442,0.475788427882414322
0.624000000000000332,0.466199123475898147
0.625000000000000444,0.456590052545710001
0.626000000000000334,0.446964969348126906
0.627000000000000446,0.437327548507547015
0.628000000000000336,0.427681385626948796
0.629000000000000448,0.418029997914788509
0.630000000000000338,0.408376824827614282
0.631000000000000449,0.398725228727515923
0.632000000000000339,0.389078495553747294
0.633000000000000451,0.379439835507669132
0.634000000000000341,0.369812383750372065
0.635000000000000453,0.360199201112144984
0.636000000000000343,0.350603274813264754
0.637000000000000455,0.341027519195203466
0.638000000000000345,0.331474776461818110
0.639000000000000457,0.321947817429679151
0.640000000000000346,0.312449342287060450
0.641000000000000458,0.302981981360845809
0.642000000000000348,0.293548295890882494
0.643000000000000460,0.284150778811069815
0.644000000000000350,0.274791855536741125
0.645000000000000462,0.265473884757663203
0.646000000000000352,0.256199159236255025
0.647000000000000464,0.246969906610354478
0.648000000000000353,0.237788290200181496
0.649000000000000465,0.228656409818854101
0.650000000000000355,0.219576302586128758
0.651000000000000467,0.210549943744772150
0.652000000000000357,0.201579247479212492
0.653000000000000469,0.192666067735970975
0.654000000000000359,0.183812199045493868
0.655000000000000471,0.175019377344952709
0.656000000000000361,0.166289280801635797
0.657000000000000473,0.157623530636514020
0.658000000000000362,0.149023691947661546
0.659000000000000474,0.140491274533131844
0.660000000000000364,0.132027733712967360
0.661000000000000476,0.123634471149974307
0.662000000000000366,0.115312835669011446
0.663000000000000478,0.107064124074379305
0.664000000000000368,0.098889581965124651
0.665000000000000480,0.090790404547853074
0.666000000000000369,0.082767737446887452
0.667000000000000481,0.074822677511398705
