# CNT15-NH2-2_HFE
# h[nm],U(h)[kJ/mol]
0.149999999999999994,60.269134699259311105
0.150999999999999995,58.786135891189850611
0.151999999999999996,57.802719958632870600
0.152999999999999997,56.930795667990160780
0.153999999999999998,56.031680417773543468
0.154999999999999999,55.080652367317227913
0.156000000000000000,54.095704519735704707
0.157000000000000001,53.103235998276602459
0.158000000000000002,52.124012619563110604
0.159000000000000002,51.169490298622392288
0.160000000000000003,50.242832003866496393
0.161000000000000004,49.341544802230700384
0.162000000000000005,48.460207530751951310
0.163000000000000006,47.592641601112248395
0.164000000000000007,46.733352122089186764
0.165000000000000008,45.878298035399360799
0.166000000000000009,45.025142207971519781
0.167000000000000010,44.173149736554599087
0.168000000000000010,43.322883766784784143
0.169000000000000011,42.475815215594792562
0.170000000000000012,41.633928008804140575
0.171000000000000013,40.799370703940411431
0.172000000000000014,39.974180944825789652
0.173000000000000015,39.160091382146639205
0.174000000000000016,38.358413794004690089
0.175000000000000017,37.569991052212792226
0.176000000000000018,36.795203134570378722
0.177000000000000018,36.034012512871207434
0.178000000000000019,35.286035058676290532
0.179000000000000020,34.550624405065846645
0.180000000000000021,33.826959965547167997
0.181000000000000022,33.114131180135743193
0.182000000000000023,32.411212798714316818
0.183000000000000024,31.717327985509051302
0.184000000000000025,31.031697669440529097
0.185000000000000026,30.353675856292294810
0.186000000000000026,29.682771575587839408
0.187000000000000027,29.018658792625483756
0.188000000000000028,28.361176018932848564
0.189000000000000029,27.710317550221596150
0.190000000000000030,27.066218296173747859
0.191000000000000031,26.429134083459768334
0.192000000000000032,25.799419149162282849
0.193000000000000033,25.177502327071614729
0.194000000000000034,24.563863188909976998
0.195000000000000034,23.959009155565635041
0.196000000000000035,23.363454354009139280
0.197000000000000036,22.777700773551014635
0.198000000000000037,22.202222076765846026
0.199000000000000038,21.637450249183455497
0.200000000000000039,21.083765128962891566
0.201000000000000040,20.541486742806501553
0.202000000000000041,20.010870285767502708
0.203000000000000042,19.492103518013877306
0.204000000000000042,18.985306308242829942
0.205000000000000043,18.490532028298893863
0.206000000000000044,18.007770493618100005
0.207000000000000045,17.536952146501398886
0.208000000000000046,17.077953191216174389
0.209000000000000047,16.630601409103494603
0.210000000000000048,16.194682406089828675
0.211000000000000049,15.769946072431398676
0.212000000000000050,15.356113063615193681
0.213000000000000050,14.952881140851953745
0.214000000000000051,14.559931238523612151
0.215000000000000052,14.176933153532861098
0.216000000000000053,13.803550777187940213
0.217000000000000054,13.439446813662382141
0.218000000000000055,13.084286949967363967
0.219000000000000056,12.737743460654842309
0.220000000000000057,12.399498246122899303
0.221000000000000058,12.069245316489865871
0.222000000000000058,11.746692743663610159
0.223000000000000059,11.431564112627242480
0.224000000000000060,11.123599509285449827
0.225000000000000061,10.822556086679572473
0.226000000000000062,10.528208254203279992
0.227000000000000063,10.240347535852240668
0.228000000000000064,9.958782143734206116
0.229000000000000065,9.683336312250578004
0.230000000000000066,9.413849436727826259
0.231000000000000066,9.150175057997323336
0.232000000000000067,8.892179731654071162
0.233000000000000068,8.639741817605308682
0.234000000000000069,8.392750222172278285
0.235000000000000070,8.151103121536987572
0.236000000000000071,7.914706691820262208
0.237000000000000072,7.683473867611286146
0.238000000000000073,7.457323147403566388
0.239000000000000073,7.236177461176209746
0.240000000000000074,7.019963112327443078
0.241000000000000075,6.808608803349618377
0.242000000000000076,6.602044752047248721
0.243000000000000077,6.400201902753917871
0.244000000000000078,6.203011234905104310
0.245000000000000079,6.010403169470527551
0.246000000000000080,5.822307072137455464
0.247000000000000081,5.638650850755910326
0.248000000000000081,5.459360643397963564
0.249000000000000082,5.284360592432017611
0.250000000000000111,5.113572699254858023
0.251000000000000112,4.946916753744021733
0.252000000000000113,4.784310332073600236
0.253000000000000114,4.625668856263406958
0.254000000000000115,4.470905708686222724
0.255000000000000115,4.319932394727129754
0.256000000000000116,4.172658746855972822
0.257000000000000117,4.028993163525412591
0.258000000000000118,3.888842876529323256
0.259000000000000119,3.752114240736403872
0.260000000000000120,3.618713040440664663
0.261000000000000121,3.488544806933790987
0.262000000000000122,3.361515142293657110
0.263000000000000123,3.237530044791210315
0.264000000000000123,3.116496231735924827
0.265000000000000124,2.998321456002221996
0.266000000000000125,2.882914812899203039
0.267000000000000126,2.770187034459490771
0.268000000000000127,2.660050768624997009
0.269000000000000128,2.552420841195405465
0.270000000000000129,2.447214498775487357
0.271000000000000130,2.344351631308334571
0.272000000000000131,2.243754973111437234
0.273000000000000131,2.145350281639835099
0.274000000000000132,2.049066493484880347
0.275000000000000133,1.954835857377736019
0.276000000000000134,1.862594044203746746
0.277000000000000135,1.772280234247533670
0.278000000000000136,1.683837182079027217
0.279000000000000137,1.597211259658980698
0.280000000000000138,1.512352478389200172
0.281000000000000139,1.429214490958587769
0.282000000000000139,1.347754573942654188
0.283000000000000140,1.267933592202022508
0.284000000000000141,1.189715946196095775
0.285000000000000142,1.113069503382579262
0.286000000000000143,1.037965514913098852
0.287000000000000144,0.964378518861280343
0.288000000000000145,0.892286231232804261
0.289000000000000146,0.821669426009553838
0.290000000000000147,0.752511805471589579
0.291000000000000147,0.684799862024090267
0.292000000000000148,0.618522732731134672
0.293000000000000149,0.553672047726577743
0.294000000000000150,0.490241773634266298
0.295000000000000151,0.428228053086917526
0.296000000000000152,0.367629041385838129
0.297000000000000153,0.308444741293022184
0.298000000000000154,0.250676836893811705
0.299000000000000155,0.194328527412942209
0.300000000000000155,0.139404361809948224
0.301000000000000156,0.085910074922264462
0.302000000000000157,0.033852425866191992
0.303000000000000158,-0.016760960651935618
0.304000000000000159,-0.065921749519737199
0.305000000000000160,-0.113621046359727890
0.306000000000000161,-0.159849544144683386
0.307000000000000162,-0.204597664858930717
0.308000000000000163,-0.247855695829435840
0.309000000000000163,-0.289613920401225688
0.310000000000000164,-0.329862742680213206
0.311000000000000165,-0.368592806112885474
0.312000000000000166,-0.405795105716598048
0.313000000000000167,-0.441461093815988803
0.314000000000000168,-0.475582779180583004
0.315000000000000169,-0.508152819495744423
0.316000000000000170,-0.539164607133848728
0.317000000000000171,-0.568612348224786679
0.318000000000000171,-0.596491135054833643
0.319000000000000172,-0.622797011850513060
0.320000000000000173,-0.647527034029258375
0.321000000000000174,-0.670679321021700137
0.322000000000000175,-0.692253102791259400
0.323000000000000176,-0.712248760195382191
0.324000000000000177,-0.730667859349448667
0.325000000000000178,-0.747513180169030789
0.326000000000000179,-0.762788739279206651
0.327000000000000179,-0.776499807490466210
0.328000000000000180,-0.788652922050284144
0.329000000000000181,-0.799255893887265478
0.330000000000000182,-0.808317810070844245
0.331000000000000183,-0.815849031714664386
0.332000000000000184,-0.821861187555112283
0.333000000000000185,-0.826367163438900265
0.334000000000000186,-0.829381087954779161
0.335000000000000187,-0.830918314444567763
0.336000000000000187,-0.830995399627876830
0.337000000000000188,-0.829630079073107929
0.338000000000000189,-0.826841239744879553
0.339000000000000190,-0.822648889854704635
0.340000000000000191,-0.817074126237711029
0.341000000000000192,-0.810139099473905278
0.342000000000000193,-0.801866976967148704
0.343000000000000194,-0.792281904189766295
0.344000000000000195,-0.781408964294494246
0.345000000000000195,-0.769274136289551214
0.346000000000000196,-0.755904251965710650
0.347000000000000197,-0.741326951757683039
0.348000000000000198,-0.725570639715028554
0.349000000000000199,-0.708664437750615384
0.350000000000000200,-0.690638139327476974
0.351000000000000201,-0.671522162737448580
0.352000000000000202,-0.651347504117641862
0.353000000000000203,-0.630145690343414389
0.354000000000000203,-0.607948731929070507
0.355000000000000204,-0.584789076060187263
0.356000000000000205,-0.560699559874236586
0.357000000000000206,-0.535713364098983624
0.358000000000000207,-0.509863967150975261
0.359000000000000208,-0.483185099789671946
0.360000000000000209,-0.455710700415826175
0.361000000000000210,-0.427474871096148124
0.362000000000000210,-0.398511834389809694
0.363000000000000211,-0.368855891046054651
0.364000000000000212,-0.338541378636115886
0.365000000000000213,-0.307602631176657648
0.366000000000000214,-0.276073939796364354
0.367000000000000215,-0.243989514491706583
0.368000000000000216,-0.211383447012726849
0.369000000000000217,-0.178289674914516805
0.370000000000000218,-0.144741946805312688
0.371000000000000218,-0.110773788817366506
0.372000000000000219,-0.076418472322453829
0.373000000000000220,-0.041708982909560710
0.374000000000000221,-0.006677990638381015
0.375000000000000222,0.028642178421658816
0.376000000000000223,0.064219569360560655
0.377000000000000224,0.100022624302331470
0.378000000000000225,0.136020206985327574
0.379000000000000226,0.172181626051720660
0.380000000000000226,0.208476657052198922
0.381000000000000227,0.244875563174748262
0.382000000000000228,0.281349114708619230
0.383000000000000229,0.317868607256976299
0.384000000000000230,0.354405878713808520
0.385000000000000231,0.390933325022468747
0.386000000000000232,0.427423914735169330
0.387000000000000233,0.463851202394207462
0.388000000000000234,0.500189340757283718
0.389000000000000234,0.536413091890487137
0.390000000000000235,0.572497837153828515
0.391000000000000236,0.608419586105136245
0.392000000000000237,0.644154984349212922
0.393000000000000238,0.679681320359802887
0.394000000000000239,0.714976531302794371
0.395000000000000240,0.750019207889538464
0.396000000000000241,0.784788598289752559
0.397000000000000242,0.819264611133872611
0.398000000000000242,0.853427817634960006
0.399000000000000243,0.887259452860584164
0.400000000000000244,0.920741416185252959
0.401000000000000245,0.953856270953877372
0.402000000000000246,0.986587243386990109
0.403000000000000247,1.018918220758222359
0.404000000000000248,1.050833748874412166
0.405000000000000249,1.082319028888621748
0.406000000000000250,1.113359913476035690
0.407000000000000250,1.143942902402423467
0.408000000000000251,1.174055137514592451
0.409000000000000252,1.203684397181745469
0.410000000000000253,1.232819090216417335
0.411000000000000254,1.261448249303052105
0.412000000000000255,1.289561523961930245
0.413000000000000256,1.317149173075550683
0.414000000000000257,1.344202057004154405
0.415000000000000258,1.370711629316357705
0.416000000000000258,1.396669928160474639
0.417000000000000259,1.422069567301353477
0.418000000000000260,1.446903726847039717
0.419000000000000261,1.471166143688944272
0.420000000000000262,1.494851101678498217
0.421000000000000263,1.517953421562741045
0.422000000000000264,1.540468450700526404
0.423000000000000265,1.562392052580513946
0.424000000000000266,1.583720596161262151
0.425000000000000266,1.604450945053328637
0.426000000000000267,1.624580446562384539
0.427000000000000268,1.644106920611874800
0.428000000000000269,1.663028648562998146
0.429000000000000270,1.681344361949143273
0.430000000000000271,1.699053231141335996
0.431000000000000272,1.716154853960514926
0.432000000000000273,1.732649244251898590
0.433000000000000274,1.748536820436013883
0.434000000000000274,1.763818394050424843
0.435000000000000275,1.778495158295471112
0.436000000000000276,1.792568676596838273
0.437000000000000277,1.806040871197133413
0.438000000000000278,1.818914011788055118
0.439000000000000279,1.831190704194214813
0.440000000000000280,1.842873879119072411
0.441000000000000281,1.853966780962939875
0.442000000000000282,1.864472956722427854
0.443000000000000282,1.874396244980254478
0.444000000000000283,1.883740764993746097
0.445000000000000284,1.892510905889934092
0.446000000000000285,1.900711315974678239
0.447000000000000286,1.908346892162658293
0.448000000000000287,1.915422769534804726
0.449000000000000288,1.921944311029133656
0.450000000000000289,1.927917097270617885
0.451000000000000290,1.933346916545282124
0.452000000000000290,1.938239754923289482
0.453000000000000291,1.942601786535443908
0.454000000000000292,1.946439364007090278
0.455000000000000293,1.949759009053110503
0.456000000000000294,1.952567403237288612
0.457000000000000295,1.954871378899031509
0.458000000000000296,1.956677910250072872
0.459000000000000297,1.957994104643518529
0.460000000000000298,1.958827194017225271
0.461000000000000298,1.959184526513285451
0.462000000000000299,1.959073558275064020
0.463000000000000300,1.958501845422992771
0.464000000000000301,1.957477036210072852
0.465000000000000302,1.956006863357760306
0.466000000000000303,1.954099136572744699
0.467000000000000304,1.951761735244848861
0.468000000000000305,1.949002601326066841
0.469000000000000306,1.945829732390620181
0.470000000000000306,1.942251174875644582
0.471000000000000307,1.938275017501986941
0.472000000000000308,1.933909384874396009
0.473000000000000309,1.929162431260258659
0.474000000000000310,1.924042334545828181
0.475000000000000311,1.918557290368799517
0.476000000000000312,1.912715506425912038
0.477000000000000313,1.906525196954163892
0.478000000000000314,1.899994577384068961
0.479000000000000314,1.893131859163285968
0.480000000000000315,1.885945244748868932
0.481000000000000316,1.878442922766238921
0.482000000000000317,1.870633063332946433
0.483000000000000318,1.862523813545141849
0.484000000000000319,1.854123293124665395
0.485000000000000320,1.845439590224521309
0.486000000000000321,1.836480757390505092
0.487000000000000322,1.827254807676633508
0.488000000000000322,1.817769710912015002
0.489000000000000323,1.808033390116721595
0.490000000000000324,1.798053718064190010
0.491000000000000325,1.787838513987639599
0.492000000000000326,1.777395540427957998
0.493000000000000327,1.766732500220483448
0.494000000000000328,1.755857033618049456
0.495000000000000329,1.744776715547716295
0.496000000000000330,1.733499052998481726
0.497000000000000330,1.722031482537372371
0.498000000000000331,1.710381367951188114
0.499000000000000332,1.698555998011276102
0.500000000000000333,1.686562584358605621
0.501000000000000334,1.674408259506489527
0.502000000000000335,1.662100074958259954
0.503000000000000336,1.649644999437227977
0.504000000000000337,1.637049917226250484
0.505000000000000338,1.624321626614248615
0.506000000000000338,1.611466838447032313
0.507000000000000339,1.598492174779794883
0.508000000000000340,1.585404167628656102
0.509000000000000341,1.572209257818677042
0.510000000000000342,1.558913793925730262
0.511000000000000343,1.545524031309711388
0.512000000000000344,1.532046131236524555
0.513000000000000345,1.518486160086362613
0.514000000000000346,1.504850088645767192
0.515000000000000346,1.491143791481057468
0.516000000000000347,1.477373046390666467
0.517000000000000348,1.463543533934002605
0.518000000000000349,1.449660837034479233
0.519000000000000350,1.435730440654380491
0.520000000000000351,1.421757731539242231
0.521000000000000352,1.407747998029518888
0.522000000000000353,1.393706429937277891
0.523000000000000353,1.379638118485725373
0.524000000000000354,1.365548056309433544
0.525000000000000355,1.351441137513096802
0.526000000000000356,1.337322157786775545
0.527000000000000357,1.323195814575540030
0.528000000000000358,1.309066707301518084
0.529000000000000359,1.294939337636373367
0.530000000000000360,1.280818109822255080
0.531000000000000361,1.266707331039335083
0.532000000000000361,1.252611211818063008
0.533000000000000362,1.238533866494302194
0.534000000000000363,1.224479313705579608
0.535000000000000364,1.210451476926670988
0.536000000000000365,1.196454185042836738
0.537000000000000366,1.182491172959007741
0.538000000000000367,1.168566082243301496
0.539000000000000368,1.154682461803254956
0.540000000000000369,1.140843768593216012
0.541000000000000369,1.127053368351367713
0.542000000000000370,1.113314536364892859
0.543000000000000371,1.099630458261825483
0.544000000000000372,1.086004230828167438
0.545000000000000373,1.072438862848901442
0.546000000000000374,1.058937275971531644
0.547000000000000375,1.045502305590863656
0.548000000000000376,1.032136701753728847
0.549000000000000377,1.018843130082422554
0.550000000000000377,1.005624172715639864
0.551000000000000378,0.992482329265730989
0.552000000000000379,0.979420017791153952
0.553000000000000380,0.966439575782977123
0.554000000000000381,0.953543261164397693
0.555000000000000382,0.940733253302193484
0.556000000000000383,0.928011654029115229
0.557000000000000384,0.915380488676224902
0.558000000000000385,0.902841707114230174
0.559000000000000385,0.890397184802885100
0.560000000000000386,0.878048723847572710
0.561000000000000387,0.865798054062188904
0.562000000000000388,0.853646834037503188
0.563000000000000389,0.841596652214167795
0.564000000000000390,0.829649027959614926
0.565000000000000391,0.817805412648061725
0.566000000000000392,0.806067190742910888
0.567000000000000393,0.794435680880827499
0.568000000000000393,0.782912136956826710
0.569000000000000394,0.771497749209692385
0.570000000000000395,0.760193645307134402
0.571000000000000396,0.749000891430034565
0.572000000000000397,0.737920493355219587
0.573000000000000398,0.726953397536203028
0.574000000000000399,0.716100492181340087
0.575000000000000400,0.705362608328885421
0.576000000000000401,0.694740520918462723
0.577000000000000401,0.684234949858452901
0.578000000000000402,0.673846561088855989
0.579000000000000403,0.663575967639197573
0.580000000000000404,0.653423730681034320
0.581000000000000405,0.643390360574691789
0.582000000000000406,0.633476317909831499
0.583000000000000407,0.623682014539485130
0.584000000000000408,0.614007814607230307
0.585000000000000409,0.604454035567153825
0.586000000000000409,0.595020949196298332
0.587000000000000410,0.585708782599303257
0.588000000000000411,0.576517719204954870
0.589000000000000412,0.567447899754364826
0.590000000000000413,0.558499423280554685
0.591000000000000414,0.549672348079181861
0.592000000000000415,0.540966692670200922
0.593000000000000416,0.532382436750243326
0.594000000000000417,0.523919522135518179
0.595000000000000417,0.515577853695059707
0.596000000000000418,0.507357300274132061
0.597000000000000419,0.499257695607655205
0.598000000000000420,0.491278839223480535
0.599000000000000421,0.483420497335400046
0.600000000000000422,0.475682403725742275
0.601000000000000423,0.468064260617468197
0.602000000000000424,0.460565739535629681
0.603000000000000425,0.453186482158113080
0.604000000000000425,0.445926101155591781
0.605000000000000426,0.438784181020588249
0.606000000000000427,0.431760278885588822
0.607000000000000428,0.424853925330173077
0.608000000000000429,0.418064625177047566
0.609000000000000430,0.411391858277034728
0.610000000000000431,0.404835080282882287
0.611000000000000432,0.398393723411936185
0.612000000000000433,0.392067197197637773
0.613000000000000433,0.385854889229806708
0.614000000000000434,0.379756165883747054
0.615000000000000435,0.373770373038145087
0.616000000000000436,0.367896836781769987
0.617000000000000437,0.362134864109000698
0.618000000000000438,0.356483743604188441
0.619000000000000439,0.350942746114876913
0.620000000000000440,0.345511125413914932
