# CNT15-NH2-2_NC4-AC
# h[nm],U(h)[kJ/mol]
0.149999999999999994,194.226262226017126977
0.150999999999999995,189.635173930363635009
0.151999999999999996,187.962523154234816047
0.152999999999999997,186.863105338437947012
0.153999999999999998,185.482582958232768533
0.154999999999999999,183.667037182260912687
0.156000000000000000,181.536026451861346231
0.157000000000000001,179.269722667921570292
0.158000000000000002,177.016914658666621563
0.159000000000000002,174.867166378652456160
0.160000000000000003,172.853740247083720760
0.161000000000000004,170.968509857164008281
0.162000000000000005,169.179015210091620247
0.163000000000000006,167.443088383944939324
0.164000000000000007,165.719448144118445043
0.165000000000000008,163.974215182168677529
0.166000000000000009,162.184009411885853069
0.167000000000000010,160.336521846946794767
0.168000000000000010,158.429432480763296098
0.169000000000000011,156.468408483643656837
0.170000000000000012,154.464742243072890915
0.171000000000000013,152.433018299893006997
0.172000000000000014,150.389051941518971489
0.173000000000000015,148.348227018019628076
0.174000000000000016,146.324276244392876833
0.175000000000000017,144.328490127667976139
0.176000000000000018,142.369305636193672626
0.177000000000000018,140.452207593664894603
0.178000000000000019,138.579869802193741180
0.179000000000000020,136.752465106053477939
0.180000000000000021,134.968080852446036033
0.181000000000000022,133.223186113359531646
0.182000000000000023,131.513107900000733252
0.183000000000000024,129.832484275294916642
0.184000000000000025,128.175672028424003202
0.185000000000000026,126.537095020127793532
0.186000000000000026,124.911526273550705923
0.187000000000000027,123.294302367609503790
0.188000000000000028,121.681472785562419858
0.189000000000000029,120.069889737479613245
0.190000000000000030,118.457245796621876366
0.191000000000000031,116.842067657698592598
0.192000000000000032,115.223674623045411636
0.193000000000000033,113.602110217726675501
0.194000000000000034,111.978054771968757564
0.195000000000000034,110.352726011727781952
0.196000000000000035,108.727773765456660726
0.197000000000000036,107.105173905912920418
0.198000000000000037,105.487125659825409230
0.199000000000000038,103.875955478674967480
0.200000000000000039,102.274029800226330167
0.201000000000000040,100.683678261010925326
0.202000000000000041,99.107128254030115500
0.203000000000000042,97.546451166001517663
0.204000000000000042,96.003520171921806536
0.205000000000000043,94.479979105409057638
0.206000000000000044,92.977221652712330524
0.207000000000000045,91.496379926566902441
0.208000000000000046,90.038321352745782633
0.209000000000000047,88.603652736703736537
0.210000000000000048,87.192730359992509648
0.211000000000000049,85.805674976687569711
0.212000000000000050,84.442390630293090226
0.213000000000000050,83.102586283830532921
0.214000000000000051,81.785799343395723326
0.215000000000000052,80.491420252711534999
0.216000000000000053,79.218717438359291805
0.217000000000000054,77.966861988577193188
0.218000000000000055,76.734951549691587047
0.219000000000000056,75.522033021039774781
0.220000000000000057,74.327123719898736454
0.221000000000000058,73.149230771257506944
0.222000000000000058,71.987368552486572071
0.223000000000000059,70.840574089693035376
0.224000000000000060,69.707920360712293473
0.225000000000000061,68.588527509429994211
0.226000000000000062,67.481572017792501583
0.227000000000000063,66.386293915918145103
0.228000000000000064,65.302002137734831422
0.229000000000000065,64.228078150163710802
0.230000000000000066,63.163977998707608208
0.231000000000000066,62.109232922047020509
0.232000000000000067,61.063448693558065372
0.233000000000000068,60.026303849176905203
0.234000000000000069,58.997546959345754658
0.235000000000000070,57.976993098447870523
0.236000000000000071,56.964519658685333070
0.237000000000000072,55.960061647242284266
0.238000000000000073,54.963606596224657608
0.239000000000000073,53.975189204646561336
0.240000000000000074,52.994885820959154898
0.241000000000000075,52.022808863576528893
0.242000000000000076,51.059101265770188149
0.243000000000000077,50.103931020381523354
0.244000000000000078,49.157485889195626783
0.245000000000000079,48.219968331660382432
0.246000000000000080,47.291590698019021488
0.247000000000000081,46.372570722924059794
0.248000000000000081,45.463127347269107759
0.249000000000000082,44.563476888340765925
0.250000000000000111,43.673829571471848965
0.251000000000000112,42.794386430169502944
0.252000000000000113,41.925336576186396087
0.253000000000000114,41.066854836182194788
0.254000000000000115,40.219099747453462612
0.255000000000000115,39.382211901665939990
0.256000000000000116,38.556312622560618308
0.257000000000000117,37.741502961187293863
0.258000000000000118,36.937862990303699462
0.259000000000000119,36.145451378119936692
0.260000000000000120,35.364305220525572793
0.261000000000000121,34.594440110267797195
0.262000000000000122,33.835850421210828642
0.263000000000000123,33.088509785761544890
0.264000000000000123,32.352371743753764122
0.265000000000000124,31.627370541510810398
0.266000000000000125,30.913422060417293125
0.267000000000000126,30.210424855096608354
0.268000000000000127,29.518261282180720428
0.269000000000000128,28.836798701650241838
0.270000000000000129,28.165890733787307454
0.271000000000000130,27.505378555904325566
0.272000000000000131,26.855092224167226078
0.273000000000000131,26.214852007005465140
0.274000000000000132,25.584469717779196429
0.275000000000000133,24.963750035542595640
0.276000000000000134,24.352491803891123112
0.277000000000000135,23.750489299000982157
0.278000000000000136,23.157533459050760882
0.279000000000000137,22.573413068255316460
0.280000000000000138,21.997915889733604899
0.281000000000000139,21.430829742370427482
0.282000000000000139,20.871943517717028271
0.283000000000000140,20.321048133802364077
0.284000000000000141,19.777937423496418035
0.285000000000000142,19.242408955778053326
0.286000000000000143,18.714264788912718274
0.287000000000000144,18.193312155141473596
0.288000000000000145,17.679364077021670454
0.289000000000000146,17.172239916046187602
0.290000000000000147,16.671765854599307488
0.291000000000000147,16.177775312691000664
0.292000000000000148,15.690109301244698159
0.293000000000000149,15.208616714003236225
0.294000000000000150,14.733154560363104224
0.295000000000000151,14.263588141653093189
0.296000000000000152,13.799791173541134270
0.297000000000000153,13.341645857387309348
0.298000000000000154,12.889042903460969924
0.299000000000000155,12.441881509012393536
0.300000000000000155,12.000069294233441042
0.301000000000000156,11.563522199162193260
0.302000000000000157,11.132164344583763693
0.303000000000000158,10.705927859958491055
0.304000000000000159,10.284752681368519944
0.305000000000000160,9.868586322418984480
0.306000000000000161,9.457383620961486770
0.307000000000000162,9.051106464426668552
0.308000000000000163,8.649723496462693006
0.309000000000000163,8.253209807477416504
0.310000000000000164,7.861546611576047283
0.311000000000000165,7.474720912274857021
0.312000000000000166,7.092725159255843792
0.313000000000000167,6.715556898308308931
0.314000000000000168,6.343218416482574007
0.315000000000000169,5.975716384358827682
0.316000000000000170,5.613061497211861095
0.317000000000000171,5.255268116730772654
0.318000000000000171,4.902353914831985904
0.319000000000000172,4.554339520984829193
0.320000000000000173,4.211248174352964391
0.321000000000000174,3.873105381940760594
0.322000000000000175,3.539938583823166507
0.323000000000000176,3.211776826430833065
0.324000000000000177,2.888650444758494640
0.325000000000000178,2.570590754265954292
0.326000000000000179,2.257629753145024232
0.327000000000000179,1.949799835535968695
0.328000000000000180,1.647133516189719371
0.329000000000000181,1.349663166990836549
0.330000000000000182,1.057420765678465768
0.331000000000000183,0.770437657029618195
0.332000000000000184,0.488744326700761900
0.333000000000000185,0.212370187859711873
0.334000000000000186,-0.058656619320114858
0.335000000000000187,-0.324309415286088698
0.336000000000000187,-0.584563155888125796
0.337000000000000188,-0.839394594397003480
0.338000000000000189,-1.088782430884517982
0.339000000000000190,-1.332707449129785227
0.340000000000000191,-1.571152641251680304
0.341000000000000192,-1.804103320300102009
0.342000000000000193,-2.031547221067490305
0.343000000000000194,-2.253474589407884032
0.344000000000000195,-2.469878260373055134
0.345000000000000195,-2.680753725496029638
0.346000000000000196,-2.886099189568175127
0.347000000000000197,-3.085915617271467237
0.348000000000000198,-3.280206770039023834
0.349000000000000199,-3.468979233526969352
0.350000000000000200,-3.652242436088324329
0.351000000000000201,-3.830008658645103203
0.352000000000000202,-4.002293036358604894
0.353000000000000203,-4.169113552500009590
0.354000000000000203,-4.330491024923842858
0.355000000000000204,-4.486449085545560322
0.356000000000000205,-4.637014153222534851
0.357000000000000206,-4.782215400434178143
0.358000000000000207,-4.922084714151556462
0.359000000000000208,-5.056656651282068538
0.360000000000000209,-5.185968389067628692
0.361000000000000210,-5.310059670807256715
0.362000000000000210,-5.428972747267327925
0.363000000000000211,-5.542752314133434943
0.364000000000000212,-5.651445445848939819
0.365000000000000213,-5.755101526175133486
0.366000000000000214,-5.853772175797992361
0.367000000000000215,-5.947511177295718099
0.368000000000000216,-6.036374397770868150
0.369000000000000217,-6.120419709439229194
0.370000000000000218,-6.199706908457138788
0.371000000000000218,-6.274297632256948809
0.372000000000000219,-6.344255275649565817
0.373000000000000220,-6.409644905941355830
0.374000000000000221,-6.470533177301324379
0.375000000000000222,-6.526988244603145972
0.376000000000000223,-6.579079676955862155
0.377000000000000224,-6.626878371125330958
0.378000000000000225,-6.670456465037970517
0.379000000000000226,-6.709887251547497655
0.380000000000000226,-6.745245092634897688
0.381000000000000227,-6.776605334201049047
0.382000000000000228,-6.804044221602028486
0.383000000000000229,-6.827638816066475158
0.384000000000000230,-6.847466912125193872
0.385000000000000231,-6.863606956173858187
0.386000000000000232,-6.876137966280090552
0.387000000000000233,-6.885139453338081417
0.388000000000000234,-6.890691343664603785
0.389000000000000234,-6.892873903122811896
0.390000000000000235,-6.891767662851646215
0.391000000000000236,-6.887453346671373211
0.392000000000000237,-6.880011800228324148
0.393000000000000238,-6.869523921934958643
0.394000000000000239,-6.856070595754310659
0.395000000000000240,-6.839732625871921989
0.396000000000000241,-6.820590673291794914
0.397000000000000242,-6.798725194387041704
0.398000000000000242,-6.774216381430724354
0.399000000000000243,-6.747144105126447577
0.400000000000000244,-6.717587859153745455
0.401000000000000245,-6.685626706738361236
0.402000000000000246,-6.651339229252847929
0.403000000000000247,-6.614803476848929442
0.404000000000000248,-6.576096921118977257
0.405000000000000249,-6.535296409780116278
0.406000000000000250,-6.492478123371014931
0.407000000000000250,-6.447717533948237545
0.408000000000000251,-6.401089365765763262
0.409000000000000252,-6.352667557918596053
0.410000000000000253,-6.302525228928699264
0.411000000000000254,-6.250734643249008293
0.412000000000000255,-6.197367179659046599
0.413000000000000256,-6.142493301523754390
0.414000000000000257,-6.086182528884853227
0.415000000000000258,-6.028503412352977264
0.416000000000000258,-5.969523508766582331
0.417000000000000259,-5.909309358582805594
0.418000000000000260,-5.847926464963851600
0.419000000000000261,-5.785439274521566588
0.420000000000000262,-5.721911159681790870
0.421000000000000263,-5.657404402629382822
0.422000000000000264,-5.591980180793905575
0.423000000000000265,-5.525698553835509230
0.424000000000000266,-5.458618452090166606
0.425000000000000266,-5.390797666432630031
0.426000000000000267,-5.322292839515782248
0.427000000000000268,-5.253159458344297761
0.428000000000000269,-5.183451848140821383
0.429000000000000270,-5.113223167462814800
0.430000000000000271,-5.042525404527895105
0.431000000000000272,-4.971409374706267315
0.432000000000000273,-4.899924719138463836
0.433000000000000274,-4.828119904437238930
0.434000000000000274,-4.756042223432521254
0.435000000000000275,-4.683737796919013263
0.436000000000000276,-4.611251576366151461
0.437000000000000277,-4.538627347550716173
0.438000000000000278,-4.465907735073010087
0.439000000000000279,-4.393134207717948492
0.440000000000000280,-4.320347084622942369
0.441000000000000281,-4.247585542215221110
0.442000000000000282,-4.174887621881887334
0.443000000000000282,-4.102290238336410155
0.444000000000000283,-4.029829188646379734
0.445000000000000284,-3.957539161887684287
0.446000000000000285,-3.885453749391125200
0.447000000000000286,-3.813605455548520151
0.448000000000000287,-3.742025709145464507
0.449000000000000288,-3.670744875189487111
0.450000000000000289,-3.599792267202384544
0.451000000000000290,-3.529196159946834221
0.452000000000000290,-3.458983802557952458
0.453000000000000291,-3.389181432051199927
0.454000000000000292,-3.319814287179085888
0.455000000000000293,-3.250906622609581298
0.456000000000000294,-3.182481723400292672
0.457000000000000295,-3.114561919743029428
0.458000000000000296,-3.047168601954160838
0.459000000000000297,-2.980322235687202337
0.460000000000000298,-2.914042377344467916
0.461000000000000298,-2.848347689665826632
0.462000000000000299,-2.783255957472988928
0.463000000000000300,-2.718784103548693931
0.464000000000000301,-2.654948204630969588
0.465000000000000302,-2.591763507503277886
0.466000000000000303,-2.529244445161963561
0.467000000000000304,-2.467404653043491436
0.468000000000000305,-2.406256985294320749
0.469000000000000306,-2.345813531067070024
0.470000000000000306,-2.286085630827514148
0.471000000000000307,-2.227083892657113928
0.472000000000000308,-2.168818208537067083
0.473000000000000309,-2.111297770599981583
0.474000000000000310,-2.054531087336245676
0.475000000000000311,-1.998525999742454262
0.476000000000000312,-1.943289697400375049
0.477000000000000313,-1.888828734474778726
0.478000000000000314,-1.835149045619726138
0.479000000000000314,-1.782255961783102194
0.480000000000000315,-1.730154225899690701
0.481000000000000316,-1.678848008463875274
0.482000000000000317,-1.628340922973244842
0.483000000000000318,-1.578636041235166321
0.484000000000000319,-1.529735908528639943
0.485000000000000320,-1.481642558614402194
0.486000000000000321,-1.434357528586553077
0.487000000000000322,-1.387881873559564605
0.488000000000000322,-1.342216181184699542
0.489000000000000323,-1.297360585990788184
0.490000000000000324,-1.253314783544022815
0.491000000000000325,-1.210078044422441046
0.492000000000000326,-1.167649228000709138
0.493000000000000327,-1.126026796041491140
0.494000000000000328,-1.085208826089781420
0.495000000000000329,-1.045193024667086856
0.496000000000000330,-1.005976740262562563
0.497000000000000330,-0.967556976118654100
0.498000000000000331,-0.929930402808799572
0.499000000000000332,-0.893093370605546388
0.500000000000000333,-0.857041921637135773
0.501000000000000334,-0.821771801831195803
0.502000000000000335,-0.787278472644527882
0.503000000000000336,-0.753557122577908300
0.504000000000000337,-0.720602678475271596
0.505000000000000338,-0.688409816606853076
0.506000000000000338,-0.656972973536009697
0.507000000000000339,-0.626286356769656938
0.508000000000000340,-0.596343955192472075
0.509000000000000341,-0.567139549285303080
0.510000000000000342,-0.538666721128098436
0.511000000000000343,-0.510918864188217969
0.512000000000000344,-0.483889192894835840
0.513000000000000345,-0.457570752000478698
0.514000000000000346,-0.431956425730842142
0.515000000000000346,-0.407038946724080808
0.516000000000000347,-0.382810904761003212
0.517000000000000348,-0.359264755287739823
0.518000000000000349,-0.336392827732345134
0.519000000000000350,-0.314187333617261810
0.520000000000000351,-0.292640374469295250
0.521000000000000352,-0.271743949529175133
0.522000000000000353,-0.251489963262594873
0.523000000000000353,-0.231870232674858651
0.524000000000000354,-0.212876494431354424
0.525000000000000355,-0.194500411786003469
0.526000000000000356,-0.176733581320017902
0.527000000000000357,-0.159567539493413318
0.528000000000000358,-0.142993769011468513
0.529000000000000359,-0.127003705008925161
0.530000000000000360,-0.111588741054088711
0.531000000000000361,-0.096740234975663017
0.532000000000000361,-0.082449514514712746
0.533000000000000362,-0.068707882804533521
0.534000000000000363,-0.055506623680913372
0.535000000000000364,-0.042837006825625287
0.536000000000000365,-0.030690292745702598
0.537000000000000366,-0.019057737591341696
0.538000000000000367,-0.007930597815017704
0.539000000000000368,0.002699865325269879
0.540000000000000369,0.012842381416063703
0.541000000000000369,0.022505666688882858
0.542000000000000370,0.031698419968444455
0.543000000000000371,0.040429318765770675
0.544000000000000372,0.048707015513490534
0.545000000000000373,0.056540133940574243
0.546000000000000374,0.063937265583757633
0.547000000000000375,0.070906966432901467
0.548000000000000376,0.077457753707546637
0.549000000000000377,0.083598102761997334
0.550000000000000377,0.089336444116172184
0.551000000000000378,0.094681160609580803
0.552000000000000379,0.099640584675723648
0.553000000000000380,0.104222995734284105
0.554000000000000381,0.108436617698496579
0.555000000000000382,0.112289616595014088
0.556000000000000383,0.115790098293807958
0.557000000000000384,0.118946106345381900
0.558000000000000385,0.121765619922944476
0.559000000000000385,0.124256551866849807
0.560000000000000386,0.126426746828954689
0.561000000000000387,0.128283979514364987
0.562000000000000388,0.129835953018192340
0.563000000000000389,0.131090297254851634
0.564000000000000390,0.132054567477618429
0.565000000000000391,0.132736242886031808
0.566000000000000392,0.133142725318912969
0.567000000000000393,0.133281338030606294
0.568000000000000393,0.133159324548356606
0.569000000000000394,0.132783847608469813
0.570000000000000395,0.132161988169166383
0.571000000000000396,0.131300744497954508
0.572000000000000397,0.130207031331375317
0.573000000000000398,0.128887679105148312
0.574000000000000399,0.127349433252515354
0.575000000000000400,0.125598953568935717
0.576000000000000401,0.123642813641060667
0.577000000000000401,0.121487500338015336
0.578000000000000402,0.119139413363186675
0.579000000000000403,0.116604864864599242
0.580000000000000404,0.113890079101936534
0.581000000000000405,0.111001192168595567
0.582000000000000406,0.107944251766824623
0.583000000000000407,0.104725217034302112
0.584000000000000408,0.101349958420444364
0.585000000000000409,0.097824257610722415
0.586000000000000409,0.094153807497413422
0.587000000000000410,0.090344212195116305
0.588000000000000411,0.086400987099537321
0.589000000000000412,0.082329558987911583
0.590000000000000413,0.078135266159650968
0.591000000000000414,0.073823358615668147
0.592000000000000415,0.069398998274976920
0.593000000000000416,0.064867259227137930
0.594000000000000417,0.060233128019198764
0.595000000000000417,0.055501503975692756
0.596000000000000418,0.050677199550540342
0.597000000000000419,0.045764940709369553
0.598000000000000420,0.040769367341176213
0.599000000000000421,0.035695033697957755
0.600000000000000422,0.030546408861195175
0.601000000000000423,0.025327877234030082
0.602000000000000424,0.020043739057903298
0.603000000000000425,0.014698210952635992
0.604000000000000425,0.009295426478832958
0.605000000000000426,0.003839436721543255
0.606000000000000427,-0.001665789105901083
0.607000000000000428,-0.007216363038676077
0.608000000000000429,-0.012808477719234480
0.609000000000000430,-0.018438405738535744
0.610000000000000431,-0.024102498961106521
0.611000000000000432,-0.029797187834544724
0.612000000000000433,-0.035518980684425785
0.613000000000000433,-0.041264462995549596
0.614000000000000434,-0.047030296680233973
