# CNT15-NH2-2_LEUSCA-JS
# h[nm],U(h)[kJ/mol]
0.149999999999999994,176.437201631733273643
0.150999999999999995,173.007792352168195293
0.151999999999999996,171.303178640487715256
0.152999999999999997,169.982171903755386211
0.153999999999999998,168.532757075289765680
0.154999999999999999,166.843244086222085798
0.156000000000000000,164.966180232455343457
0.157000000000000001,162.997465546622578358
0.158000000000000002,161.021706802532918346
0.159000000000000002,159.093599395031702670
0.160000000000000003,157.237247791919656947
0.161000000000000004,155.453029966568607279
0.162000000000000005,153.726385338689112814
0.163000000000000006,152.035779867984189195
0.164000000000000007,150.358761310003473000
0.165000000000000008,148.675917343935850568
0.166000000000000009,146.972987579309517514
0.167000000000000010,145.241549650124795789
0.168000000000000010,143.478721157030747690
0.169000000000000011,141.686267751178405661
0.170000000000000012,139.869427330122732656
0.171000000000000013,138.035675844375134602
0.172000000000000014,136.193584182005139382
0.173000000000000015,134.351853299639742545
0.174000000000000016,132.518567310163149386
0.175000000000000017,130.700670514994101268
0.176000000000000018,128.903652270226302790
0.177000000000000018,127.131410693517267418
0.178000000000000019,125.386260240668278243
0.179000000000000020,123.669047083811847187
0.180000000000000021,121.979338343751209095
0.181000000000000022,120.315655267290054553
0.182000000000000023,118.675725426485541902
0.183000000000000024,117.056734261680020381
0.184000000000000025,115.455561332578980682
0.185000000000000026,113.868991197288238482
0.186000000000000026,112.293892756258770760
0.187000000000000027,110.727364119710415480
0.188000000000000028,109.166842591412859065
0.189000000000000029,107.610181258255835246
0.190000000000000030,106.055695007231221894
0.191000000000000031,104.502179643692599598
0.192000000000000032,102.948908243548004293
0.193000000000000033,101.395609020062181571
0.194000000000000034,99.842428898446968333
0.195000000000000034,98.289886734299486193
0.196000000000000035,96.738819741037474387
0.197000000000000036,95.190326252626590531
0.198000000000000037,93.645707477593404633
0.199000000000000038,92.106410426636557531
0.200000000000000039,90.573973739827081886
0.201000000000000040,89.049977714928544970
0.202000000000000041,87.535999455153131521
0.203000000000000042,86.033573717963776062
0.204000000000000042,84.544159758369417546
0.205000000000000043,83.069114220161466733
0.206000000000000044,81.609669934543688896
0.207000000000000045,80.166920334263735981
0.208000000000000046,78.741809078535681010
0.209000000000000047,77.335124405227233524
0.210000000000000048,75.947497677316320619
0.211000000000000049,74.579405565920325216
0.212000000000000050,73.231175307899007976
0.213000000000000050,71.902992488098817603
0.214000000000000051,70.594910821068268092
0.215000000000000052,69.306863441293018013
0.216000000000000053,68.038675251840373903
0.217000000000000054,66.790075926356649916
0.218000000000000055,65.560713206600198077
0.219000000000000056,64.350166185465781155
0.220000000000000057,63.157958312429514081
0.221000000000000058,61.983569903496970710
0.222000000000000058,60.826449980287875974
0.223000000000000059,59.686027302303742204
0.224000000000000060,58.561720492335268773
0.225000000000000061,57.452947187180861022
0.226000000000000062,56.359132174295098139
0.227000000000000063,55.279714499705427500
0.228000000000000064,54.214153553641516226
0.229000000000000065,53.161934157992675409
0.230000000000000066,52.122570694170917704
0.231000000000000066,51.095610321456398140
0.232000000000000067,50.080635344715595636
0.233000000000000068,49.077264796782195333
0.234000000000000069,48.085155305058336239
0.235000000000000070,47.104001314298592717
0.236000000000000071,46.133534738344032178
0.237000000000000072,45.173524113019901449
0.238000000000000073,44.223773320733364756
0.239000000000000073,43.284119954712991785
0.240000000000000074,42.354433387509629938
0.241000000000000075,41.434612604506305900
0.242000000000000076,40.524583858907888612
0.243000000000000077,39.624298200137459958
0.244000000000000078,38.733728922870191980
0.245000000000000079,37.852868979184577825
0.246000000000000080,36.981728391591303762
0.247000000000000081,36.120331700077045411
0.248000000000000081,35.268715471833772312
0.249000000000000082,34.426925898076063959
0.250000000000000111,33.595016498313476916
0.251000000000000112,32.773045948668553251
0.252000000000000113,31.961076047327622973
0.253000000000000114,31.159169826995388064
0.254000000000000115,30.367389821294473506
0.255000000000000115,29.585796489411087862
0.256000000000000116,28.814446800930006987
0.257000000000000117,28.053392980718864891
0.258000000000000118,27.302681411903751751
0.259000000000000119,26.562351693408885467
0.260000000000000120,25.832435847201885792
0.261000000000000121,25.112957669275406403
0.262000000000000122,24.403932217489085588
0.263000000000000123,23.705365428678707218
0.264000000000000123,23.017253856891954911
0.265000000000000124,22.339584524219965544
0.266000000000000125,21.672334875441642055
0.267000000000000126,21.015472827570402359
0.268000000000000127,20.368956905373867272
0.269000000000000128,19.732736454014762728
0.270000000000000129,19.106751920120256472
0.271000000000000130,18.490935192815197041
0.272000000000000131,17.885209996543835587
0.273000000000000131,17.289492327839262487
0.274000000000000132,16.703690928575035457
0.275000000000000133,16.127707788637671626
0.276000000000000134,15.561438671384465238
0.277000000000000135,15.004773655694103596
0.278000000000000136,14.457597688866357544
0.279000000000000137,13.919791145081452655
0.280000000000000138,13.391230384582405222
0.281000000000000139,12.871788309189145849
0.282000000000000139,12.361334910191770220
0.283000000000000140,11.859737805094770380
0.284000000000000141,11.366862760095148843
0.285000000000000142,10.882574195571262266
0.286000000000000143,10.406735672234777468
0.287000000000000144,9.939210355954946507
0.288000000000000145,9.479861459599398188
0.289000000000000146,9.028552660552007225
0.290000000000000147,8.585148492860820824
0.291000000000000147,8.149514713242627550
0.292000000000000148,7.721518640421138002
0.293000000000000149,7.301029467507040849
0.294000000000000150,6.887918547337392283
0.295000000000000151,6.482059650882467494
0.296000000000000152,6.083329198998645992
0.297000000000000153,5.691606467958920668
0.298000000000000154,5.306773769326753154
0.299000000000000155,4.928716604857692474
0.300000000000000155,4.557323797214927197
0.301000000000000156,4.192487597372672070
0.302000000000000157,3.834103769653928850
0.303000000000000158,3.482071655410070576
0.304000000000000159,3.136294216397279566
0.305000000000000160,2.796678058941967304
0.306000000000000161,2.463133440013895559
0.307000000000000162,2.135574256342580579
0.308000000000000163,1.813918017721434239
0.309000000000000163,1.498085805644634450
0.310000000000000164,1.188002218415449507
0.311000000000000165,0.883595303852329428
0.312000000000000166,0.584796480700925381
0.313000000000000167,0.291540449837232152
0.314000000000000168,0.003765096319963446
0.315000000000000169,-0.278588616680812917
0.316000000000000170,-0.555576761085724735
0.317000000000000171,-0.827252563282273812
0.318000000000000171,-1.093666528757387457
0.319000000000000172,-1.354866571109412332
0.320000000000000173,-1.610898144603785109
0.321000000000000174,-1.861804379479779170
0.322000000000000175,-2.107626219258944555
0.323000000000000176,-2.348402559349294538
0.324000000000000177,-2.584170386283209275
0.325000000000000178,-2.814964916969977082
0.326000000000000179,-3.040819737387516764
0.327000000000000179,-3.261766940179403829
0.328000000000000180,-3.477837260665439523
0.329000000000000181,-3.689060210814264273
0.330000000000000182,-3.895464210766002910
0.331000000000000183,-4.097076717531484391
0.332000000000000184,-4.293924350531225897
0.333000000000000185,-4.486033013673312198
0.334000000000000186,-4.673428013703436967
0.335000000000000187,-4.856134174593158548
0.336000000000000187,-5.034175947763949388
0.337000000000000188,-5.207577517973772885
0.338000000000000189,-5.376362904722066460
0.339000000000000190,-5.540556059055060878
0.340000000000000191,-5.700180955678760597
0.341000000000000192,-5.855261680310684724
0.342000000000000193,-6.005822512223664589
0.343000000000000194,-6.151888001955741814
0.344000000000000195,-6.293483044179130736
0.345000000000000195,-6.430632945740034856
0.346000000000000196,-6.563363488896503561
0.347000000000000197,-6.691700989797643828
0.348000000000000198,-6.815672352261010758
0.349000000000000199,-6.935305116917783508
0.350000000000000200,-7.050627505806964734
0.351000000000000201,-7.161668462510172972
0.352000000000000202,-7.268457687927794453
0.353000000000000203,-7.371025671805800705
0.354000000000000203,-7.469403720129723645
0.355000000000000204,-7.563623978508353218
0.356000000000000205,-7.653719451675641494
0.357000000000000206,-7.739724019243891640
0.358000000000000207,-7.821672447844545850
0.359000000000000208,-7.899600399796883998
0.360000000000000209,-7.973544438446793947
0.361000000000000210,-8.043542030319585479
0.362000000000000210,-8.109631544232220435
0.363000000000000211,-8.171852247510670963
0.364000000000000212,-8.230244299458462365
0.365000000000000213,-8.284848742221786466
0.366000000000000214,-8.335707489195922193
0.367000000000000215,-8.382863311116393490
0.368000000000000216,-8.426359819976736887
0.369000000000000217,-8.466241450912630029
0.370000000000000218,-8.502553442190194488
0.371000000000000218,-8.535341813433340974
0.372000000000000219,-8.564653342222669608
0.373000000000000220,-8.590535539195231607
0.374000000000000221,-8.613036621771328782
0.375000000000000222,-8.632205486631018942
0.376000000000000223,-8.648091681060018132
0.377000000000000224,-8.660745373280494874
0.378000000000000225,-8.670217321878869399
0.379000000000000226,-8.676558844438856610
0.380000000000000226,-8.679821785484435281
0.381000000000000227,-8.680058483832800320
0.382000000000000228,-8.677321739454432858
0.383000000000000229,-8.671664779932664047
0.384000000000000230,-8.663141226611454471
0.385000000000000231,-8.651805060516503332
0.386000000000000232,-8.637710588130172340
0.387000000000000233,-8.620912407097661045
0.388000000000000234,-8.601465371937225157
0.389000000000000234,-8.579424559824147423
0.390000000000000235,-8.554845236513930473
0.391000000000000236,-8.527782822466736690
0.392000000000000237,-8.498292859231408869
0.393000000000000238,-8.466430976144051712
0.394000000000000239,-8.432252857392278145
0.395000000000000240,-8.395814209493423164
0.396000000000000241,-8.357170729231325979
0.397000000000000242,-8.316378072093110418
0.398000000000000242,-8.273491821244611799
0.399000000000000243,-8.228567457079664749
0.400000000000000244,-8.181660327375860575
0.401000000000000245,-8.132825618086465980
0.402000000000000246,-8.082118324795393605
0.403000000000000247,-8.029593224859613798
0.404000000000000248,-7.975304850260840794
0.405000000000000249,-7.919307461185876029
0.406000000000000250,-7.861655020352611878
0.407000000000000250,-7.802401168096632311
0.408000000000000251,-7.741599198231021717
0.409000000000000252,-7.679302034690064893
0.410000000000000253,-7.615562208965566349
0.411000000000000254,-7.550431838342622548
0.412000000000000255,-7.483962604939907060
0.413000000000000256,-7.416205735558006218
0.414000000000000257,-7.347211982337411129
0.415000000000000258,-7.277031604226761985
0.416000000000000258,-7.205714349260015084
0.417000000000000259,-7.133309437640245498
0.418000000000000260,-7.059865545626341721
0.419000000000000261,-6.985430790217725061
0.420000000000000262,-6.910052714631106596
0.421000000000000263,-6.833778274562300581
0.422000000000000264,-6.756653825225091836
0.423000000000000265,-6.678725109158196283
0.424000000000000266,-6.600037244790854629
0.425000000000000266,-6.520634715756234989
0.426000000000000267,-6.440561360941805091
0.427000000000000268,-6.359860365264557558
0.428000000000000269,-6.278574251158806518
0.429000000000000270,-6.196744870763703616
0.430000000000000271,-6.114413398796669341
0.431000000000000272,-6.031620326099258023
0.432000000000000273,-5.948405453840896584
0.433000000000000274,-5.864807888366058819
0.434000000000000274,-5.780866036669773500
0.435000000000000275,-5.696617602486471199
0.436000000000000276,-5.612099582976692425
0.437000000000000277,-5.527348265996012699
0.438000000000000278,-5.442399227930563299
0.439000000000000279,-5.357287332083290110
0.440000000000000280,-5.272046727594950077
0.441000000000000281,-5.186710848883950398
0.442000000000000282,-5.101312415589068117
0.443000000000000282,-5.015883432998907487
0.444000000000000283,-4.930455192952345911
0.445000000000000284,-4.845058275193919073
0.446000000000000285,-4.759722549168253103
0.447000000000000286,-4.674477176238118759
0.448000000000000287,-4.589350612310044930
0.449000000000000288,-4.504370610852463486
0.450000000000000289,-4.419564226290645159
0.451000000000000290,-4.334957817763553933
0.452000000000000290,-4.250577053227523550
0.453000000000000291,-4.166446913891907577
0.454000000000000292,-4.082591698972256822
0.455000000000000293,-3.999035030746482366
0.456000000000000294,-3.915799859900022994
0.457000000000000295,-3.832908471146025953
0.458000000000000296,-3.750382489106863115
0.459000000000000297,-3.668242884443654539
0.460000000000000298,-3.586509980220518479
0.461000000000000298,-3.505203458490841140
0.462000000000000299,-3.424342367092776840
0.463000000000000300,-3.343945126641680421
0.464000000000000301,-3.264029537707469508
0.465000000000000302,-3.184612788165116282
0.466000000000000303,-3.105711460706613636
0.467000000000000304,-3.027341540503402317
0.468000000000000305,-2.949518423008202994
0.469000000000000306,-2.872256921885559144
0.470000000000000306,-2.795571277060946436
0.471000000000000307,-2.719475162878003172
0.472000000000000308,-2.643981696354478217
0.473000000000000309,-2.569103445527074037
0.474000000000000310,-2.494852437876200923
0.475000000000000311,-2.421240168821404470
0.476000000000000312,-2.348277610279244865
0.477000000000000313,-2.275975219274694261
0.478000000000000314,-2.204342946598360165
0.479000000000000314,-2.133390245501533222
0.480000000000000315,-2.063126080421416653
0.481000000000000316,-1.993558935729376369
0.482000000000000317,-1.924696824495016001
0.483000000000000318,-1.856547297259385942
0.484000000000000319,-1.789117450810702836
0.485000000000000320,-1.722413936956394220
0.486000000000000321,-1.656442971285302379
0.487000000000000322,-1.591210341914361504
0.488000000000000322,-1.526721418214000536
0.489000000000000323,-1.462981159507231066
0.490000000000000324,-1.399994123736994833
0.491000000000000325,-1.337764476097124122
0.492000000000000326,-1.276295997622065137
0.493000000000000327,-1.215592093731095336
0.494000000000000328,-1.155655802722652226
0.495000000000000329,-1.096489804214788588
0.496000000000000330,-1.038096427527915866
0.497000000000000330,-0.980477660006214613
0.498000000000000331,-0.923635155274129316
0.499000000000000332,-0.867570241424935773
0.500000000000000333,-0.812283929138027383
0.501000000000000334,-0.757776919722106479
0.502000000000000335,-0.704049613081619952
0.503000000000000336,-0.651102115603749865
0.504000000000000337,-0.598934247963569533
0.505000000000000338,-0.547545552845156047
0.506000000000000338,-0.496935302576525573
0.507000000000000339,-0.447102506676382738
0.508000000000000340,-0.398045919310922813
0.509000000000000341,-0.349764046659079064
0.510000000000000342,-0.302255154184485730
0.511000000000000343,-0.255517273812944201
0.512000000000000344,-0.209548211013945218
0.513000000000000345,-0.164345551785207100
0.514000000000000346,-0.119906669539119284
0.515000000000000346,-0.076228731890145493
0.516000000000000347,-0.033308707342385405
0.517000000000000348,0.008856628123362843
0.518000000000000349,0.050270684563830201
0.519000000000000350,0.090937051689097187
0.520000000000000351,0.130859492580622211
0.521000000000000352,0.170041937511661023
0.522000000000000353,0.208488477870435840
0.523000000000000353,0.246203360186192460
0.524000000000000354,0.283190980258150538
0.525000000000000355,0.319455877387489040
0.526000000000000356,0.355002728712208282
0.527000000000000357,0.389836343644688443
0.528000000000000358,0.423961658411971143
0.529000000000000359,0.457383730698120494
0.530000000000000360,0.490107734388734340
0.531000000000000361,0.522138954416902168
0.532000000000000361,0.553482781710384897
0.533000000000000362,0.584144708239340615
0.534000000000000363,0.614130322164216813
0.535000000000000364,0.643445303083088005
0.536000000000000365,0.672095417377864157
0.537000000000000366,0.700086513658637277
0.538000000000000367,0.727424518305545442
0.539000000000000368,0.754115431107201029
0.540000000000000369,0.780165320995138023
0.541000000000000369,0.805580321873178962
0.542000000000000370,0.830366628541083562
0.543000000000000371,0.854530492711456757
0.544000000000000372,0.878078219119000636
0.545000000000000373,0.901016161721208020
0.546000000000000374,0.923350719989517565
0.547000000000000375,0.945088335289902326
0.548000000000000376,0.966235487351876143
0.549000000000000377,0.986798690824921776
0.550000000000000377,1.006784491921270952
0.551000000000000378,1.026199465143934564
0.552000000000000379,1.045050210098941168
0.553000000000000380,1.063343348390656029
0.554000000000000381,1.081085520599117444
0.555000000000000382,1.098283383338179098
0.556000000000000383,1.114943606393465236
0.557000000000000384,1.131072869938833714
0.558000000000000385,1.146677861830385448
0.559000000000000385,1.161765274976704898
0.560000000000000386,1.176341804784290179
0.561000000000000387,1.190414146676956886
0.562000000000000388,1.203988993688086762
0.563000000000000389,1.217073034124523057
0.564000000000000390,1.229672949300980367
0.565000000000000391,1.241795411343793676
0.566000000000000392,1.253447081062857738
0.567000000000000393,1.264634605890536445
0.568000000000000393,1.275364617886481478
0.569000000000000394,1.285643731807116996
0.570000000000000395,1.295478543238687497
0.571000000000000396,1.304875626792710630
0.572000000000000397,1.313841534362646168
0.573000000000000398,1.322382793440765480
0.574000000000000399,1.330505905493912788
0.575000000000000400,1.338217344397222730
0.576000000000000401,1.345523554924538345
0.577000000000000401,1.352430951294458117
0.578000000000000402,1.358945915770947144
0.579000000000000403,1.365074797317417987
0.580000000000000404,1.370823910303096360
0.581000000000000405,1.376199533260756169
0.582000000000000406,1.381207907694629977
0.583000000000000407,1.385855236937490575
0.584000000000000408,1.390147685055890037
0.585000000000000409,1.394091375802446020
0.586000000000000409,1.397692391614225205
0.587000000000000410,1.400956772656158034
0.588000000000000411,1.403890515908539971
0.589000000000000412,1.406499574297547905
0.590000000000000413,1.408789855867896623
0.591000000000000414,1.410767222996579751
0.592000000000000415,1.412437491646789667
0.593000000000000416,1.413806430661063818
0.594000000000000417,1.414879761092739496
0.595000000000000417,1.415663155574734988
0.596000000000000418,1.416162237724885031
0.597000000000000419,1.416382581586783207
0.598000000000000420,1.416329711105374090
0.599000000000000421,1.416009099636361679
0.600000000000000422,1.415426169488588570
0.601000000000000423,1.414586291498583615
0.602000000000000424,1.413494784636391222
0.603000000000000425,1.412156915641901156
0.604000000000000425,1.410577898690877685
0.605000000000000426,1.408762895089904488
0.606000000000000427,1.406717012999370908
0.607000000000000428,1.404445307183976643
0.608000000000000429,1.401952778789619769
0.609000000000000430,1.399244375146388331
0.610000000000000431,1.396324989596495758
0.611000000000000432,1.393199461346735113
0.612000000000000433,1.389872575344675898
0.613000000000000433,1.386349062177802072
0.614000000000000434,1.382633597995087005
0.615000000000000435,1.378730804450223335
