# CNT15-NH2-2_PRO-JS
# h[nm],U(h)[kJ/mol]
0.200000000000000011,104.882639823871926410
0.201000000000000012,104.198424751393716292
0.202000000000000013,102.707619799315040154
0.203000000000000014,100.882678142458900084
0.204000000000000015,98.982888835773422898
0.205000000000000016,97.134444403134011736
0.206000000000000016,95.384378375832355346
0.207000000000000017,93.736020383461351457
0.208000000000000018,92.171559769929075401
0.209000000000000019,90.665769985202857129
0.210000000000000020,89.193801227962637768
0.211000000000000021,87.735102559883131335
0.212000000000000022,86.274913711167130259
0.213000000000000023,84.804314956646919654
0.214000000000000024,83.319497955799050715
0.215000000000000024,81.820688767215159487
0.216000000000000025,80.310991713998390651
0.217000000000000026,78.795310801189003769
0.218000000000000027,77.279430023062190003
0.219000000000000028,75.769284744126863984
0.220000000000000029,74.270425684510968267
0.221000000000000030,72.787659220090830559
0.222000000000000031,71.324838589895790619
0.223000000000000032,69.884777210485992782
0.224000000000000032,68.469255510632848427
0.225000000000000033,67.079095036725931323
0.226000000000000034,65.714277023201120187
0.227000000000000035,64.374086495089599680
0.228000000000000036,63.057266836937671428
0.229000000000000037,61.762173361396413895
0.230000000000000038,60.486917598821477782
0.231000000000000039,59.229496744366429084
0.232000000000000040,57.987904932504555688
0.233000000000000040,56.760224784986633040
0.234000000000000041,55.544699040275460789
0.235000000000000042,54.339783073167645000
0.236000000000000043,53.144179808095351802
0.237000000000000044,51.956858972606163150
0.238000000000000045,50.777062878912303745
0.239000000000000046,49.604301006052523348
0.240000000000000047,48.438335622067114627
0.241000000000000048,47.279160567650500013
0.242000000000000048,46.126975147307547331
0.243000000000000049,44.982154863180106474
0.244000000000000050,43.845220497870819543
0.245000000000000051,42.716806819162449926
0.246000000000000052,41.597631951502556547
0.247000000000000053,40.488468243602071084
0.248000000000000054,39.390115263272143409
0.249000000000000055,38.303375372604911320
0.250000000000000056,37.229032180233012639
0.251000000000000056,36.167832032994041924
0.252000000000000057,35.120468596363217273
0.253000000000000058,34.087570480383512006
0.254000000000000059,33.069691793997641582
0.255000000000000060,32.067305453909106916
0.256000000000000061,31.080799032475731281
0.257000000000000062,30.110472900748543879
0.258000000000000063,29.156540405724719278
0.259000000000000064,28.219129813387006323
0.260000000000000064,27.298287749476763508
0.261000000000000065,26.393983876660598753
0.262000000000000066,25.506116558416216833
0.263000000000000067,24.634519275367313895
0.264000000000000068,23.778967577867618388
0.265000000000000069,22.939186378458288118
0.266000000000000070,22.114857408628772362
0.267000000000000071,21.305626685451535707
0.268000000000000071,20.511111854616864036
0.269000000000000072,19.730909296743533332
0.270000000000000073,18.964600903264365428
0.271000000000000074,18.211760446440337091
0.272000000000000075,17.471959484972781951
0.273000000000000076,16.744772762152599910
0.274000000000000077,16.029783067446992106
0.275000000000000078,15.326585544862505017
0.276000000000000079,14.634791442354885049
0.277000000000000079,13.954031306022105952
0.278000000000000080,13.283957630886396473
0.279000000000000081,12.624246986817070137
0.280000000000000082,11.974601643664518846
0.281000000000000083,11.334750724060265625
0.282000000000000084,10.704450915691978707
0.283000000000000085,10.083486777287019365
0.284000000000000086,9.471670674133298107
0.285000000000000087,8.868842379834594780
0.286000000000000087,8.274868381228182912
0.287000000000000088,7.689640923079513080
0.288000000000000089,7.113076828393772644
0.289000000000000090,6.545116129024736829
0.290000000000000091,5.985720539791428152
0.291000000000000092,5.434871807593490090
0.292000000000000093,4.892569965109903052
0.293000000000000094,4.358831516621902047
0.294000000000000095,3.833687581367505537
0.295000000000000095,3.317182017650951220
0.296000000000000096,2.809369548733210653
0.297000000000000097,2.310313909346341177
0.298000000000000098,1.820086029533069638
0.299000000000000099,1.338762270432380719
0.300000000000000100,0.866422724631324193
0.301000000000000101,0.403149591793634687
0.302000000000000102,-0.050974361528469105
0.303000000000000103,-0.495867250689660199
0.304000000000000103,-0.931449424721832342
0.305000000000000104,-1.357644716908436466
0.306000000000000105,-1.774381591331563701
0.307000000000000106,-2.181594183780905194
0.308000000000000107,-2.579223236516532403
0.309000000000000108,-2.967216927364447976
0.310000000000000109,-3.345531594501076622
0.311000000000000110,-3.714132359051010468
0.312000000000000111,-4.072993648292195346
0.313000000000000111,-4.422099622833112420
0.314000000000000112,-4.761444511609290942
0.315000000000000113,-5.091032858943650652
0.316000000000000114,-5.410879688234959239
0.317000000000000115,-5.721010587085844534
0.318000000000000116,-6.021461718863899470
0.319000000000000117,-6.312279765810669296
0.320000000000000118,-6.593521808880913326
0.321000000000000119,-6.865255149513686206
0.322000000000000119,-7.127557078511934208
0.323000000000000120,-7.380514597144701483
0.324000000000000121,-7.624224095490538033
0.325000000000000122,-7.858790992915187346
0.326000000000000123,-8.084329345427363478
0.327000000000000124,-8.300961424486155593
0.328000000000000125,-8.508817271646273994
0.329000000000000126,-8.708034233226046084
0.330000000000000127,-8.898756478971645123
0.331000000000000127,-9.081134508471022215
0.332000000000000128,-9.255324648846274371
0.333000000000000129,-9.421488547024980065
0.334000000000000130,-9.579792659661718446
0.335000000000000131,-9.730407743553044497
0.336000000000000132,-9.873508349162328557
0.337000000000000133,-10.009272319649147320
0.338000000000000134,-10.137880297580291966
0.339000000000000135,-10.259515241287321174
0.340000000000000135,-10.374361952631781847
0.341000000000000136,-10.482606617740961141
0.342000000000000137,-10.584436362088544215
0.343000000000000138,-10.680038821113189584
0.344000000000000139,-10.769601727396892699
0.345000000000000140,-10.853312515261610116
0.346000000000000141,-10.931357943489517837
0.347000000000000142,-11.003923736727781346
0.348000000000000143,-11.071194246004122164
0.349000000000000143,-11.133352128653433155
0.350000000000000144,-11.190578047839441211
0.351000000000000145,-11.243050391747466676
0.352000000000000146,-11.290945012425698479
0.353000000000000147,-11.334434984161703142
0.354000000000000148,-11.373690381198759525
0.355000000000000149,-11.408878074522215584
0.356000000000000150,-11.440161547379243956
0.357000000000000151,-11.467700729135760440
0.358000000000000151,-11.491651847021794097
0.359000000000000152,-11.512167295270169021
0.360000000000000153,-11.529395521113848133
0.361000000000000154,-11.543480927072755193
0.362000000000000155,-11.554563788932640023
0.363000000000000156,-11.562780188794921088
0.364000000000000157,-11.568261962557652822
0.365000000000000158,-11.571136661173927251
0.366000000000000159,-11.571527525023327598
0.367000000000000159,-11.569553470726322786
0.368000000000000160,-11.565329089728255241
0.369000000000000161,-11.558964657980208557
0.370000000000000162,-11.550566156047231914
0.371000000000000163,-11.540235298980389800
0.372000000000000164,-11.528069575297294591
0.373000000000000165,-11.514162294426441235
0.374000000000000166,-11.498602641982829553
0.375000000000000167,-11.481475742256327166
0.376000000000000167,-11.462862727309904187
0.377000000000000168,-11.442840812101428227
0.378000000000000169,-11.421483375060521581
0.379000000000000170,-11.398860043570865130
0.380000000000000171,-11.375036783827619402
0.381000000000000172,-11.350075994559826853
0.382000000000000173,-11.324036604128052019
0.383000000000000174,-11.296974170528653048
0.384000000000000175,-11.268940983856779781
0.385000000000000175,-11.239986170801643084
0.386000000000000176,-11.210155800768868417
0.387000000000000177,-11.179492993245384369
0.388000000000000178,-11.148038026044083892
0.389000000000000179,-11.115828444085265048
0.390000000000000180,-11.082899168393122835
0.391000000000000181,-11.049282605005132041
0.392000000000000182,-11.015008753512075756
0.393000000000000183,-10.980105314965630470
0.394000000000000183,-10.944597798909118325
0.395000000000000184,-10.908509629305504163
0.396000000000000185,-10.871862249153972257
0.397000000000000186,-10.834675223603959182
0.398000000000000187,-10.796966341391820876
0.399000000000000188,-10.758751714441233460
0.400000000000000189,-10.720045875483757314
0.401000000000000190,-10.680861873570783871
0.402000000000000191,-10.641211367362000573
0.403000000000000191,-10.601104716088945779
0.404000000000000192,-10.560551068105244354
0.405000000000000193,-10.519558446946970065
0.406000000000000194,-10.478133834838454064
0.407000000000000195,-10.436283253589724751
0.408000000000000196,-10.394011842841994309
0.409000000000000197,-10.351323935627585016
0.410000000000000198,-10.308223131219907742
0.411000000000000199,-10.264712365257409488
0.412000000000000199,-10.220793977134031039
0.413000000000000200,-10.176469774655753753
0.414000000000000201,-10.131741095970323130
0.415000000000000202,-10.086608868783354609
0.416000000000000203,-10.041073666880437898
0.417000000000000204,-9.995135763980268706
0.418000000000000205,-9.948795184948977521
0.419000000000000206,-9.902051754410672757
0.420000000000000207,-9.854905142793271011
0.421000000000000207,-9.807354909852991298
0.422000000000000208,-9.759400545723833531
0.423000000000000209,-9.711041509542152284
0.424000000000000210,-9.662277265698794082
0.425000000000000211,-9.613107317773904370
0.426000000000000212,-9.563531240211821327
0.427000000000000213,-9.513548707795028037
0.428000000000000214,-9.463159522978180860
0.429000000000000214,-9.412363641144098736
0.430000000000000215,-9.361161193845065398
0.431000000000000216,-9.309552510093503486
0.432000000000000217,-9.257538135766649745
0.433000000000000218,-9.205118851190427165
0.434000000000000219,-9.152295686967871546
0.435000000000000220,-9.099069938117628098
0.436000000000000221,-9.045443176587779632
0.437000000000000222,-8.991417262210116945
0.438000000000000222,-8.936994352159619126
0.439000000000000223,-8.882176908983236530
0.440000000000000224,-8.826967707261536233
0.441000000000000225,-8.771369838965934917
0.442000000000000226,-8.715386717573526454
0.443000000000000227,-8.659022081000276927
0.444000000000000228,-8.602279993412739856
0.445000000000000229,-8.545164845976932710
0.446000000000000230,-8.487681356602029936
0.447000000000000230,-8.429834568735442346
0.448000000000000231,-8.371629849264266454
0.449000000000000232,-8.313072885576890059
0.450000000000000233,-8.254169681837417727
0.451000000000000234,-8.194926554523641826
0.452000000000000235,-8.135350127278529797
0.453000000000000236,-8.075447325123073838
0.454000000000000237,-8.015225368077540935
0.455000000000000238,-7.954691764236113904
0.456000000000000238,-7.893854302338890072
0.457000000000000239,-7.832721043883371870
0.458000000000000240,-7.771300314816447674
0.459000000000000241,-7.709600696845939183
0.460000000000000242,-7.647631018409872361
0.461000000000000243,-7.585400345339590622
0.462000000000000244,-7.522917971251987801
0.463000000000000245,-7.460193407703961554
0.464000000000000246,-7.397236374141654025
0.465000000000000246,-7.334056787674873235
0.466000000000000247,-7.270664752706153422
0.467000000000000248,-7.207070550442439938
0.468000000000000249,-7.143284628316092899
0.469000000000000250,-7.079317589340507588
0.470000000000000251,-7.015180181424531369
0.471000000000000252,-6.950883286668360306
0.472000000000000253,-6.886437910662858819
0.473000000000000254,-6.821855171812376106
0.474000000000000254,-6.757146290700665858
0.475000000000000255,-6.692322579517869130
0.476000000000000256,-6.627395431565735961
0.477000000000000257,-6.562376310857116479
0.478000000000000258,-6.497276741824579815
0.479000000000000259,-6.432108299152311304
0.480000000000000260,-6.366882597744189631
0.481000000000000261,-6.301611282840132056
0.482000000000000262,-6.236306020291953800
0.483000000000000262,-6.170978487009026736
0.484000000000000263,-6.105640361583120956
0.485000000000000264,-6.040303315101244408
0.486000000000000265,-5.974979002154244156
0.487000000000000266,-5.909679052048305792
0.488000000000000267,-5.844415060225847114
0.489000000000000268,-5.779198579901471788
0.490000000000000269,-5.714041113918027825
0.491000000000000270,-5.648954106827318355
0.492000000000000270,-5.583948937199126661
0.493000000000000271,-5.519036910161976728
0.494000000000000272,-5.454229250178284971
0.495000000000000273,-5.389537094055961042
0.496000000000000274,-5.324971484198400162
0.497000000000000275,-5.260543362093828001
0.498000000000000276,-5.196263562044917350
0.499000000000000277,-5.132142805138999897
0.500000000000000222,-5.068191693458709679
0.501000000000000334,-5.004420704532765107
0.502000000000000224,-4.940840186026020930
0.503000000000000336,-4.877460350667574218
0.504000000000000226,-4.814291271415702234
0.505000000000000338,-4.751342876857544084
0.506000000000000227,-4.688624946841910557
0.507000000000000339,-4.626147108342512304
0.508000000000000229,-4.563918831549469424
0.509000000000000341,-4.501949426185961833
0.510000000000000231,-4.440248038047539758
0.511000000000000343,-4.378823645760363981
0.512000000000000233,-4.317685057755618949
0.513000000000000345,-4.256840909456098387
0.514000000000000234,-4.196299660671849452
0.515000000000000346,-4.136069593200482508
0.516000000000000236,-4.076158808628908226
0.517000000000000348,-4.016575226331905668
0.518000000000000238,-3.957326581663929144
0.519000000000000350,-3.898420424339504642
0.520000000000000240,-3.839864116998321641
0.521000000000000352,-3.781664833950482141
0.522000000000000242,-3.723829560097625890
0.523000000000000353,-3.666365090025382578
0.524000000000000243,-3.609278027262851740
0.525000000000000355,-3.552574783704455008
0.526000000000000245,-3.496261579189809510
0.527000000000000357,-3.440344441236870665
0.528000000000000247,-3.384829204924104662
0.529000000000000359,-3.329721512916854920
0.530000000000000249,-3.275026815633644617
0.531000000000000361,-3.220750371547672408
0.532000000000000250,-3.166897247619262057
0.533000000000000362,-3.113472319854505788
0.534000000000000252,-3.060480273985962008
0.535000000000000364,-3.007925606270737351
0.536000000000000254,-2.955812624401888300
0.537000000000000366,-2.904145448528409723
0.538000000000000256,-2.852928012380056888
0.539000000000000368,-2.802164064492226991
0.540000000000000258,-2.751857169527277325
0.541000000000000369,-2.702010709687599821
0.542000000000000259,-2.652627886216971209
0.543000000000000371,-2.603711720985672162
0.544000000000000261,-2.555265058155821833
0.545000000000000373,-2.507290565922832393
0.546000000000000263,-2.459790738329376669
0.547000000000000375,-2.412767897147831242
0.548000000000000265,-2.366224193828041500
0.549000000000000377,-2.320161611506221799
0.550000000000000266,-2.274581967072025535
0.551000000000000378,-2.229486913289943750
0.552000000000000268,-2.184877940971936550
0.553000000000000380,-2.140756381197818303
0.554000000000000270,-2.097123407580390175
0.555000000000000382,-2.053980038571905364
0.556000000000000272,-2.011327139809178988
0.557000000000000384,-1.969165426493928894
0.558000000000000274,-1.927495465805893371
0.559000000000000385,-1.886317679345476561
0.560000000000000275,-1.845632345603535951
0.561000000000000387,-1.805439602455355841
0.562000000000000277,-1.765739449676386741
0.563000000000000389,-1.726531751477132559
0.564000000000000279,-1.687816239054815259
0.565000000000000391,-1.649592513159342744
0.566000000000000281,-1.611860046671401481
0.567000000000000393,-1.574618187190305552
0.568000000000000282,-1.537866159629653451
0.569000000000000394,-1.501603068818418318
0.570000000000000284,-1.465827902105798719
0.571000000000000396,-1.430539531967568889
0.572000000000000286,-1.395736718612352378
0.573000000000000398,-1.361418112585705664
0.574000000000000288,-1.327582257370569119
0.575000000000000400,-1.294227591982202830
0.576000000000000290,-1.261352453556119357
0.577000000000000401,-1.228955079927379179
0.578000000000000291,-1.197033612199870367
0.579000000000000403,-1.165586097304034841
0.580000000000000293,-1.134610490541822836
0.581000000000000405,-1.104104658117384341
0.582000000000000295,-1.074066379652502734
0.583000000000000407,-1.044493350685312461
0.584000000000000297,-1.015383185151405243
0.585000000000000409,-0.986733417846075711
0.586000000000000298,-0.958541506866821713
0.587000000000000410,-0.930804836034985983
0.588000000000000300,-0.903520717295777098
0.589000000000000412,-0.876686393095611693
0.590000000000000302,-0.850299038736131885
0.591000000000000414,-0.824355764704027494
0.592000000000000304,-0.798853618975933544
0.593000000000000416,-0.773789589297704583
0.594000000000000306,-0.749160605437532934
0.595000000000000417,-0.724963541412126045
0.596000000000000307,-0.701195217685544492
0.597000000000000419,-0.677852403340088783
0.598000000000000309,-0.654931818218816186
0.599000000000000421,-0.632430135039141805
0.600000000000000311,-0.610343981477270536
0.601000000000000423,-0.588669942222908360
0.602000000000000313,-0.567404561004116181
0.603000000000000425,-0.546544342581740672
0.604000000000000314,-0.526085754713488729
0.605000000000000426,-0.506025230087027156
0.606000000000000316,-0.486359168222235905
0.607000000000000428,-0.467083937342166244
0.608000000000000318,-0.448195876212759192
0.609000000000000430,-0.429691295951008634
0.610000000000000320,-0.411566481801647899
0.611000000000000432,-0.393817694882114988
0.612000000000000322,-0.376441173895883718
0.613000000000000433,-0.359433136814034049
0.614000000000000323,-0.342789782525115272
0.615000000000000435,-0.326507292453281917
0.616000000000000325,-0.310581832144761538
0.617000000000000437,-0.295009552822680043
0.618000000000000327,-0.279786592910376497
0.619000000000000439,-0.264909079523203750
0.620000000000000329,-0.250373129929037319
0.621000000000000441,-0.236174852977545952
0.622000000000000330,-0.222310350498377302
0.623000000000000442,-0.208775718668434834
0.624000000000000332,-0.195567049348412098
0.625000000000000444,-0.182680431388765552
0.626000000000000334,-0.170111951905327186
0.627000000000000446,-0.157857697524774410
0.628000000000000336,-0.145913755600172473
0.629000000000000448,-0.134276215396827547
0.630000000000000338,-0.122941169248720159
0.631000000000000449,-0.111904713685719678
0.632000000000000339,-0.101162950531903689
0.633000000000000451,-0.090711987975219080
0.634000000000000341,-0.080547941608789961
0.635000000000000453,-0.070666935444152895
0.636000000000000343,-0.061065102896698517
0.637000000000000455,-0.051738587743668706
0.638000000000000345,-0.042683545054999751
0.639000000000000457,-0.033896142097278169
0.640000000000000346,-0.025372559211246738
0.641000000000000458,-0.017108990663055313
0.642000000000000348,-0.009101645469707154
0.643000000000000460,-0.001346748198935554
0.644000000000000350,0.006159460256056537
0.645000000000000462,0.013420721926730061
0.646000000000000352,0.020440761043805700
0.647000000000000464,0.027223283336038084
0.648000000000000353,0.033771975352717164
0.649000000000000465,0.040090503809682251
0.650000000000000355,0.046182514958341983
0.651000000000000467,0.052051633977472186
0.652000000000000357,0.057701464387337607
0.653000000000000469,0.063135587485844205
0.654000000000000359,0.068357561806306449
0.655000000000000471,0.073370922596542903
0.656000000000000361,0.078179181318837929
0.657000000000000473,0.082785825170522770
0.658000000000000362,0.087194316624706864
0.659000000000000474,0.091408092990906936
0.660000000000000364,0.095430565995103953
0.661000000000000476,0.099265121378975710
0.662000000000000366,0.102915118517883930
