# CNT15-NH2-2_ASPPSCA-AC
# h[nm],U(h)[kJ/mol]
0.149999999999999994,113.308888079498686352
0.150999999999999995,110.584235838680072561
0.151999999999999996,109.199648912727909078
0.152999999999999997,108.080288513125225336
0.153999999999999998,106.835549411279430387
0.154999999999999999,105.396377891754951861
0.156000000000000000,103.819156859094320566
0.157000000000000001,102.187819194262445421
0.158000000000000002,100.571502729443011503
0.159000000000000002,99.011735653226409681
0.160000000000000003,97.523812304609165835
0.161000000000000004,96.103716172029280074
0.162000000000000005,94.736045871082197323
0.163000000000000006,93.400826337487856676
0.164000000000000007,92.078457484985278825
0.165000000000000008,90.752771397417092203
0.166000000000000009,89.412499507636567841
0.167000000000000010,88.051560476794321630
0.168000000000000010,86.668571718974135365
0.169000000000000011,85.265925495878803986
0.170000000000000012,83.848690462145683000
0.171000000000000013,82.423521002670327107
0.172000000000000014,80.997688990295301892
0.173000000000000015,79.578299031818815479
0.174000000000000016,78.171708875399090743
0.175000000000000017,76.783149785932863551
0.176000000000000018,75.416525066019659107
0.177000000000000018,74.074356130670395260
0.178000000000000019,72.757842464546300221
0.179000000000000020,71.467002570628807234
0.180000000000000021,70.200866200526348848
0.181000000000000022,68.957692633580734309
0.182000000000000023,67.735194746723024650
0.183000000000000024,66.530753545317367070
0.184000000000000025,65.341612362255801827
0.185000000000000026,64.165043884331225854
0.186000000000000026,62.998486446630749924
0.187000000000000027,61.839648638005620285
0.188000000000000028,60.686583223144126009
0.189000000000000029,59.537732777866438028
0.190000000000000030,58.391950336685383149
0.191000000000000031,57.248498852153531402
0.192000000000000032,56.107033447947500804
0.193000000000000033,54.967570388877575738
0.194000000000000034,53.830446458575408997
0.195000000000000034,52.696272086745906904
0.196000000000000035,51.565881149535847783
0.197000000000000036,50.440279916061108167
0.198000000000000037,49.320597160007849880
0.199000000000000038,48.208037018443206989
0.200000000000000039,47.103835775085528326
0.201000000000000040,46.009223381556132892
0.202000000000000041,44.925390212622552610
0.203000000000000042,43.853459281936046921
0.204000000000000042,42.794463922605608275
0.205000000000000043,41.749330759738498386
0.206000000000000044,40.718867666225591506
0.207000000000000045,39.703756294266995042
0.208000000000000046,38.704548708762104070
0.209000000000000047,37.721667609999357751
0.210000000000000048,36.755409617460450988
0.211000000000000049,35.805951089660752018
0.212000000000000050,34.873355972788814938
0.213000000000000050,33.957585199914646523
0.214000000000000051,33.058507199565326573
0.215000000000000052,32.175909114823085133
0.216000000000000053,31.309508379510010201
0.217000000000000054,30.458964344610819808
0.218000000000000055,29.623889694343006340
0.219000000000000056,28.803861436033049159
0.220000000000000057,27.998431290306349695
0.221000000000000058,27.207135347415448479
0.222000000000000058,26.429502891382213647
0.223000000000000059,25.665064325778793375
0.224000000000000060,24.913358163313223059
0.225000000000000061,24.173937065939963276
0.226000000000000062,23.446372943091340346
0.227000000000000063,22.730261133003132556
0.228000000000000064,22.025223706213502339
0.229000000000000065,21.330911941411542898
0.230000000000000066,20.647008032183919113
0.231000000000000066,19.973226089142862349
0.232000000000000067,19.309312505712036057
0.233000000000000068,18.655045757778260906
0.234000000000000069,18.010235707762333845
0.235000000000000070,17.374722482675728941
0.236000000000000071,16.748374993650518405
0.237000000000000072,16.131089161473074256
0.238000000000000073,15.522785909016480588
0.239000000000000073,14.923408977327170533
0.240000000000000074,14.332922617628886641
0.241000000000000075,13.751309206802009300
0.242000000000000076,13.178566829088575574
0.243000000000000077,12.614706861962268647
0.244000000000000078,12.059751599370576614
0.245000000000000079,11.513731940966195566
0.246000000000000080,10.976685171552912124
0.247000000000000081,10.448652850813473947
0.248000000000000081,9.929678829497699866
0.249000000000000082,9.419807404645821336
0.250000000000000111,8.919081623117573798
0.251000000000000112,8.427541739699400125
0.252000000000000113,7.945223833366485522
0.253000000000000114,7.472158582883838385
0.254000000000000115,7.008370200825732255
0.255000000000000115,6.553875523270258796
0.256000000000000116,6.108683250866611125
0.257000000000000117,5.672793335663374847
0.258000000000000118,5.246196507009900145
0.259000000000000119,4.828873928979914965
0.260000000000000120,4.420796981100432177
0.261000000000000121,4.021927153681779110
0.262000000000000122,3.632216048716470080
0.263000000000000123,3.251605477130733668
0.264000000000000123,2.880027643113699742
0.265000000000000124,2.517405406301505000
0.266000000000000125,2.163652612740414760
0.267000000000000126,1.818674485781456740
0.268000000000000127,1.482368068354548596
0.269000000000000128,1.154622708422582411
0.270000000000000129,0.835320579812247943
0.271000000000000130,0.524337231049437746
0.272000000000000131,0.221542155284524839
0.273000000000000131,-0.073200625133248612
0.274000000000000132,-0.360031965387881570
0.275000000000000133,-0.639097001702390921
0.276000000000000134,-0.910544556598313903
0.277000000000000135,-1.174526550407596570
0.278000000000000136,-1.431197423065768692
0.279000000000000137,-1.680713569758150117
0.280000000000000138,-1.923232793550535336
0.281000000000000139,-2.158913777714954740
0.282000000000000139,-2.387915580059883247
0.283000000000000140,-2.610397151195833043
0.284000000000000141,-2.826516878311089442
0.285000000000000142,-3.036432155700074187
0.286000000000000143,-3.240298982978052855
0.287000000000000144,-3.438271591630709167
0.288000000000000145,-3.630502100286345346
0.289000000000000146,-3.817140198859259037
0.290000000000000147,-3.998332861498146595
0.291000000000000147,-4.174224088078686279
0.292000000000000148,-4.344954673807444046
0.293000000000000149,-4.510662006350843356
0.294000000000000150,-4.671479889769981853
0.295000000000000151,-4.827538394426420076
0.296000000000000152,-4.978963731925804659
0.297000000000000153,-5.125878154083780558
0.298000000000000154,-5.268399874831406926
0.299000000000000155,-5.406643013923405405
0.300000000000000155,-5.540717561271939928
0.301000000000000156,-5.670729360699258592
0.302000000000000157,-5.796780111884327624
0.303000000000000158,-5.918967389269534252
0.304000000000000159,-6.037384676693827501
0.305000000000000160,-6.152121416526254549
0.306000000000000161,-6.263263072088882666
0.307000000000000162,-6.370891202179135959
0.308000000000000163,-6.475083546527770295
0.309000000000000163,-6.575914121060089990
0.310000000000000164,-6.673453321862948151
0.311000000000000165,-6.767768036798526232
0.312000000000000166,-6.858921763747291678
0.313000000000000167,-6.946974734505855231
0.314000000000000168,-7.031984043410759000
0.315000000000000169,-7.114003779805767813
0.316000000000000170,-7.193085163517719316
0.317000000000000171,-7.269276682553696745
0.318000000000000171,-7.342624232280530627
0.319000000000000172,-7.413171255395637260
0.320000000000000173,-7.480958882045491976
0.321000000000000174,-7.546026069495106015
0.322000000000000175,-7.608409740797919874
0.323000000000000176,-7.668144921960349691
0.324000000000000177,-7.725264877139272457
0.325000000000000178,-7.779801241452831917
0.326000000000000179,-7.831784151026504048
0.327000000000000179,-7.881242369935359093
0.328000000000000180,-7.928203413741607974
0.329000000000000181,-7.972693669362898916
0.330000000000000182,-8.014738511040999214
0.331000000000000183,-8.054362412213816214
0.332000000000000184,-8.091589053124360831
0.333000000000000185,-8.126441424029970051
0.334000000000000186,-8.158941923902514048
0.335000000000000187,-8.189112454536365604
0.336000000000000187,-8.216974510005154997
0.337000000000000188,-8.242549261430692553
0.338000000000000189,-8.265857637048744877
0.339000000000000190,-8.286920397575523012
0.340000000000000191,-8.305758206896483031
0.341000000000000192,-8.322391698115760406
0.342000000000000193,-8.336841535019051008
0.343000000000000194,-8.349128469016850573
0.344000000000000195,-8.359273391646508955
0.345000000000000195,-8.367297382723387855
0.346000000000000196,-8.373221754240384840
0.347000000000000197,-8.377068090124341282
0.348000000000000198,-8.378858281965092303
0.349000000000000199,-8.378614560839498182
0.350000000000000200,-8.376359525358537894
0.351000000000000201,-8.372116166070011190
0.352000000000000202,-8.365907886353230793
0.353000000000000203,-8.357758519945317488
0.354000000000000203,-8.347692345240760758
0.355000000000000204,-8.335734096507431801
0.356000000000000205,-8.321908972163525320
0.357000000000000206,-8.306242640259968724
0.358000000000000207,-8.288761241312567307
0.359000000000000208,-8.269491388627830730
0.360000000000000209,-8.248460166264949933
0.361000000000000210,-8.225695124774913936
0.362000000000000210,-8.201224274855899665
0.363000000000000211,-8.175076079061678769
0.364000000000000212,-8.147279441697325097
0.365000000000000213,-8.117863697033515180
0.366000000000000214,-8.086858595967772345
0.367000000000000215,-8.054294291257571459
0.368000000000000216,-8.020201321446934983
0.369000000000000217,-7.984610593604320350
0.370000000000000218,-7.947553364986037927
0.371000000000000218,-7.909061223735425195
0.372000000000000219,-7.869166068724197771
0.373000000000000220,-7.827900088638358511
0.374000000000000221,-7.785295740406995790
0.375000000000000222,-7.741385727068148981
0.376000000000000223,-7.696202975162114157
0.377000000000000224,-7.649780611738160374
0.378000000000000225,-7.602151941056791706
0.379000000000000226,-7.553350421065545106
0.380000000000000226,-7.503409639722542934
0.381000000000000227,-7.452363291237624310
0.382000000000000228,-7.400245152297657114
0.383000000000000229,-7.347089058338236889
0.384000000000000230,-7.292928879920498098
0.385000000000000231,-7.237798499268267349
0.386000000000000232,-7.181731787016820689
0.387000000000000233,-7.124762579221481928
0.388000000000000234,-7.066924654670449613
0.389000000000000234,-7.008251712543504652
0.390000000000000235,-6.948777350454468760
0.391000000000000236,-6.888535042912738326
0.392000000000000237,-6.827558120235849515
0.393000000000000238,-6.765879747942465272
0.394000000000000239,-6.703532906652087675
0.395000000000000240,-6.640550372515539479
0.396000000000000241,-6.576964698197356185
0.397000000000000242,-6.512808194428902020
0.398000000000000242,-6.448112912148902254
0.399000000000000243,-6.382910625245460601
0.400000000000000244,-6.317232813911806133
0.401000000000000245,-6.251110648625949118
0.402000000000000246,-6.184574974762331756
0.403000000000000247,-6.117656297841921109
0.404000000000000248,-6.050384769425403597
0.405000000000000249,-5.982790173652479560
0.406000000000000250,-5.914901914428710938
0.407000000000000250,-5.846749003260033106
0.408000000000000251,-5.778360047733471561
0.409000000000000252,-5.709763240641599680
0.410000000000000253,-5.640986349746826889
0.411000000000000254,-5.572056708180640250
0.412000000000000255,-5.503001205471862889
0.413000000000000256,-5.433846279197028117
0.414000000000000257,-5.364617907244971562
0.415000000000000258,-5.295341600687208938
0.416000000000000258,-5.226042397244524906
0.417000000000000259,-5.156744855339888467
0.418000000000000260,-5.087473048726920410
0.419000000000000261,-5.018250561682667588
0.420000000000000262,-4.949100484752990248
0.421000000000000263,-4.880045411038304692
0.422000000000000264,-4.811107433007077994
0.423000000000000265,-4.742308139824056745
0.424000000000000266,-4.673668615180121222
0.425000000000000266,-4.605209435609979529
0.426000000000000267,-4.536950669284174786
0.427000000000000268,-4.468911875261297517
0.428000000000000269,-4.401112103186402003
0.429000000000000270,-4.333569893421480579
0.430000000000000271,-4.266303277593555876
0.431000000000000272,-4.199329779546307151
0.432000000000000273,-4.132666416680744526
0.433000000000000274,-4.066329701670729158
0.434000000000000274,-4.000335644538983715
0.435000000000000275,-3.934699755079493766
0.436000000000000276,-3.869437045612175829
0.437000000000000277,-3.804562034055706476
0.438000000000000278,-3.740088747304795902
0.439000000000000279,-3.676030724898124991
0.440000000000000280,-3.612401022963337649
0.441000000000000281,-3.549212218425773724
0.442000000000000282,-3.486476413467793911
0.443000000000000282,-3.424205240225582259
0.444000000000000283,-3.362409865710834111
0.445000000000000284,-3.301100996944698274
0.446000000000000285,-3.240288886291627701
0.447000000000000286,-3.179983336981307751
0.448000000000000287,-3.120193708806563215
0.449000000000000288,-3.060928923986001582
0.450000000000000289,-3.002197473179898601
0.451000000000000290,-2.944007421648447753
0.452000000000000290,-2.886366415541633756
0.453000000000000291,-2.829281688310211429
0.454000000000000292,-2.772760067227726832
0.455000000000000293,-2.716807980013564272
0.456000000000000294,-2.661431461547537403
0.457000000000000295,-2.606636160666607083
0.458000000000000296,-2.552427347034723848
0.459000000000000297,-2.498809918077043335
0.460000000000000298,-2.445788405969985480
0.461000000000000298,-2.393366984679030640
0.462000000000000299,-2.341549477036247051
0.463000000000000300,-2.290339361849926814
0.464000000000000301,-2.239739781039000732
0.465000000000000302,-2.189753546785131455
0.466000000000000303,-2.140383148695568227
0.467000000000000304,-2.091630760970303093
0.468000000000000305,-2.043498249567199387
0.469000000000000306,-1.995987179358961638
0.470000000000000306,-1.949098821276329163
0.471000000000000307,-1.902834159431709748
0.472000000000000308,-1.857193898218191475
0.473000000000000309,-1.812178469378685985
0.474000000000000310,-1.767788039040499637
0.475000000000000311,-1.724022514710616960
0.476000000000000312,-1.680881552227520004
0.477000000000000313,-1.638364562665125757
0.478000000000000314,-1.596470719185128395
0.479000000000000314,-1.555198963833944514
0.480000000000000315,-1.514548014280685306
0.481000000000000316,-1.474516370492944928
0.482000000000000317,-1.435102321347176524
0.483000000000000318,-1.396303951170786872
0.484000000000000319,-1.358119146213150330
0.485000000000000320,-1.320545601043031647
0.486000000000000321,-1.283580824869936077
0.487000000000000322,-1.247222147787240498
0.488000000000000322,-1.211466726934922189
0.489000000000000323,-1.176311552580153741
0.490000000000000324,-1.141753454113818789
0.491000000000000325,-1.107789105961483722
0.492000000000000326,-1.074415033407250419
0.493000000000000327,-1.041627618329278082
0.494000000000000328,-1.009423104845691199
0.495000000000000329,-0.977797604869854786
0.496000000000000330,-0.946747103574069215
0.497000000000000330,-0.916267464760884387
0.498000000000000331,-0.886354436141264079
0.499000000000000332,-0.857003654519133740
0.500000000000000333,-0.828210650881706201
0.501000000000000334,-0.799970855395239711
0.502000000000000335,-0.772279602305976920
0.503000000000000336,-0.745132134746054553
0.504000000000000337,-0.718523609444247535
0.505000000000000338,-0.692449101341583662
0.506000000000000338,-0.666903608111890200
0.507000000000000339,-0.641882054587362250
0.508000000000000340,-0.617379297089435619
0.509000000000000341,-0.593390127665262890
0.510000000000000342,-0.569909278230076088
0.511000000000000343,-0.546931424615946904
0.512000000000000344,-0.524451190527363331
0.513000000000000345,-0.502463151404209496
0.514000000000000346,-0.480961838192742686
0.515000000000000346,-0.459941741025185369
0.516000000000000347,-0.439397312808642582
0.517000000000000348,-0.419322972724160525
0.518000000000000349,-0.399713109636568809
0.519000000000000350,-0.380562085416088214
0.520000000000000351,-0.361864238172464270
0.521000000000000352,-0.343613885402592190
0.522000000000000353,-0.325805327052541949
0.523000000000000353,-0.308432848494923806
0.524000000000000354,-0.291490723422675180
0.525000000000000355,-0.274973216660188480
0.526000000000000356,-0.258874586892884728
0.527000000000000357,-0.243189089316328044
0.528000000000000358,-0.227910978205854597
0.529000000000000359,-0.213034509407990347
0.530000000000000360,-0.198553942754621598
0.531000000000000361,-0.184463544401174795
0.532000000000000361,-0.170757589089873152
0.533000000000000362,-0.157430362339314789
0.534000000000000363,-0.144476162561468335
0.535000000000000364,-0.131889303107320194
0.536000000000000365,-0.119664114242349934
0.537000000000000366,-0.107794945053028363
0.538000000000000367,-0.096276165285510917
0.539000000000000368,-0.085102167117818192
0.540000000000000369,-0.074267366866574910
0.541000000000000369,-0.063766206629649491
0.542000000000000370,-0.053593155865808893
0.543000000000000371,-0.043742712912623348
0.544000000000000372,-0.034209406443850274
0.545000000000000373,-0.024987796867461311
0.546000000000000374,-0.016072477665518205
0.547000000000000375,-0.007458076677097442
0.548000000000000376,0.000860742674529608
0.549000000000000377,0.008889280209326810
0.550000000000000377,0.016632797871336029
0.551000000000000378,0.024096518661739612
0.552000000000000379,0.031285625623044981
0.553000000000000380,0.038205260873173622
0.554000000000000381,0.044860524688382204
0.555000000000000382,0.051256474633818730
0.556000000000000383,0.057398124740666322
0.557000000000000384,0.063290444728685752
0.558000000000000385,0.068938359273148259
0.559000000000000385,0.074346747314979297
0.560000000000000386,0.079520441413129347
0.561000000000000387,0.084464227138039624
0.562000000000000388,0.089182842505201490
0.563000000000000389,0.093680977447738595
0.564000000000000390,0.097963273327026118
0.565000000000000391,0.102034322480299172
0.566000000000000392,0.105898667804298421
0.567000000000000393,0.109560802373918603
0.568000000000000393,0.113025169094952790
0.569000000000000394,0.116296160389927558
0.570000000000000395,0.119378117916124668
0.571000000000000396,0.122275332314853810
0.572000000000000397,0.124992042991041635
0.573000000000000398,0.127532437922311614
0.574000000000000399,0.129900653496574980
0.575000000000000400,0.132100774377369140
0.576000000000000401,0.134136833396021060
0.577000000000000401,0.136012811469816752
0.578000000000000402,0.137732637545373071
0.579000000000000403,0.139300188566412436
0.580000000000000404,0.140719289465085801
0.581000000000000405,0.141993713176155112
0.582000000000000406,0.143127180673206594
0.583000000000000407,0.144123361026171765
0.584000000000000408,0.144985871479430178
0.585000000000000409,0.145718277549765962
0.586000000000000409,0.146324093143461287
0.587000000000000410,0.146806780691863425
0.588000000000000411,0.147169751304736751
0.589000000000000412,0.147416364940718247
0.590000000000000413,0.147549930594278372
0.591000000000000414,0.147573706498501628
0.592000000000000415,0.147490900343090481
0.593000000000000416,0.147304669506997166
0.594000000000000417,0.147018121305070359
0.595000000000000417,0.146634313248132170
0.596000000000000418,0.146156253315963852
0.597000000000000419,0.145586900242581530
0.598000000000000420,0.144929163813317163
0.599000000000000421,0.144185905173151774
0.600000000000000422,0.143359937145783378
0.601000000000000423,0.142454024562941928
0.602000000000000424,0.141470884603453473
0.603000000000000425,0.140413187141565338
0.604000000000000425,0.139283555104090490
0.605000000000000426,0.138084564835904838
0.606000000000000427,0.136818746473315711
0.607000000000000428,0.135488584324993000
0.608000000000000429,0.134096517259833070
0.609000000000000430,0.132644939101615150
0.610000000000000431,0.131136199029784351
0.611000000000000432,0.129572601986164548
0.612000000000000433,0.127956409087172429
0.613000000000000433,0.126289838041092339
0.614000000000000434,0.124575063570168704
0.615000000000000435,0.122814217837109815
