# CNT15-NH2-2_CS-11530-AC
# h[nm],U(h)[kJ/mol]
0.149999999999999994,142.479136231780955768
0.150999999999999995,140.622727146616796290
0.151999999999999996,138.897488544903751517
0.152999999999999997,137.196426540440512554
0.153999999999999998,135.470836811090123319
0.154999999999999999,133.707766526816527630
0.156000000000000000,131.913409363172092981
0.157000000000000001,130.101882398019171205
0.158000000000000002,128.288341705509338908
0.159000000000000002,126.485308799321131801
0.160000000000000003,124.701194230120336215
0.161000000000000004,122.940197069908506933
0.162000000000000005,121.202963947557890378
0.163000000000000006,119.487576176040761311
0.164000000000000007,117.790585191057374459
0.165000000000000008,116.107932617351849558
0.166000000000000009,114.435674855997348232
0.167000000000000010,112.770488510191484011
0.168000000000000010,111.109968135030868552
0.169000000000000011,109.452747209192949640
0.170000000000000012,107.798481574250359927
0.171000000000000013,106.147735630674631579
0.172000000000000014,104.501808185591201550
0.173000000000000015,102.862529102974377793
0.174000000000000016,101.232051258338117350
0.175000000000000017,99.612655691325215912
0.176000000000000018,98.006581848043566652
0.177000000000000018,96.415889705689323819
0.178000000000000019,94.842356482572910181
0.179000000000000020,93.287407542514671377
0.180000000000000021,91.752078915566215755
0.181000000000000022,90.237007450439719491
0.182000000000000023,88.742443846813770847
0.183000000000000024,87.268283548185735299
0.184000000000000025,85.814110579600210826
0.185000000000000026,84.379249777107276032
0.186000000000000026,82.962823383273160971
0.187000000000000027,81.563808599965057056
0.188000000000000028,80.181093337656449194
0.189000000000000029,78.813528036605831062
0.190000000000000030,77.459972029443889596
0.191000000000000031,76.119333447676638116
0.192000000000000032,74.790602135652903826
0.193000000000000033,73.472875420489415887
0.194000000000000034,72.165376896008595509
0.195000000000000034,70.867468617037758349
0.196000000000000035,69.578657273805475825
0.197000000000000036,68.298595032307090946
0.198000000000000037,67.027075793634693923
0.199000000000000038,65.764027651654274109
0.200000000000000039,64.509502322013787534
0.201000000000000040,63.263662283618899096
0.202000000000000041,62.026766323022819449
0.203000000000000042,60.799154108411144648
0.204000000000000042,59.581230347936923408
0.205000000000000043,58.373449011171544498
0.206000000000000044,57.176298015685553366
0.207000000000000045,55.990284705863857084
0.208000000000000046,54.815922379950492882
0.209000000000000047,53.653718055420107191
0.210000000000000048,52.504161603026048510
0.211000000000000049,51.367716326825572537
0.212000000000000050,50.244811021353754654
0.213000000000000050,49.135833497887730914
0.214000000000000051,48.041125539182125692
0.215000000000000052,46.960979215798793973
0.216000000000000053,45.895634476730336360
0.217000000000000054,44.845277911887443167
0.218000000000000055,43.810042573615916695
0.219000000000000056,42.790008738147662370
0.220000000000000057,41.785205485188022578
0.221000000000000058,40.795612974155510244
0.222000000000000058,39.821165298381913544
0.223000000000000059,38.861753803378022099
0.224000000000000060,37.917230761623947899
0.225000000000000061,36.987413303859490554
0.226000000000000062,36.072087515180371042
0.227000000000000063,35.171012613084648990
0.228000000000000064,34.283925133701892207
0.229000000000000065,33.410543061553390487
0.230000000000000066,32.550569847157724723
0.231000000000000066,31.703698265463494010
0.232000000000000067,30.869614076346305609
0.233000000000000068,30.047999456164841803
0.234000000000000069,29.238536176566860547
0.235000000000000070,28.440908513331940810
0.236000000000000071,27.654805874010566669
0.237000000000000072,26.879925138459878298
0.238000000000000073,26.115972711093593972
0.239000000000000073,25.362666287772437812
0.240000000000000074,24.619736343781536192
0.241000000000000075,23.886927352310845407
0.242000000000000076,23.163998745300901305
0.243000000000000077,22.450725630481009887
0.244000000000000078,21.746899279949406747
0.245000000000000079,21.052327406764774764
0.246000000000000080,20.366834246778161344
0.247000000000000081,19.690260463371068056
0.248000000000000081,19.022462892921115696
0.249000000000000082,18.363314148726551878
0.250000000000000111,17.712702100819818440
0.251000000000000112,17.070529248623017793
0.252000000000000113,16.436712002771649566
0.253000000000000114,15.811179891691256927
0.254000000000000115,15.193874707672131663
0.255000000000000115,14.584749606280961842
0.256000000000000116,13.983768171990266893
0.257000000000000117,13.390903461917517348
0.258000000000000118,12.806137038562345865
0.259000000000000119,12.229458001424045932
0.260000000000000120,11.660862026386539014
0.261000000000000121,11.100350420784170780
0.262000000000000122,10.547929201115737285
0.263000000000000123,10.003608199465848116
0.264000000000000123,9.467400203824329452
0.265000000000000124,8.939320136673146067
0.266000000000000125,8.419384275437121090
0.267000000000000126,7.907609517673165556
0.268000000000000127,7.404012693202550288
0.269000000000000128,6.908609924774699707
0.270000000000000129,6.421416038286476002
0.271000000000000130,5.942444023068182979
0.272000000000000131,5.471704542286685680
0.273000000000000131,5.009205493102784956
0.274000000000000132,4.554951615855309832
0.275000000000000133,4.108944151223793639
0.276000000000000134,3.671180544044077898
0.277000000000000135,3.241654192214964869
0.278000000000000136,2.820354238933617363
0.279000000000000137,2.407265406333827240
0.280000000000000138,2.002367868470193546
0.281000000000000139,1.605637161488726150
0.282000000000000139,1.217044128751315624
0.283000000000000140,0.836554898631714172
0.284000000000000141,0.464130892674530060
0.285000000000000142,0.099728861802223553
0.286000000000000143,-0.256699051733180361
0.287000000000000144,-0.605205228929049710
0.288000000000000145,-0.945846467376292188
0.289000000000000146,-1.278683855548499171
0.290000000000000147,-1.603782630153146371
0.291000000000000147,-1.921212018588206449
0.292000000000000148,-2.231045068468699100
0.293000000000000149,-2.533358466101091278
0.294000000000000150,-2.828232345694100314
0.295000000000000151,-3.115750091000375477
0.296000000000000152,-3.395998130987977426
0.297000000000000153,-3.669065731042908673
0.298000000000000154,-3.935044781106532330
0.299000000000000155,-4.194029582053724781
0.300000000000000155,-4.446116631520999896
0.301000000000000156,-4.691404410298281924
0.302000000000000157,-4.929993170305001726
0.303000000000000158,-5.161984725079610037
0.304000000000000159,-5.387482243623793465
0.305000000000000160,-5.606590048357043443
0.306000000000000161,-5.819413417855482606
0.307000000000000162,-6.026058394970345233
0.308000000000000163,-6.226631600846531889
0.309000000000000163,-6.421240055290619253
0.310000000000000164,-6.609991003870540283
0.311000000000000165,-6.792991752065458577
0.312000000000000166,-6.970349506725011857
0.313000000000000167,-7.142171225041268556
0.314000000000000168,-7.308563471184688964
0.315000000000000169,-7.469632280707362959
0.316000000000000170,-7.625483032772180536
0.317000000000000171,-7.776220330225430466
0.318000000000000171,-7.921947887492907903
0.319000000000000172,-8.062768426245520814
0.320000000000000173,-8.198783578749033296
0.321000000000000174,-8.330093798784863779
0.322000000000000175,-8.456798280003875234
0.323000000000000176,-8.578994881552683083
0.324000000000000177,-8.696780060792731248
0.325000000000000178,-8.810248812914846184
0.326000000000000179,-8.919494617238003187
0.327000000000000179,-9.024609389967791273
0.328000000000000180,-9.125683443180202303
0.329000000000000181,-9.222805449787738752
0.330000000000000182,-9.316062414238098555
0.331000000000000183,-9.405539648690933063
0.332000000000000184,-9.491320754414541483
0.333000000000000185,-9.573487608142462690
0.334000000000000186,-9.652120353129244990
0.335000000000000187,-9.727297394645050943
0.336000000000000187,-9.799095399650633809
0.337000000000000188,-9.867589300396158336
0.338000000000000189,-9.932852301691557528
0.339000000000000190,-9.994955891599728304
0.340000000000000191,-10.053969855308945824
0.341000000000000192,-10.109962291946564150
0.342000000000000193,-10.162999634101856472
0.343000000000000194,-10.213146669832719127
0.344000000000000195,-10.260466566937228805
0.345000000000000195,-10.305020899279242030
0.346000000000000196,-10.346869674963688368
0.347000000000000197,-10.386071366165682051
0.348000000000000198,-10.422682940425076481
0.349000000000000199,-10.456759893226134750
0.350000000000000200,-10.488356281690117910
0.351000000000000201,-10.517524759216613006
0.352000000000000202,-10.544316610917412902
0.353000000000000203,-10.568781789695007589
0.354000000000000203,-10.590968952825603466
0.355000000000000204,-10.610925498914303589
0.356000000000000205,-10.628697605098093248
0.357000000000000206,-10.644330264379950890
0.358000000000000207,-10.657867322984339253
0.359000000000000208,-10.669351517632303938
0.360000000000000209,-10.678824512641091005
0.361000000000000210,-10.686326936760146111
0.362000000000000210,-10.691898419662180686
0.363000000000000211,-10.695577628014261151
0.364000000000000212,-10.697402301060458640
0.365000000000000213,-10.697409285653190381
0.366000000000000214,-10.695634570676547881
0.367000000000000215,-10.692113320810189947
0.368000000000000216,-10.686879909588004267
0.369000000000000217,-10.679967951710368723
0.370000000000000218,-10.671410334574261469
0.371000000000000218,-10.661239248989502926
0.372000000000000219,-10.649486219054226765
0.373000000000000220,-10.636182131166695086
0.374000000000000221,-10.621357262154386802
0.375000000000000222,-10.605041306505054166
0.376000000000000223,-10.587263402688124714
0.377000000000000224,-10.568052158557842191
0.378000000000000225,-10.547435675832671720
0.379000000000000226,-10.525441573648476989
0.380000000000000226,-10.502097011185675512
0.381000000000000227,-10.477428709372734517
0.382000000000000228,-10.451462971671228175
0.383000000000000229,-10.424225703949348443
0.384000000000000230,-10.395742433452850761
0.385000000000000231,-10.366038326884488896
0.386000000000000232,-10.335138207604135374
0.387000000000000233,-10.303066571963832132
0.388000000000000234,-10.269847604792882834
0.389000000000000234,-10.235505194049764555
0.390000000000000235,-10.200062944658316866
0.391000000000000236,-10.163544191546993289
0.392000000000000237,-10.125972011910521431
0.393000000000000238,-10.087369236714348375
0.394000000000000239,-10.047758461462519719
0.395000000000000240,-10.007162056250603399
0.396000000000000241,-9.965602175125388484
0.397000000000000242,-9.923100764773488791
0.398000000000000242,-9.879679572561563816
0.399000000000000243,-9.835360153950547968
0.400000000000000244,-9.790163879306868822
0.401000000000000245,-9.744111940133496574
0.402000000000000246,-9.697225354743592263
0.403000000000000247,-9.649524973399625338
0.404000000000000248,-9.601031482940618034
0.405000000000000249,-9.551765410920044275
0.406000000000000250,-9.501747129276608916
0.407000000000000250,-9.450996857560099329
0.408000000000000251,-9.399534665733886740
0.409000000000000252,-9.347380476575695596
0.410000000000000253,-9.294554067697575306
0.411000000000000254,-9.241075073205825774
0.412000000000000255,-9.186962985021178696
0.413000000000000256,-9.132237153879042779
0.414000000000000257,-9.076916790029176951
0.415000000000000258,-9.021020963653871405
0.416000000000000258,-8.964568605022860126
0.417000000000000259,-8.907578504403101505
0.418000000000000260,-8.850069311740741185
0.419000000000000261,-8.792059536132256881
0.420000000000000262,-8.733567545101120544
0.421000000000000263,-8.674611563695933114
0.422000000000000264,-8.615209673425280101
0.423000000000000265,-8.555379811044122818
0.424000000000000266,-8.495139767206200787
0.425000000000000266,-8.434507184995812423
0.426000000000000267,-8.373499558352584415
0.427000000000000268,-8.312134230401655444
0.428000000000000269,-8.250428391701509767
0.429000000000000270,-8.188399078421243260
0.430000000000000271,-8.126063170458115437
0.431000000000000272,-8.063437389506368902
0.432000000000000273,-8.000538297087146589
0.433000000000000274,-7.937382292549399310
0.434000000000000274,-7.873985611050772881
0.435000000000000275,-7.810364321527299758
0.436000000000000276,-7.746534324660119708
0.437000000000000277,-7.682511350846930043
0.438000000000000278,-7.618310958185636750
0.439000000000000279,-7.553948530477126333
0.440000000000000280,-7.489439275253498174
0.441000000000000281,-7.424798221838111445
0.442000000000000282,-7.360040219442974596
0.443000000000000282,-7.295179935308816255
0.444000000000000283,-7.230231852892889499
0.445000000000000284,-7.165210270109007240
0.446000000000000285,-7.100129297623996472
0.447000000000000286,-7.035002857214722738
0.448000000000000287,-6.969844680188894692
0.449000000000000288,-6.904668305873313372
0.450000000000000289,-6.839487080172153455
0.451000000000000290,-6.774314154198224358
0.452000000000000290,-6.709162482979516895
0.453000000000000291,-6.644044824243050762
0.454000000000000292,-6.578973737278107414
0.455000000000000293,-6.513961581880232998
0.456000000000000294,-6.449020517377557660
0.457000000000000295,-6.384162501740577866
0.458000000000000296,-6.319399290776203770
0.459000000000000297,-6.254742437407022848
0.460000000000000298,-6.190203291036094235
0.461000000000000298,-6.125792996997857287
0.462000000000000299,-6.061522496095159696
0.463000000000000300,-5.997402524222461118
0.464000000000000301,-5.933443612075133267
0.465000000000000302,-5.869656084944538499
0.466000000000000303,-5.806050062598336226
0.467000000000000304,-5.742635459245632568
0.468000000000000305,-5.679421983586154354
0.469000000000000306,-5.616419138942639222
0.470000000000000306,-5.553636223475670874
0.471000000000000307,-5.491082330479666318
0.472000000000000308,-5.428766348759197058
0.473000000000000309,-5.366696963084215177
0.474000000000000310,-5.304882654723032331
0.475000000000000311,-5.243331702051555965
0.476000000000000312,-5.182052181237589927
0.477000000000000313,-5.121051966998384941
0.478000000000000314,-5.060338733430127078
0.479000000000000314,-4.999919954907710462
0.480000000000000315,-4.939802907053028491
0.481000000000000316,-4.879994667770271910
0.482000000000000317,-4.820502118346309928
0.483000000000000318,-4.761331944614560996
0.484000000000000319,-4.702490638180395699
0.485000000000000320,-4.643984497706426851
0.486000000000000321,-4.585819630255686619
0.487000000000000322,-4.528001952690969389
0.488000000000000322,-4.470537193128298448
0.489000000000000323,-4.413430892442887554
0.490000000000000324,-4.356688405825474675
0.491000000000000325,-4.300314904387294135
0.492000000000000326,-4.244315376811663931
0.493000000000000327,-4.188694631050479344
0.494000000000000328,-4.133457296063561159
0.495000000000000329,-4.078607823599094573
0.496000000000000330,-4.024150490013219894
0.497000000000000330,-3.970089398127026215
0.498000000000000331,-3.916428479118923001
0.499000000000000332,-3.863171494450841514
0.500000000000000333,-3.810322037826217922
0.501000000000000334,-3.757883537178044353
0.502000000000000335,-3.705859256685305692
0.503000000000000336,-3.654252298815982236
0.504000000000000337,-3.603065606394891596
0.505000000000000338,-3.552301964694730252
0.506000000000000338,-3.501964003548620585
0.507000000000000339,-3.452054199482507357
0.508000000000000340,-3.402574877865794267
0.509000000000000341,-3.353528215078722674
0.510000000000000342,-3.304916240694792950
0.511000000000000343,-3.256740839676828703
0.512000000000000344,-3.209003754585114443
0.513000000000000345,-3.161706587796194512
0.514000000000000346,-3.114850803730907280
0.515000000000000346,-3.068437731090202902
0.516000000000000347,-3.022468565097415905
0.517000000000000348,-2.976944369745740282
0.518000000000000349,-2.931866080049410961
0.519000000000000350,-2.887234504297565341
0.520000000000000351,-2.843050326309350950
0.521000000000000352,-2.799314107689244047
0.522000000000000353,-2.756026290081304175
0.523000000000000353,-2.713187197421233154
0.524000000000000354,-2.670797038185291683
0.525000000000000355,-2.628855907634785272
0.526000000000000356,-2.587363790055246859
0.527000000000000357,-2.546320560989333348
0.528000000000000358,-2.505725989462264991
0.529000000000000359,-2.465579740199208114
0.530000000000000360,-2.425881375833352394
0.531000000000000361,-2.386630359104089827
0.532000000000000361,-2.347826055044266891
0.533000000000000362,-2.309467733155850411
0.534000000000000363,-2.271554569573110083
0.535000000000000364,-2.234085649212663505
0.536000000000000365,-2.197059967909605671
0.537000000000000366,-2.160476434539112311
0.538000000000000367,-2.124333873122723926
0.539000000000000368,-2.088631024918905510
0.540000000000000369,-2.053366550497008447
0.541000000000000369,-2.018539031794335248
0.542000000000000370,-1.984146974155540422
0.543000000000000371,-1.950188808353983561
0.544000000000000372,-1.916662892594509504
0.545000000000000373,-1.883567514497182405
0.546000000000000374,-1.850900893061508068
0.547000000000000375,-1.818661180610780193
0.548000000000000376,-1.786846464716153049
0.549000000000000377,-1.755454770100031370
0.550000000000000377,-1.724484060518452821
0.551000000000000378,-1.693932240622167740
0.552000000000000379,-1.663797157796085724
0.553000000000000380,-1.634076603976824416
0.554000000000000381,-1.604768317448069581
0.555000000000000382,-1.575869984613607944
0.556000000000000383,-1.547379241747648626
0.557000000000000384,-1.519293676722438979
0.558000000000000385,-1.491610830712799096
0.559000000000000385,-1.464328199877571901
0.560000000000000386,-1.437443237017743902
0.561000000000000387,-1.410953353211172656
0.562000000000000388,-1.384855919423760851
0.563000000000000389,-1.359148268097048140
0.564000000000000390,-1.333827694712083733
0.565000000000000391,-1.308891459329553530
0.566000000000000392,-1.284336788106097416
0.567000000000000393,-1.260160874786831586
0.568000000000000393,-1.236360882173975329
0.569000000000000394,-1.212933943571641526
0.570000000000000395,-1.189877164206815330
0.571000000000000396,-1.167187622626445043
0.572000000000000397,-1.144862372070825529
0.573000000000000398,-1.122898441823156235
0.574000000000000399,-1.101292838535490315
0.575000000000000400,-1.080042547531001818
0.576000000000000401,-1.059144534082727684
0.577000000000000401,-1.038595744668902698
0.578000000000000402,-1.018393108204874498
0.579000000000000403,-0.998533537251780623
0.580000000000000404,-0.979013929202142918
0.581000000000000405,-0.959831167442383171
0.582000000000000406,-0.940982122492509121
0.583000000000000407,-0.922463653123032801
0.584000000000000408,-0.904272607449317589
0.585000000000000409,-0.886405824003470455
0.586000000000000409,-0.868860132783964900
0.587000000000000410,-0.851632356283166692
0.588000000000000411,-0.834719310492891609
0.589000000000000412,-0.818117805888248562
0.590000000000000413,-0.801824648389867556
0.591000000000000414,-0.785836640304766076
0.592000000000000415,-0.770150581246039634
0.593000000000000416,-0.754763269031526240
0.594000000000000417,-0.739671500561695727
0.595000000000000417,-0.724872072677014589
0.596000000000000418,-0.710361782994826330
0.597000000000000419,-0.696137430726206707
0.598000000000000420,-0.682195817472786903
0.599000000000000421,-0.668533748003903305
0.600000000000000422,-0.655148031014255117
0.601000000000000423,-0.642035479862281377
0.602000000000000424,-0.629192913289512434
0.603000000000000425,-0.616617156121112231
0.604000000000000425,-0.604305039947844236
0.605000000000000426,-0.592253403789684718
0.606000000000000427,-0.580459094741398118
0.607000000000000428,-0.568918968600105379
0.608000000000000429,-0.557629890475422330
0.609000000000000430,-0.546588735381998703
0.610000000000000431,-0.535792388815081844
0.611000000000000432,-0.525237747309084346
