# CNT15-NH2-2_CS-11727-AC
# h[nm],U(h)[kJ/mol]
0.149999999999999994,105.336504880135493067
0.150999999999999995,103.426987542979603063
0.151999999999999996,101.841563857150902095
0.152999999999999997,100.338579338781670458
0.153999999999999998,98.823364261490468152
0.154999999999999999,97.273859183053417610
0.156000000000000000,95.698879202037801406
0.157000000000000001,94.116198449895009048
0.158000000000000002,92.542252588502478261
0.159000000000000002,90.988319722623060670
0.160000000000000003,89.460045164124338157
0.161000000000000004,87.958466906548295583
0.162000000000000005,86.481513621825627069
0.163000000000000006,85.025447795437941068
0.164000000000000007,83.586023467676653809
0.165000000000000008,82.159295030279409389
0.166000000000000009,80.742099865819255911
0.167000000000000010,79.332275556659226368
0.168000000000000010,77.928682678194235223
0.169000000000000011,76.531099872404226403
0.170000000000000012,75.140046924275807783
0.171000000000000013,73.756578573411061939
0.172000000000000014,72.382079311961518897
0.173000000000000015,71.018078663767610692
0.174000000000000016,69.666097842141567753
0.175000000000000017,68.327532238205648696
0.176000000000000018,67.003569665804974420
0.177000000000000018,65.695141356725656578
0.178000000000000019,64.402901018305328762
0.179000000000000020,63.127226516156198954
0.180000000000000021,61.868238653465709831
0.181000000000000022,60.625831861458514993
0.182000000000000023,59.399712218580042133
0.183000000000000024,58.189438948328223944
0.184000000000000025,56.994466314215799230
0.185000000000000026,55.814183572086754737
0.186000000000000026,54.647951315486224644
0.187000000000000027,53.495133137278557456
0.188000000000000028,52.355122021363023066
0.189000000000000029,51.227361272194556818
0.190000000000000030,50.111360092740305561
0.191000000000000031,49.006704142821078563
0.192000000000000032,47.913061560573396491
0.193000000000000033,46.830185021610319041
0.194000000000000034,45.757910454642058085
0.195000000000000034,44.696153039277632502
0.196000000000000035,43.644901090777423747
0.197000000000000036,42.604208395692779732
0.198000000000000037,41.574185508354190688
0.199000000000000038,40.554990456549134592
0.200000000000000039,39.546819239823932435
0.201000000000000040,38.549896438994359471
0.202000000000000041,37.564466193126435201
0.203000000000000042,36.590783742184079586
0.204000000000000042,35.629107680853479678
0.205000000000000043,34.679693022384654455
0.206000000000000044,33.742785130885067701
0.207000000000000045,32.818614546324688774
0.208000000000000046,31.907392698313550738
0.209000000000000047,31.009308482092897918
0.210000000000000048,30.124525652646934049
0.211000000000000049,29.253180979847837051
0.212000000000000050,28.395383098521740806
0.213000000000000050,27.551211981710402199
0.214000000000000051,26.720718962654888884
0.215000000000000052,25.903927230641762947
0.216000000000000053,25.100832727362764274
0.217000000000000054,24.311405373428449650
0.218000000000000055,23.535590558776057435
0.219000000000000056,22.773310835603602698
0.220000000000000057,22.024467757867377316
0.221000000000000058,21.288943817077345955
0.222000000000000058,20.566604429914395524
0.223000000000000059,19.857299938933415717
0.224000000000000060,19.160867593178330992
0.225000000000000061,18.477133480832911516
0.226000000000000062,17.805914390996115060
0.227000000000000063,17.147019586257520984
0.228000000000000064,16.500252471930412668
0.229000000000000065,15.865412151561468335
0.230000000000000066,15.242294861680111495
0.231000000000000066,14.630695281679470199
0.232000000000000067,14.030407717256561995
0.233000000000000068,13.441227157996284092
0.234000000000000069,12.862950211491963159
0.235000000000000070,12.295375917877620964
0.236000000000000071,11.738306449835915757
0.237000000000000072,11.191547704065987645
0.238000000000000073,10.654909790879935727
0.239000000000000073,10.128207429071768075
0.240000000000000074,9.611260253493226102
0.241000000000000075,9.103893042907255762
0.242000000000000076,8.605935875691006487
0.243000000000000077,8.117224220850388861
0.244000000000000078,7.637598971607258314
0.245000000000000079,7.166906428545226859
0.246000000000000080,6.704998238968853386
0.247000000000000081,6.251731298755115240
0.248000000000000081,5.806967622571242771
0.249000000000000082,5.370574187908115249
0.250000000000000111,4.942422757942859235
0.251000000000000112,4.522389687807593539
0.252000000000000113,4.110355718406965231
0.253000000000000114,3.706205761505562357
0.254000000000000115,3.309828679395618423
0.255000000000000115,2.921117062065053283
0.256000000000000116,2.539967004414155127
0.257000000000000117,2.166277885720038654
0.258000000000000118,1.799952153222889706
0.259000000000000119,1.440895111405962714
0.260000000000000120,1.089014718264027071
0.261000000000000121,0.744221389602531147
0.262000000000000122,0.406427812180007897
0.263000000000000123,0.075548766300893605
0.264000000000000123,-0.248499041718360569
0.265000000000000124,-0.565797136949080848
0.266000000000000125,-0.876425422998072579
0.267000000000000126,-1.180462318908578778
0.268000000000000127,-1.477984885926542535
0.269000000000000128,-1.769068944333617166
0.270000000000000129,-2.053789180623700528
0.271000000000000130,-2.332219245361515814
0.272000000000000131,-2.604431842110423112
0.273000000000000131,-2.870498807855240919
0.274000000000000132,-3.130491185373499352
0.275000000000000133,-3.384479288028308108
0.276000000000000134,-3.632532757467491713
0.277000000000000135,-3.874720614718019984
0.278000000000000136,-4.111111305164337537
0.279000000000000137,-4.341772737892719114
0.280000000000000138,-4.566772319873331654
0.281000000000000139,-4.786176985438269860
0.282000000000000139,-5.000053221496613354
0.283000000000000140,-5.208467088908951936
0.284000000000000141,-5.411484240422676173
0.285000000000000142,-5.609169935547514640
0.286000000000000143,-5.801589052727702089
0.287000000000000144,-5.988806099143507922
0.288000000000000145,-6.170885218451653387
0.289000000000000146,-6.347890196749707670
0.290000000000000147,-6.519884467027088348
0.291000000000000147,-6.686931112341676808
0.292000000000000148,-6.849092867939576834
0.293000000000000149,-7.006432122513563066
0.294000000000000150,-7.159010918775740251
0.295000000000000151,-7.306890953500217556
0.296000000000000152,-7.450133577173312815
0.297000000000000153,-7.588799793371334701
0.298000000000000154,-7.722950257969911192
0.299000000000000155,-7.852645278273698182
0.300000000000000155,-7.977944812141290143
0.301000000000000156,-8.098908467167397873
0.302000000000000157,-8.215595499972625504
0.303000000000000158,-8.328064815640381369
0.304000000000000159,-8.436374967330994679
0.305000000000000160,-8.540584156094237045
0.306000000000000161,-8.640750230893923245
0.307000000000000162,-8.736930688851375137
0.308000000000000163,-8.829182675708487693
0.309000000000000163,-8.917562986506075262
0.310000000000000164,-9.002128066468731760
0.311000000000000165,-9.082934012083571318
0.312000000000000166,-9.160036572357347140
0.313000000000000167,-9.233491150233714251
0.314000000000000168,-9.303352804150552657
0.315000000000000169,-9.369676249715752192
0.316000000000000170,-9.432515861478979247
0.317000000000000171,-9.491925674775984589
0.318000000000000171,-9.547959387622087846
0.319000000000000172,-9.600670362631419152
0.320000000000000173,-9.650111628938709885
0.321000000000000174,-9.696335884101120683
0.322000000000000175,-9.739395495958401483
0.323000000000000176,-9.779342504430568184
0.324000000000000177,-9.816228623233456574
0.325000000000000178,-9.850105241493659847
0.326000000000000179,-9.881023425245922809
0.327000000000000179,-9.909033918797181428
0.328000000000000180,-9.934187145943107922
0.329000000000000181,-9.956533211024588326
0.330000000000000182,-9.976121899812769200
0.331000000000000183,-9.993002680213319167
0.332000000000000184,-10.007224702781595482
0.333000000000000185,-10.018836801042311890
0.334000000000000186,-10.027887491608449722
0.335000000000000187,-10.034424974095855987
0.336000000000000187,-10.038497130831258275
0.337000000000000188,-10.040151526352582678
0.338000000000000189,-10.039435406702082787
0.339000000000000190,-10.036395698513754127
0.340000000000000191,-10.031079007897597322
0.341000000000000192,-10.023531619124627312
0.342000000000000193,-10.013799493117222283
0.343000000000000194,-10.001928265750654745
0.344000000000000195,-9.987963245971979376
0.345000000000000195,-9.971949413743999457
0.346000000000000196,-9.953931417821896943
0.347000000000000197,-9.933953573371340440
0.348000000000000198,-9.912059859437208686
0.349000000000000199,-9.888293916272507644
0.350000000000000200,-9.862699042537643734
0.351000000000000201,-9.835318192380370306
0.352000000000000202,-9.806193972407177384
0.353000000000000203,-9.775368638557027978
0.354000000000000203,-9.742884092888626668
0.355000000000000204,-9.708781880292244537
0.356000000000000205,-9.673103185137584603
0.357000000000000206,-9.635888827868919648
0.358000000000000207,-9.597179261558652641
0.359000000000000208,-9.557014568430650669
0.360000000000000209,-9.515434456364312510
0.361000000000000210,-9.472478255390310409
0.362000000000000210,-9.428184914188740606
0.363000000000000211,-9.382592996600143564
0.364000000000000212,-9.335740678159753614
0.365000000000000213,-9.287665742664810153
0.366000000000000214,-9.238405578784782080
0.367000000000000215,-9.187997176723676773
0.368000000000000216,-9.136477124943690242
0.369000000000000217,-9.083881606958644994
0.370000000000000218,-9.030246398205763469
0.371000000000000218,-8.975606863003431357
0.372000000000000219,-8.919997951602777420
0.373000000000000220,-8.863454197340017160
0.374000000000000221,-8.806009713896466806
0.375000000000000222,-8.747698192672363149
0.376000000000000223,-8.688552900280692270
0.377000000000000224,-8.628606676166398870
0.378000000000000225,-8.567891930356086760
0.379000000000000226,-8.506440641343020914
0.380000000000000226,-8.444284354111756485
0.381000000000000227,-8.381454178306192659
0.382000000000000228,-8.317980786544755034
0.383000000000000229,-8.253894412885763643
0.384000000000000230,-8.189224851445683129
0.385000000000000231,-8.124001455172900066
0.386000000000000232,-8.058253134778759375
0.387000000000000233,-7.992008357827809384
0.388000000000000234,-7.925295147988407507
0.389000000000000234,-7.858141084444854485
0.390000000000000235,-7.790573301471613199
0.391000000000000236,-7.722618488170129858
0.392000000000000237,-7.654302888368171409
0.393000000000000238,-7.585652300681681837
0.394000000000000239,-7.516692078738453908
0.395000000000000240,-7.447447131563038170
0.396000000000000241,-7.377941924121850903
0.397000000000000242,-7.308200478027106151
0.398000000000000242,-7.238246372398377204
0.399000000000000243,-7.168102744879824684
0.400000000000000244,-7.097792292811315740
0.401000000000000245,-7.027337274551451074
0.402000000000000246,-6.956759510950044856
0.403000000000000247,-6.886080386967743827
0.404000000000000248,-6.815320853440161031
0.405000000000000249,-6.744501428983802782
0.406000000000000250,-6.673642202040857896
0.407000000000000250,-6.602762833059914627
0.408000000000000251,-6.531882556809395446
0.409000000000000252,-6.461020184820602807
0.410000000000000253,-6.390194107956923553
0.411000000000000254,-6.319422299105872831
0.412000000000000255,-6.248722315990463017
0.413000000000000256,-6.178111304096352896
0.414000000000000257,-6.107605999711104516
0.415000000000000258,-6.037222733072013625
0.416000000000000258,-5.966977431618636807
0.417000000000000259,-5.896885623346431515
0.418000000000000260,-5.826962440257629439
0.419000000000000261,-5.757222621905593307
0.420000000000000262,-5.687680519028852189
0.421000000000000263,-5.618350097271024524
0.422000000000000264,-5.549244940982760887
0.423000000000000265,-5.480378257101897965
0.424000000000000266,-5.411762879108174218
0.425000000000000266,-5.343411271048464251
0.426000000000000267,-5.275335531629031571
0.427000000000000268,-5.207547398370886427
0.428000000000000269,-5.140058251824613400
0.429000000000000270,-5.072879119841050333
0.430000000000000271,-5.006020681894050028
0.431000000000000272,-4.939493273451883937
0.432000000000000273,-4.873306890393625856
0.433000000000000274,-4.807471193467138804
0.434000000000000274,-4.741995512785080358
0.435000000000000275,-4.676888852355665094
0.436000000000000276,-4.612159894644812574
0.437000000000000277,-4.547817005166352899
0.438000000000000278,-4.483868237097158094
0.439000000000000279,-4.420321335914043637
0.440000000000000280,-4.357183744049286211
0.441000000000000281,-4.294462605561825796
0.442000000000000282,-4.232164770821191802
0.443000000000000282,-4.170296801201201831
0.444000000000000283,-4.108864973780742780
0.445000000000000284,-4.047875286048825849
0.446000000000000285,-3.987333460611180325
0.447000000000000286,-3.927244949896035564
0.448000000000000287,-3.867614940856233918
0.449000000000000288,-3.808448359665561611
0.450000000000000289,-3.749749876406657911
0.451000000000000290,-3.691523909748364751
0.452000000000000290,-3.633774631610247496
0.453000000000000291,-3.576505971812079743
0.454000000000000292,-3.519721622706319941
0.455000000000000293,-3.463425043791438007
0.456000000000000294,-3.407619466304274702
0.457000000000000295,-3.352307897789516211
0.458000000000000296,-3.297493126644449379
0.459000000000000297,-3.243177726637388680
0.460000000000000298,-3.189364061397964800
0.461000000000000298,-3.136054288877853757
0.462000000000000299,-3.083250365780306090
0.463000000000000300,-3.030954051957059470
0.464000000000000301,-2.979166914771273156
0.465000000000000302,-2.927890333425188452
0.466000000000000303,-2.877125503251144689
0.467000000000000304,-2.826873439964880053
0.468000000000000305,-2.777134983879955055
0.469000000000000306,-2.727910804082157359
0.470000000000000306,-2.679201402563015311
0.471000000000000307,-2.631007118311295745
0.472000000000000308,-2.583328131361761315
0.473000000000000309,-2.536164466800213013
0.474000000000000310,-2.489515998724125545
0.475000000000000311,-2.443382454158045114
0.476000000000000312,-2.397763416923257118
0.477000000000000313,-2.352658331460822705
0.478000000000000314,-2.308066506607646229
0.479000000000000314,-2.263987119324947006
0.480000000000000315,-2.220419218378604231
0.481000000000000316,-2.177361727971061978
0.482000000000000317,-2.134813451324270250
0.483000000000000318,-2.092773074213409412
0.484000000000000319,-2.051239168451025829
0.485000000000000320,-2.010210195321378457
0.486000000000000321,-1.969684508964694603
0.487000000000000322,-1.929660359711225626
0.488000000000000322,-1.890135897364831674
0.489000000000000323,-1.851109174436159410
0.490000000000000324,-1.812578149325150934
0.491000000000000325,-1.774540689452964726
0.492000000000000326,-1.736994574343191600
0.493000000000000327,-1.699937498652485335
0.494000000000000328,-1.663367075150576024
0.495000000000000329,-1.627280837649773826
0.496000000000000330,-1.591676243884053710
0.497000000000000330,-1.556550678337877969
0.498000000000000331,-1.521901455024838201
0.499000000000000332,-1.487725820216426076
0.500000000000000333,-1.454020955121003933
0.501000000000000334,-1.420783978513259882
0.502000000000000335,-1.388011949314406523
0.503000000000000336,-1.355701869123386194
0.504000000000000337,-1.323850684699330316
0.505000000000000338,-1.292455290395630119
0.506000000000000338,-1.261512530545934929
0.507000000000000339,-1.231019201802378005
0.508000000000000340,-1.200972055426423601
0.509000000000000341,-1.171367799532738507
0.510000000000000342,-1.142203101286394684
0.511000000000000343,-1.113474589053871977
0.512000000000000344,-1.085178854508236812
0.513000000000000345,-1.057312454688947412
0.514000000000000346,-1.029871914016721401
0.515000000000000346,-1.002853726263881473
0.516000000000000347,-0.976254356480663055
0.517000000000000348,-0.950070242877995907
0.518000000000000349,-0.924297798667108039
0.519000000000000350,-0.898933413856584651
0.520000000000000351,-0.873973457007265919
0.521000000000000352,-0.849414276945540392
0.522000000000000353,-0.825252204435516390
0.523000000000000353,-0.801483553810551030
0.524000000000000354,-0.778104624564740055
0.525000000000000355,-0.755111702904779247
0.526000000000000356,-0.732501063262785967
0.527000000000000357,-0.710268969770636471
0.528000000000000358,-0.688411677696213919
0.529000000000000359,-0.666925434842300935
0.530000000000000360,-0.645806482908451884
0.531000000000000361,-0.625051058816535332
0.532000000000000361,-0.604655396000366219
0.533000000000000362,-0.584615725660076579
0.534000000000000363,-0.564928277981665117
0.535000000000000364,-0.545589283322323815
0.536000000000000365,-0.526594973362069729
0.537000000000000366,-0.507941582222212529
0.538000000000000367,-0.489625347551177703
0.539000000000000368,-0.471642511578299506
0.540000000000000369,-0.453989322135983309
0.541000000000000369,-0.436662033650928649
0.542000000000000370,-0.419656908104815929
0.543000000000000371,-0.402970215965048173
0.544000000000000372,-0.386598237086073548
0.545000000000000373,-0.370537261581806054
0.546000000000000374,-0.354783590669633164
0.547000000000000375,-0.339333537486578962
0.548000000000000376,-0.324183427878129371
0.549000000000000377,-0.309329601160198642
0.550000000000000377,-0.294768410854749641
0.551000000000000378,-0.280496225399625376
0.552000000000000379,-0.266509428833013207
0.553000000000000380,-0.252804421453108275
0.554000000000000381,-0.239377620453398166
0.555000000000000382,-0.226225460534136946
0.556000000000000383,-0.213344394490394551
0.557000000000000384,-0.200730893777265246
0.558000000000000385,-0.188381449052599570
0.559000000000000385,-0.176292570697825196
0.560000000000000386,-0.164460789317242867
0.561000000000000387,-0.152882656216307644
0.562000000000000388,-0.141554743859314713
0.563000000000000389,-0.130473646306958901
0.564000000000000390,-0.119635979634194006
0.565000000000000391,-0.109038382328842220
0.566000000000000392,-0.098677515671362431
0.567000000000000393,-0.088550064096245634
0.568000000000000393,-0.078652735535401294
0.569000000000000394,-0.068982261744000781
0.570000000000000395,-0.059535398609150879
0.571000000000000396,-0.050308926441817572
0.572000000000000397,-0.041299650252411259
0.573000000000000398,-0.032504400010376099
0.574000000000000399,-0.023920030888251492
0.575000000000000400,-0.015543423490486454
0.576000000000000401,-0.007371484067467546
0.577000000000000401,0.000598855284896915
0.578000000000000402,0.008370636439700147
0.579000000000000403,0.015946875067289062
0.580000000000000404,0.023330560476858567
0.581000000000000405,0.030524655471106405
0.582000000000000406,0.037532096213561586
0.583000000000000407,0.044355792108253703
0.584000000000000408,0.050998625691417596
0.585000000000000409,0.057463452534884538
0.586000000000000409,0.063753101160845371
0.587000000000000410,0.069870372967679964
0.588000000000000411,0.075818042166542129
0.589000000000000412,0.081598855728380520
0.590000000000000413,0.087215533341132717
0.591000000000000414,0.092670767376767008
0.592000000000000415,0.097967222867892750
0.593000000000000416,0.103107537493675766
0.594000000000000417,0.108094321574768476
0.595000000000000417,0.112930158076955764
0.596000000000000418,0.117617602623327905
0.597000000000000419,0.122159183514620476
0.598000000000000420,0.126557401757553034
0.599000000000000421,0.130814731100853343
0.600000000000000422,0.134933618078757783
0.601000000000000423,0.138916482061728019
0.602000000000000424,0.142765715314158520
0.603000000000000425,0.146483683058831193
0.604000000000000425,0.150072723547903075
0.605000000000000426,0.153535148140211047
0.606000000000000427,0.156873241384614281
0.607000000000000428,0.160089261109308073
0.608000000000000429,0.163185438516669418
0.609000000000000430,0.166163978283712294
0.610000000000000431,0.169027058667678282
0.611000000000000432,0.171776831616761438
0.612000000000000433,0.174415422885714377
0.613000000000000433,0.176944932156090362
0.614000000000000434,0.179367433161039452
