# CNT15-NH2-2_CS-72545-AC
# h[nm],U(h)[kJ/mol]
0.200000000000000011,96.896635573696713095
0.201000000000000012,95.907707356146289612
0.202000000000000013,94.435607679673822190
0.203000000000000014,92.776518098314440408
0.204000000000000015,91.086913071195894531
0.205000000000000016,89.438458102456323218
0.206000000000000016,87.854233427799641731
0.207000000000000017,86.331953314392961829
0.208000000000000018,84.858276380058129007
0.209000000000000019,83.417135509869908105
0.210000000000000020,81.994156910086317680
0.211000000000000021,80.578610079432820612
0.212000000000000022,79.163875656607302744
0.213000000000000023,77.747091884372579784
0.214000000000000024,76.328409245160273144
0.215000000000000024,74.910121357989808644
0.216000000000000025,73.495829483449142572
0.217000000000000026,72.089723778321712189
0.218000000000000027,70.696016247468421057
0.219000000000000028,69.318530399151185861
0.220000000000000029,67.960435248253034501
0.221000000000000030,66.624102420952795001
0.222000000000000031,65.311061751652090379
0.223000000000000032,64.022030849570782607
0.224000000000000032,62.756996204958191754
0.225000000000000033,61.515326522886276450
0.226000000000000034,60.295902469670934920
0.227000000000000035,59.097250484557051209
0.228000000000000036,57.917671505583747660
0.229000000000000037,56.755358256271165374
0.230000000000000038,55.608497088298896927
0.231000000000000039,54.475352273392104507
0.232000000000000040,53.354332113941211446
0.233000000000000040,52.244037341785976025
0.234000000000000041,51.143293050869729655
0.235000000000000042,50.051165916317614801
0.236000000000000043,48.966968741751870198
0.237000000000000044,47.890254495609639207
0.238000000000000045,46.820801987466893479
0.239000000000000046,45.758595232446808154
0.240000000000000047,44.703798385273870508
0.241000000000000048,43.656727919453700792
0.242000000000000048,42.617823500403247294
0.243000000000000049,41.587618768742153463
0.244000000000000050,40.566713022254489829
0.245000000000000051,39.555744569966392987
0.246000000000000052,38.555366334546008034
0.247000000000000053,37.566224102933972517
0.248000000000000054,36.588937671278003450
0.249000000000000055,35.624084999172069388
0.250000000000000056,34.672189379278265164
0.251000000000000056,33.733709540396134230
0.252000000000000057,32.809032533266261566
0.253000000000000058,31.898469196932467185
0.254000000000000059,31.002251967290057166
0.255000000000000060,30.120534766455268283
0.256000000000000061,29.253394699787953925
0.257000000000000062,28.400835284885225462
0.258000000000000063,27.562790941870709105
0.259000000000000064,26.739132485238506831
0.260000000000000064,25.929673372942790621
0.261000000000000065,25.134176487107684039
0.262000000000000066,24.352361241586912399
0.263000000000000067,23.583910833719464506
0.264000000000000068,22.828479480242677369
0.265000000000000069,22.085699499818744584
0.266000000000000070,21.355188126511173152
0.267000000000000071,20.636553959429196681
0.268000000000000071,19.929402973358399720
0.269000000000000072,19.233344033312079091
0.270000000000000073,18.547993872442624763
0.271000000000000074,17.872981507576135130
0.272000000000000075,17.207952079756839936
0.273000000000000076,16.552570118631702911
0.274000000000000077,15.906522239321429169
0.275000000000000078,15.269519288687963154
0.276000000000000079,14.641297964714818036
0.277000000000000079,14.021621938169545274
0.278000000000000080,13.410282509934734918
0.279000000000000081,12.807098840487881830
0.280000000000000082,12.211917790104768855
0.281000000000000083,11.624613409568386402
0.282000000000000084,11.045086121602178508
0.283000000000000085,10.473261633018772443
0.284000000000000086,9.909089616784395815
0.285000000000000087,9.352542201942963374
0.286000000000000087,8.803612307704954176
0.287000000000000088,8.262311856068174976
0.288000000000000089,7.728669895169704596
0.289000000000000090,7.202730663235539232
0.290000000000000091,6.684551620554294971
0.291000000000000092,6.174201474400843992
0.292000000000000093,5.671758219320810035
0.293000000000000094,5.177307212691791172
0.294000000000000095,4.690939303033956342
0.295000000000000095,4.212749026175093725
0.296000000000000096,3.742832882106556180
0.297000000000000097,3.281287703209732509
0.298000000000000098,2.828209122502524764
0.299000000000000099,2.383690148658897723
0.300000000000000100,1.947819852798971407
0.301000000000000101,1.520682170433572677
0.302000000000000102,1.102354820479467978
0.303000000000000103,0.692908341933993199
0.304000000000000103,0.292405247613328756
0.305000000000000104,-0.099100706692210633
0.306000000000000105,-0.481565140211258569
0.307000000000000106,-0.854953555692486766
0.308000000000000107,-1.219241742449800769
0.309000000000000108,-1.574416078552452358
0.310000000000000109,-1.920473737223373778
0.311000000000000110,-2.257422802873370937
0.312000000000000111,-2.585282302477928340
0.313000000000000111,-2.904082158198678876
0.314000000000000112,-3.213863067276105490
0.315000000000000113,-3.514676315277484697
0.316000000000000114,-3.806583528783227255
0.317000000000000115,-4.089656373541478374
0.318000000000000116,-4.363976204022430139
0.319000000000000117,-4.629633670165261172
0.320000000000000118,-4.886728286938582855
0.321000000000000119,-5.135367972134815773
0.322000000000000119,-5.375668557594353913
0.323000000000000120,-5.607753278811951070
0.324000000000000121,-5.831752247620037188
0.325000000000000122,-6.047801912373776290
0.326000000000000123,-6.256044509785944285
0.327000000000000124,-6.456627512278113379
0.328000000000000125,-6.649703074431405625
0.329000000000000126,-6.835427481837099251
0.330000000000000127,-7.013960605367921985
0.331000000000000127,-7.185465363615297640
0.332000000000000128,-7.350107195969256324
0.333000000000000129,-7.508053548556463674
0.334000000000000130,-7.659473374999370421
0.335000000000000131,-7.804536653717477179
0.336000000000000132,-7.943413923259012854
0.337000000000000133,-8.076275836931211316
0.338000000000000134,-8.203292737788078881
0.339000000000000135,-8.324634254836690062
0.340000000000000135,-8.440468921138791103
0.341000000000000136,-8.550963814310559741
0.342000000000000137,-8.656284219762879317
0.343000000000000138,-8.756593316875171951
0.344000000000000139,-8.852051888159014226
0.345000000000000140,-8.942818051341628660
0.346000000000000141,-9.029047014185213271
0.347000000000000142,-9.110890851754199105
0.348000000000000143,-9.188498305749671857
0.349000000000000143,-9.262014605446776017
0.350000000000000144,-9.331581309697719817
0.351000000000000145,-9.397336169398251116
0.352000000000000146,-9.459413009760185176
0.353000000000000147,-9.517941631684564641
0.354000000000000148,-9.573047731490493817
0.355000000000000149,-9.624852838221796603
0.356000000000000150,-9.673474267727794285
0.357000000000000151,-9.719025092694730361
0.358000000000000151,-9.761614127790403828
0.359000000000000152,-9.801345929075996111
0.360000000000000153,-9.838320806835429977
0.361000000000000154,-9.872634850973074805
0.362000000000000155,-9.904379968135724965
0.363000000000000156,-9.933643929723052324
0.364000000000000157,-9.960510429962383228
0.365000000000000158,-9.985059153238751151
0.366000000000000159,-10.007365849887872145
0.367000000000000159,-10.027502419679814594
0.368000000000000160,-10.045537002242278746
0.369000000000000161,-10.061534073695911573
0.370000000000000162,-10.075554548798571375
0.371000000000000163,-10.087655887921538778
0.372000000000000164,-10.097892208207218445
0.373000000000000165,-10.106314398285729084
0.374000000000000166,-10.112970235955877740
0.375000000000000167,-10.117904508264187413
0.376000000000000167,-10.121159133444885825
0.377000000000000168,-10.122773284212140510
0.378000000000000169,-10.122783511924595246
0.379000000000000170,-10.121223871170943909
0.380000000000000171,-10.118126044353193294
0.381000000000000172,-10.113519465872196079
0.382000000000000173,-10.107431445547220505
0.383000000000000174,-10.099887290928162287
0.384000000000000175,-10.090910428184784564
0.385000000000000175,-10.080522521282926363
0.386000000000000176,-10.068743589182275855
0.387000000000000177,-10.055592120813665602
0.388000000000000178,-10.041085187617552421
0.389000000000000179,-10.025238553446603973
0.390000000000000180,-10.008066781657291244
0.391000000000000181,-9.989583339235242221
0.392000000000000182,-9.969800697818865132
0.393000000000000183,-9.948730431503994609
0.394000000000000183,-9.926383311330290837
0.395000000000000184,-9.902769396366494448
0.396000000000000185,-9.877898121327778114
0.397000000000000186,-9.851778380673186675
0.398000000000000187,-9.824418609145201486
0.399000000000000188,-9.795826858726998765
0.400000000000000189,-9.766010872004786236
0.401000000000000190,-9.734978151934754464
0.402000000000000191,-9.702736028024506965
0.403000000000000191,-9.669291718948979764
0.404000000000000192,-9.634652391630087465
0.405000000000000193,-9.598825216817749251
0.406000000000000194,-9.561817421217838842
0.407000000000000195,-9.523636336219681198
0.408000000000000196,-9.484289443282113652
0.409000000000000197,-9.443784416043069285
0.410000000000000198,-9.402129159222957000
0.411000000000000199,-9.359331844396495015
0.412000000000000199,-9.315400942712155796
0.413000000000000200,-9.270345254641810584
0.414000000000000201,-9.224173936846284505
0.415000000000000202,-9.176896526245281294
0.416000000000000203,-9.128522961382339318
0.417000000000000204,-9.079063601177303156
0.418000000000000205,-9.028529241160200058
0.419000000000000206,-8.976931127281620348
0.420000000000000207,-8.924280967395123554
0.421000000000000207,-8.870590940508105149
0.422000000000000208,-8.815873703897004532
0.423000000000000209,-8.760142398183292656
0.424000000000000210,-8.703410650465743359
0.425000000000000211,-8.645692575603977303
0.426000000000000212,-8.587002775747624383
0.427000000000000213,-8.527356338204004516
0.428000000000000214,-8.466768831736313672
0.429000000000000214,-8.405256301382742379
0.430000000000000215,-8.342835261885316100
0.431000000000000216,-8.279522689815838277
0.432000000000000217,-8.215336014484133642
0.433000000000000218,-8.150293107712140994
0.434000000000000219,-8.084412272555294265
0.435000000000000220,-8.017712231050616367
0.436000000000000221,-7.950212111068603704
0.437000000000000222,-7.881931432343940003
0.438000000000000222,-7.812890091757800803
0.439000000000000223,-7.743108347942045278
0.440000000000000224,-7.672606805273474606
0.441000000000000225,-7.601406397323683173
0.442000000000000226,-7.529528369828092593
0.443000000000000227,-7.456994263234824061
0.444000000000000228,-7.383825894892202868
0.445000000000000229,-7.310045340930986235
0.446000000000000230,-7.235674917895080327
0.447000000000000230,-7.160737164172412683
0.448000000000000231,-7.085254821274946657
0.449000000000000232,-7.009250815014692826
0.450000000000000233,-6.932748236620557059
0.451000000000000234,-6.855770323837987235
0.452000000000000235,-6.778340442051986159
0.453000000000000236,-6.700482065471176085
0.454000000000000237,-6.622218758409077921
0.455000000000000238,-6.543574156696200461
0.456000000000000238,-6.464571949254957595
0.457000000000000239,-6.385235859867071539
0.458000000000000240,-6.305589629161604925
0.459000000000000241,-6.225656996849363800
0.460000000000000242,-6.145461684228280319
0.461000000000000243,-6.065027376981886320
0.462000000000000244,-5.984377708292031528
0.463000000000000245,-5.903536242284500801
0.464000000000000246,-5.822526457825519586
0.465000000000000246,-5.741371732684822149
0.466000000000000247,-5.660095328079861154
0.467000000000000248,-5.578720373614189931
0.468000000000000249,-5.497269852621800013
0.469000000000000250,-5.415766587927615561
0.470000000000000251,-5.334233228033370189
0.471000000000000252,-5.252692233736583560
0.472000000000000253,-5.171165865189556676
0.473000000000000254,-5.089676169403751338
0.474000000000000254,-5.008244968204259351
0.475000000000000255,-4.926893846637769414
0.476000000000000256,-4.845644141836642049
0.477000000000000257,-4.764516932340780109
0.478000000000000258,-4.683533027877913923
0.479000000000000259,-4.602712959602461851
0.480000000000000260,-4.522076970792004325
0.481000000000000261,-4.441645007999799333
0.482000000000000262,-4.361436712661211246
0.483000000000000262,-4.281471413151072269
0.484000000000000263,-4.201768117288446902
0.485000000000000264,-4.122345505284803480
0.486000000000000265,-4.043221923130934314
0.487000000000000266,-3.964415376417482317
0.488000000000000267,-3.885943524583586939
0.489000000000000268,-3.807823675587608925
0.490000000000000269,-3.730072780993512360
0.491000000000000270,-3.652707431466251986
0.492000000000000270,-3.575743852668939127
0.493000000000000271,-3.499197901554532031
0.494000000000000272,-3.423085063044353227
0.495000000000000273,-3.347420447085397655
0.496000000000000274,-3.272218786078545438
0.497000000000000275,-3.197494432669111486
0.498000000000000276,-3.123261357891366607
0.499000000000000277,-3.049533149658382847
0.500000000000000222,-2.976323011588285716
0.501000000000000334,-2.903643762158210961
0.502000000000000224,-2.831507834176898886
0.503000000000000336,-2.759927274566769562
0.504000000000000226,-2.688913744446682408
0.505000000000000338,-2.618478519505798907
0.506000000000000227,-2.548632490659942462
0.507000000000000339,-2.479386164980712959
0.508000000000000229,-2.410749666888751808
0.509000000000000341,-2.342732739601517178
0.510000000000000231,-2.275344746827047793
0.511000000000000343,-2.208594674694055904
0.512000000000000233,-2.142491133909928180
0.513000000000000345,-2.077042362137250020
0.514000000000000234,-2.012256226580502183
0.515000000000000346,-1.948140226773608985
0.516000000000000236,-1.884701497560290706
0.517000000000000348,-1.821946812258154580
0.518000000000000238,-1.759882585998511662
0.519000000000000350,-1.698514879233222530
0.520000000000000240,-1.637849401400719440
0.521000000000000352,-1.577891514742899570
0.522000000000000242,-1.518646238265122905
0.523000000000000353,-1.460118251831357350
0.524000000000000243,-1.402311900387035015
0.525000000000000355,-1.345231198301899189
0.526000000000000245,-1.288879833825737675
0.527000000000000357,-1.233261173649498721
0.528000000000000247,-1.178378267565126425
0.529000000000000359,-1.124233853216840995
0.530000000000000249,-1.070830360937491177
0.531000000000000361,-1.018169918663124784
0.532000000000000250,-0.966254356919653112
0.533000000000000362,-0.915085213875074799
0.534000000000000252,-0.864663740451486418
0.535000000000000364,-0.814990905490690531
0.536000000000000254,-0.766067400967945566
0.537000000000000366,-0.717893647247907496
0.538000000000000256,-0.670469798377788750
0.539000000000000368,-0.623795747411997281
0.540000000000000258,-0.577871131763644907
0.541000000000000369,-0.532695338577483968
0.542000000000000259,-0.488267510120002524
0.543000000000000371,-0.444586549181611279
0.544000000000000261,-0.401651124486774147
0.545000000000000373,-0.359459676107594328
0.546000000000000263,-0.318010420876838396
0.547000000000000375,-0.277301357796159498
0.548000000000000265,-0.237330273436052563
0.549000000000000377,-0.198094747323365433
0.550000000000000266,-0.159592157313221517
0.551000000000000378,-0.121819684941634976
0.552000000000000268,-0.084774320755714852
0.553000000000000380,-0.048452869618204428
0.554000000000000270,-0.012851955983469155
0.555000000000000382,0.022031970858123927
0.556000000000000272,0.056202631569933423
0.557000000000000384,0.089663911595778176
0.558000000000000274,0.122419856025870022
0.559000000000000385,0.154474664504617637
0.560000000000000275,0.185832686182258178
0.561000000000000387,0.216498414712691073
0.562000000000000277,0.246476483299372134
0.563000000000000389,0.275771659791262391
0.564000000000000279,0.304388841830553758
0.565000000000000391,0.332333052053947198
0.566000000000000281,0.359609433348987040
0.567000000000000393,0.386223244167018032
0.568000000000000282,0.412179853894026837
0.569000000000000394,0.437484738280854990
0.570000000000000284,0.462143474933749077
0.571000000000000396,0.486161738866577153
0.572000000000000286,0.509545298115517964
0.573000000000000398,0.532300009417389530
0.574000000000000288,0.554431813952260488
0.575000000000000400,0.575946733151228019
0.576000000000000290,0.596850864570052098
0.577000000000000401,0.617150377829235652
0.578000000000000291,0.636851510621103012
0.579000000000000403,0.655960564784394462
0.580000000000000293,0.674483902446713302
0.581000000000000405,0.692427942235261384
0.582000000000000295,0.709799155556042560
0.583000000000000407,0.726604062941867412
0.584000000000000297,0.742849230469216470
0.585000000000000409,0.758541266244142642
0.586000000000000298,0.773686816957223633
0.587000000000000410,0.788292564507588112
0.588000000000000300,0.802365222695931024
0.589000000000000412,0.815911533986490745
0.590000000000000302,0.828938266337761354
0.591000000000000414,0.841452210101775400
0.592000000000000304,0.853460174991780840
0.593000000000000416,0.864968987117983312
0.594000000000000306,0.875985486091029886
0.595000000000000417,0.886516522192962730
0.596000000000000307,0.896568953615208719
0.597000000000000419,0.906149643763182744
0.598000000000000309,0.915265458627069983
0.599000000000000421,0.923923264218375451
0.600000000000000311,0.932129924071596450
0.601000000000000423,0.939892296810643679
0.602000000000000313,0.947217233779301004
0.603000000000000425,0.954111576735327538
0.604000000000000314,0.960582155607359711
0.605000000000000426,0.966635786314240852
0.606000000000000316,0.972279268645929617
0.607000000000000428,0.977519384205453590
0.608000000000000318,0.982362894411151877
0.609000000000000430,0.986816538558553669
0.610000000000000320,0.990887031941152685
0.611000000000000432,0.994581064029360973
0.612000000000000322,0.997905296706918632
0.613000000000000433,1.000866362563969325
0.614000000000000323,1.003470863246080480
0.615000000000000435,1.005725367858400165
0.616000000000000325,1.007636411424208678
0.617000000000000437,1.009210493397041608
0.618000000000000327,1.010454076225590470
0.619000000000000439,1.011373583970622603
0.620000000000000329,1.011975400973053496
0.621000000000000441,1.012265870572381932
0.622000000000000330,1.012251293874704583
0.623000000000000442,1.011937928569428546
0.624000000000000332,1.011331987793933296
0.625000000000000444,1.010439639045268789
0.626000000000000334,1.009267003138176744
0.627000000000000446,1.007820153208497604
0.628000000000000336,1.006105113761230241
0.629000000000000448,1.004127859762361519
0.630000000000000338,1.001894315773675936
0.631000000000000449,0.999410355129696670
0.632000000000000339,0.996681799155992310
0.633000000000000451,0.993714416427951663
0.634000000000000341,0.990513922069312214
0.635000000000000453,0.987085977089521505
0.636000000000000343,0.983436187759275215
0.637000000000000455,0.979570105023252480
0.638000000000000345,0.975493223949417398
0.639000000000000457,0.971210983213994239
0.640000000000000346,0.966728764621383574
0.641000000000000458,0.962051892658200125
0.642000000000000348,0.957185634080719661
0.643000000000000460,0.952135197534892841
0.644000000000000350,0.946905733208256550
0.645000000000000462,0.941502332512887952
0.646000000000000352,0.935930027798770325
0.647000000000000464,0.930193792096733141
0.648000000000000353,0.924298538890307442
0.649000000000000465,0.918249121915724942
0.650000000000000355,0.912050334989401357
0.651000000000000467,0.905706911862140140
0.652000000000000357,0.899223526099411585
0.653000000000000469,0.892604790986972874
0.654000000000000359,0.885855259461195366
0.655000000000000471,0.878979424063398462
0.656000000000000361,0.871981716917533900
0.657000000000000473,0.864866509730563893
0.658000000000000362,0.857638113814904957
0.659000000000000474,0.850300780132293377
0.660000000000000364,0.842858699358437491
0.661000000000000476,0.835316001967838062
0.662000000000000366,0.827676758338223406
0.663000000000000478,0.819944978873889729
0.664000000000000368,0.812124614147498702
0.665000000000000480,0.804219555059612512
