# CNT15-NH2-2_CAFF-AC
# h[nm],U(h)[kJ/mol]
0.149999999999999994,155.095392242454096277
0.150999999999999995,152.320833006486822114
0.151999999999999996,149.805240332013738680
0.152999999999999997,147.420169768630501039
0.153999999999999998,145.093877198073926138
0.154999999999999999,142.791096893850237848
0.156000000000000000,140.498495447362017785
0.157000000000000001,138.214721020650443961
0.158000000000000002,135.943964008673134458
0.159000000000000002,133.692070745209434790
0.160000000000000003,131.464425405554010240
0.161000000000000004,129.264992523458175810
0.162000000000000005,127.096071693296082117
0.163000000000000006,124.958448356450773531
0.164000000000000007,122.851728683453444546
0.165000000000000008,120.774724813005292390
0.166000000000000009,118.725813054035967298
0.167000000000000010,116.703226444912658621
0.168000000000000010,114.705268388061199403
0.169000000000000011,112.730449481425992531
0.170000000000000012,110.777558048671977531
0.171000000000000013,108.845678497870579804
0.172000000000000014,106.934172225959713387
0.173000000000000015,105.042634579368495906
0.174000000000000016,103.170839252284423537
0.175000000000000017,101.318679037354741013
0.176000000000000018,99.486109408160459111
0.177000000000000018,97.673099222149218690
0.178000000000000019,95.879590992155357299
0.179000000000000020,94.105471717253109887
0.180000000000000021,92.350554177193004080
0.181000000000000022,90.614567840647481489
0.182000000000000023,88.897158064875270611
0.183000000000000024,87.197892018426571781
0.184000000000000025,85.516269686323454380
0.185000000000000026,83.851738371161275154
0.186000000000000026,82.203709243007907048
0.187000000000000027,80.571574682378596322
0.188000000000000028,78.954725377579464407
0.189000000000000029,77.352566360464294348
0.190000000000000030,75.764531378863054556
0.191000000000000031,74.190095200045732327
0.192000000000000032,72.628783611795398656
0.193000000000000033,71.080181033137677105
0.194000000000000034,69.543935764888118456
0.195000000000000034,68.019763001892584953
0.196000000000000035,66.507445796166521745
0.197000000000000036,65.006834205774978841
0.198000000000000037,63.517842891233705416
0.199000000000000038,62.040447432559105323
0.200000000000000039,60.574679638869341147
0.201000000000000040,59.120622111453180025
0.202000000000000041,57.678402303026587106
0.203000000000000042,56.248186292718116874
0.204000000000000042,54.830172470063530454
0.205000000000000043,53.424585293533638719
0.206000000000000044,52.031669261131824555
0.207000000000000045,50.651683203382091847
0.208000000000000046,49.284894983323404460
0.209000000000000047,47.931576664459548454
0.210000000000000048,46.592000186330139400
0.211000000000000049,45.266433568656971431
0.212000000000000050,43.955137648942759654
0.213000000000000050,42.658363344933782457
0.214000000000000051,41.376349422386070387
0.215000000000000052,40.109320739948124412
0.216000000000000053,38.857486936488385254
0.217000000000000054,37.621041521636357174
0.218000000000000055,36.400161327442177139
0.219000000000000056,35.195006277661704530
0.220000000000000057,34.005719431009488574
0.221000000000000058,32.832427255588882531
0.222000000000000058,31.675240093389742668
0.223000000000000059,30.534252776072445812
0.224000000000000060,29.409545356056764120
0.225000000000000061,28.301183920064865163
0.226000000000000062,27.209221455601806383
0.227000000000000063,26.133698744285766224
0.228000000000000064,25.074645259375323292
0.229000000000000065,24.032080048203972922
0.230000000000000066,23.006012583469136246
0.231000000000000066,21.996443570382151478
0.232000000000000067,21.003365699538445455
0.233000000000000068,20.026764337984996445
0.234000000000000069,19.066618153334225383
0.235000000000000070,18.122899667890191466
0.236000000000000071,17.195575741615581222
0.237000000000000072,16.284607984378602907
0.238000000000000073,15.389953099288575800
0.239000000000000073,14.511563160069897549
0.240000000000000074,13.649385826345701744
0.241000000000000075,12.803364501428671218
0.242000000000000076,11.973438437757838670
0.243000000000000077,11.159542795496335543
0.244000000000000078,10.361608660035711793
0.245000000000000079,9.579563024251672942
0.246000000000000080,8.813328741344923500
0.247000000000000081,8.062824453990581119
0.248000000000000081,7.327964505331124201
0.249000000000000082,6.608658837091501148
0.250000000000000111,5.904812879785525048
0.251000000000000112,5.216327439632720164
0.252000000000000113,4.543098586422715357
0.253000000000000114,3.885017546165681956
0.254000000000000115,3.241970601952039566
0.255000000000000115,2.613839006029799350
0.256000000000000116,2.000498905692308149
0.257000000000000117,1.401821285162908826
0.258000000000000118,0.817671925269928601
0.259000000000000119,0.247911382327568347
0.260000000000000120,-0.307605012719729731
0.261000000000000121,-0.849027134166686848
0.262000000000000122,-1.376510020021002756
0.263000000000000123,-1.890213808958259190
0.264000000000000123,-2.390303655897588531
0.265000000000000124,-2.876949626572700591
0.266000000000000125,-3.350326571683814425
0.267000000000000126,-3.810613981400356121
0.268000000000000127,-4.257995821145314608
0.269000000000000128,-4.692660349727789004
0.270000000000000129,-5.114799921004442140
0.271000000000000130,-5.524610770343121757
0.272000000000000131,-5.922292787233363498
0.273000000000000131,-6.308049275442169090
0.274000000000000132,-6.682086702148748891
0.275000000000000133,-7.044614437511990346
0.276000000000000134,-7.395844486129627526
0.277000000000000135,-7.735991211839224668
0.278000000000000136,-8.065271057292461521
0.279000000000000137,-8.383902259703134519
0.280000000000000138,-8.692104564130103128
0.281000000000000139,-8.990098935609365682
0.282000000000000139,-9.278107271395199973
0.283000000000000140,-9.556352114511042828
0.284000000000000141,-9.825056369746206997
0.285000000000000142,-10.084443023167382947
0.286000000000000143,-10.334734866142891718
0.287000000000000144,-10.576154224805421222
0.288000000000000145,-10.808922695806105096
0.289000000000000146,-11.033260889137524785
0.290000000000000147,-11.249388178730946208
0.291000000000000147,-11.457522461458504281
0.292000000000000148,-11.657879925100303353
0.293000000000000149,-11.850674825764782483
0.294000000000000150,-12.036119275183121857
0.295000000000000151,-12.214423038231659646
0.296000000000000152,-12.385793340972691468
0.297000000000000153,-12.550434689442877101
0.298000000000000154,-12.708548699360473933
0.299000000000000155,-12.860333936867197835
0.300000000000000155,-13.005985770368786447
0.301000000000000156,-13.145696233488967763
0.302000000000000157,-13.279653899106628856
0.303000000000000158,-13.408043764402716391
0.304000000000000159,-13.531047146804912273
0.305000000000000160,-13.648841590681495717
0.306000000000000161,-13.761600784603299275
0.307000000000000162,-13.869494488962681444
0.308000000000000163,-13.972688473711357915
0.309000000000000163,-14.071344465955226255
0.310000000000000164,-14.165620107122904869
0.311000000000000165,-14.255668919406133455
0.312000000000000166,-14.341640281154388603
0.313000000000000167,-14.423679410892173536
0.314000000000000168,-14.501927359616470170
0.315000000000000169,-14.576521011022487428
0.316000000000000170,-14.647593089299203228
0.317000000000000171,-14.715272174130632266
0.318000000000000171,-14.779682722535667949
0.319000000000000172,-14.840945097177955958
0.320000000000000173,-14.899175600776720430
0.321000000000000174,-14.954486516251137118
0.322000000000000175,-15.006986152233457332
0.323000000000000176,-15.056778893589903845
0.324000000000000177,-15.103965256593458122
0.325000000000000178,-15.148641948398255508
0.326000000000000179,-15.190901930472742620
0.327000000000000179,-15.230834485655700306
0.328000000000000180,-15.268525288507913018
0.329000000000000181,-15.304056478641356875
0.330000000000000182,-15.337506736716449041
0.331000000000000183,-15.368951362808932259
0.332000000000000184,-15.398462356857004707
0.333000000000000185,-15.426108500910780563
0.334000000000000186,-15.451955442916489147
0.335000000000000187,-15.476065781778753916
0.336000000000000187,-15.498499153455862043
0.337000000000000188,-15.519312317853158234
0.338000000000000189,-15.538559246292043881
0.339000000000000190,-15.556291209342180792
0.340000000000000191,-15.572556864816087696
0.341000000000000192,-15.587402345736336429
0.342000000000000193,-15.600871348096129410
0.343000000000000194,-15.613005218245092465
0.344000000000000195,-15.623843039742103755
0.345000000000000195,-15.633421719528026728
0.346000000000000196,-15.641776073280436066
0.347000000000000197,-15.648938909823012722
0.348000000000000198,-15.654941114471233377
0.349000000000000199,-15.659811731205673269
0.350000000000000200,-15.663578043572988108
0.351000000000000201,-15.666265654223519022
0.352000000000000202,-15.667898563002548684
0.353000000000000203,-15.668499243520756181
0.354000000000000203,-15.668088718136866433
0.355000000000000204,-15.666686631292838783
0.356000000000000205,-15.664311321149511969
0.357000000000000206,-15.660979889477104621
0.358000000000000207,-15.656708269761375973
0.359000000000000208,-15.651511293492827548
0.360000000000000209,-15.645402754611930973
0.361000000000000210,-15.638395472088873817
0.362000000000000210,-15.630501350621983647
0.363000000000000211,-15.621731439443369283
0.364000000000000212,-15.612095989225670323
0.365000000000000213,-15.601604507087699858
0.366000000000000214,-15.590265809701168820
0.367000000000000215,-15.578088074504446325
0.368000000000000216,-15.565078889033065579
0.369000000000000217,-15.551245298379726023
0.370000000000000218,-15.536593850800164418
0.371000000000000218,-15.521130641483519952
0.372000000000000219,-15.504861354509042570
0.373000000000000220,-15.487791303013171529
0.374000000000000221,-15.469925467593176549
0.375000000000000222,-15.451268532975612757
0.376000000000000223,-15.431824922979979320
0.377000000000000224,-15.411598833809085463
0.378000000000000225,-15.390594265699615306
0.379000000000000226,-15.368815052967173429
0.380000000000000226,-15.346264892482002651
0.381000000000000227,-15.322947370611482043
0.382000000000000228,-15.298865988667538218
0.383000000000000229,-15.274024186896918209
0.384000000000000230,-15.248425367053233259
0.385000000000000231,-15.222072913590318777
0.386000000000000232,-15.194970213516365121
0.387000000000000233,-15.167120674948924020
0.388000000000000234,-15.138527744410785303
0.389000000000000234,-15.109194922906993952
0.390000000000000235,-15.079125780822971947
0.391000000000000236,-15.048323971683890576
0.392000000000000237,-15.016793244814930830
0.393000000000000238,-14.984537456942192080
0.394000000000000239,-14.951560582773186781
0.395000000000000240,-14.917866724596047234
0.396000000000000241,-14.883460120935604110
0.397000000000000242,-14.848345154304277926
0.398000000000000242,-14.812526358085273515
0.399000000000000243,-14.776008422584618884
0.400000000000000244,-14.738796200288401650
0.401000000000000245,-14.700894710360653761
0.402000000000000246,-14.662309142416606988
0.403000000000000247,-14.623044859605588641
0.404000000000000248,-14.583107401036826900
0.405000000000000249,-14.542502483580904027
0.406000000000000250,-14.501236003078593839
0.407000000000000250,-14.459314034988285158
0.408000000000000251,-14.416742834502244364
0.409000000000000252,-14.373528836161181488
0.410000000000000253,-14.329678652995815114
0.411000000000000254,-14.285199075223351528
0.412000000000000255,-14.240097068525788160
0.413000000000000256,-14.194379771936501911
0.414000000000000257,-14.148054495360241845
0.415000000000000258,-14.101128716751400560
0.416000000000000258,-14.053610078974159592
0.417000000000000259,-14.005506386367590821
0.418000000000000260,-13.956825601037866846
0.419000000000000261,-13.907575838898960541
0.420000000000000262,-13.857765365482450193
0.421000000000000263,-13.807402591536344971
0.422000000000000264,-13.756496068431854241
0.423000000000000265,-13.705054483396517995
0.424000000000000266,-13.653086654591399807
0.425000000000000266,-13.600601526048967216
0.426000000000000267,-13.547608162488018024
0.427000000000000268,-13.494115744021007330
0.428000000000000269,-13.440133560768611432
0.429000000000000270,-13.385671007395615106
0.430000000000000271,-13.330737577581516007
0.431000000000000272,-13.275342858438843763
0.432000000000000273,-13.219496524891138023
0.433000000000000274,-13.163208334022465706
0.434000000000000274,-13.106488119409197779
0.435000000000000275,-13.049345785444723234
0.436000000000000276,-12.991791301666845371
0.437000000000000277,-12.933834697097163158
0.438000000000000278,-12.875486054601333663
0.439000000000000279,-12.816755505278559113
0.440000000000000280,-12.757653222887849864
0.441000000000000281,-12.698189418318740707
0.442000000000000282,-12.638374334113073871
0.443000000000000282,-12.578218239044337778
0.444000000000000283,-12.517731422760610016
0.445000000000000284,-12.456924190496630800
0.446000000000000285,-12.395806857860069528
0.447000000000000286,-12.334389745697091456
0.448000000000000287,-12.272683175041212422
0.449000000000000288,-12.210697462149894932
0.450000000000000289,-12.148442913632303330
0.451000000000000290,-12.085929821671768991
0.452000000000000290,-12.023168459346020853
0.453000000000000291,-11.960169076047851178
0.454000000000000292,-11.896941893008802893
0.455000000000000293,-11.833497098928010161
0.456000000000000294,-11.769844845708117731
0.457000000000000295,-11.705995244300058999
0.458000000000000296,-11.641958360657929106
0.459000000000000297,-11.577744211805411467
0.460000000000000298,-11.513362762014491381
0.461000000000000298,-11.448823919097453228
0.462000000000000299,-11.384137530812584060
0.463000000000000300,-11.319313381384024098
0.464000000000000301,-11.254361188136014604
0.465000000000000302,-11.189290598241557362
0.466000000000000303,-11.124111185585300987
0.467000000000000304,-11.058832447740517324
0.468000000000000305,-10.993463803059659867
0.469000000000000306,-10.928014587877928676
0.470000000000000306,-10.862494053829388818
0.471000000000000307,-10.796911365274477035
0.472000000000000308,-10.731275596838399267
0.473000000000000309,-10.665595731059124063
0.474000000000000310,-10.599880656144019753
0.475000000000000311,-10.534139163833845743
0.476000000000000312,-10.468379947373014360
0.477000000000000313,-10.402611599584499658
0.478000000000000314,-10.336842611048158602
0.479000000000000314,-10.271081368381029364
0.480000000000000315,-10.205336152617771717
0.481000000000000316,-10.139615137690068281
0.482000000000000317,-10.073926389002926030
0.483000000000000318,-10.008277862106471190
0.484000000000000319,-9.942677401461327946
0.485000000000000320,-9.877132739295941377
0.486000000000000321,-9.811651494553954578
0.487000000000000322,-9.746241171929810321
0.488000000000000322,-9.680909160990719187
0.489000000000000323,-9.615662735383239124
0.490000000000000324,-9.550509052122375664
0.491000000000000325,-9.485455150961479731
0.492000000000000326,-9.420507953840836279
0.493000000000000327,-9.355674264413291752
0.494000000000000328,-9.290960767644651952
0.495000000000000329,-9.226374029487255157
0.496000000000000330,-9.161920496624516019
0.497000000000000330,-9.097606496284752708
0.498000000000000331,-9.033438236122087517
0.499000000000000332,-8.969421804162870160
0.500000000000000333,-8.905563168815415764
0.501000000000000334,-8.841868178941252765
0.502000000000000335,-8.778342563986091918
0.503000000000000336,-8.714991934168541121
0.504000000000000337,-8.651821780724761268
0.505000000000000338,-8.588837476207221044
0.506000000000000338,-8.526044274835754777
0.507000000000000339,-8.463447312899090136
0.508000000000000340,-8.401051609205072879
0.509000000000000341,-8.338862065577959726
0.510000000000000342,-8.276883467400839578
0.511000000000000343,-8.215120484201678508
0.512000000000000344,-8.153577670281148215
0.513000000000000345,-8.092259465380708505
0.514000000000000346,-8.031170195389275790
0.515000000000000346,-7.970314073086832707
0.516000000000000347,-7.909695198923452963
0.517000000000000348,-7.849317561832225287
0.518000000000000349,-7.789185040074419142
0.519000000000000350,-7.729301402115622111
0.520000000000000351,-7.669670307531160525
0.521000000000000352,-7.610295307939560772
0.522000000000000353,-7.551179847962524505
0.523000000000000353,-7.492327266210041969
0.524000000000000354,-7.433740796289472819
0.525000000000000355,-7.375423567837016137
0.526000000000000356,-7.317378607570470983
0.527000000000000357,-7.259608840362041349
0.528000000000000358,-7.202117090329747562
0.529000000000000359,-7.144906081946601262
0.530000000000000360,-7.087978441165974530
0.531000000000000361,-7.031336696562371813
0.532000000000000361,-6.974983280486273252
0.533000000000000362,-6.918920530232066213
0.534000000000000363,-6.863150689218000089
0.535000000000000364,-6.807675908177104773
0.536000000000000365,-6.752498246358149103
0.537000000000000366,-6.697619672735598328
0.538000000000000367,-6.643042067227623804
0.539000000000000368,-6.588767221921406403
0.540000000000000369,-6.534796842304579911
0.541000000000000369,-6.481132548502240631
0.542000000000000370,-6.427775876518469822
0.543000000000000371,-6.374728279481670867
0.544000000000000372,-6.321991128892937795
0.545000000000000373,-6.269565715876671774
0.546000000000000374,-6.217453252432699529
0.547000000000000375,-6.165654872689204424
0.548000000000000376,-6.114171634155839641
0.549000000000000377,-6.063004518976295110
0.550000000000000377,-6.012154435179659195
0.551000000000000378,-5.961622217930047540
0.552000000000000379,-5.911408630773882678
0.553000000000000380,-5.861514366884197358
0.554000000000000381,-5.811940050301446448
0.555000000000000382,-5.762686237170408177
0.556000000000000383,-5.713753416972403798
0.557000000000000384,-5.665142013752697991
0.558000000000000385,-5.616852387342292197
0.559000000000000385,-5.568884834573878173
0.560000000000000386,-5.521239590491441973
0.561000000000000387,-5.473916829553112429
0.562000000000000388,-5.426916666826859803
0.563000000000000389,-5.380239159178715980
0.564000000000000390,-5.333884306453095192
0.565000000000000391,-5.287852052644925749
0.566000000000000392,-5.242142287063249029
0.567000000000000393,-5.196754845486008634
0.568000000000000393,-5.151689511305677094
0.569000000000000394,-5.106946016665487420
0.570000000000000395,-5.062524043586082101
0.571000000000000396,-5.018423225082120354
0.572000000000000397,-4.974643146268898697
0.573000000000000398,-4.931183345458487466
0.574000000000000399,-4.888043315245437448
0.575000000000000400,-4.845222503581606333
0.576000000000000401,-4.802720314840142279
0.577000000000000401,-4.760536110868391901
0.578000000000000402,-4.718669212029467985
0.579000000000000403,-4.677118898232488498
0.580000000000000404,-4.635884409951311902
0.581000000000000405,-4.594964949231565399
0.582000000000000406,-4.554359680685985623
0.583000000000000407,-4.514067732477824890
0.584000000000000408,-4.474088197292398483
0.585000000000000409,-4.434420133296555377
0.586000000000000409,-4.395062565086043094
0.587000000000000410,-4.356014484620766680
0.588000000000000411,-4.317274852147761521
0.589000000000000412,-4.278842597111992774
0.590000000000000413,-4.240716619054770931
0.591000000000000414,-4.202895788499899865
0.592000000000000415,-4.165378947827483636
0.593000000000000416,-4.128164912135322773
0.594000000000000417,-4.091252470087946236
0.595000000000000417,-4.054640384753389171
0.596000000000000418,-4.018327394427382515
0.597000000000000419,-3.982312213445438065
0.598000000000000420,-3.946593532982397790
0.599000000000000421,-3.911170021839798672
0.600000000000000422,-3.876040327220889647
0.601000000000000423,-3.841203075493429431
0.602000000000000424,-3.806656872940271885
0.603000000000000425,-3.772400306497772249
0.604000000000000425,-3.738431944482102587
0.605000000000000426,-3.704750337303468033
0.606000000000000427,-3.671354018168417888
0.607000000000000428,-3.638241503770021978
0.608000000000000429,-3.605411294966427427
