# CNT15-NH2-2_HUMICACID-ANION-AC
# h[nm],U(h)[kJ/mol]
0.200000000000000011,127.234508088873369047
0.201000000000000012,124.505429183529784609
0.202000000000000013,122.074323380928788652
0.203000000000000014,119.850811442216325986
0.204000000000000015,117.769439194512273161
0.205000000000000016,115.783976690366401385
0.206000000000000016,113.862730035935172168
0.207000000000000017,111.984761009271167609
0.208000000000000018,110.136895955409343628
0.209000000000000019,108.311404089541198914
0.210000000000000020,106.504231506797324869
0.211000000000000021,104.713687590260832394
0.212000000000000022,102.939492892738414298
0.213000000000000023,101.182110471920935879
0.214000000000000024,99.442295156207379137
0.215000000000000024,97.720806764260998989
0.216000000000000025,96.018243612130945053
0.217000000000000026,94.334961610163318824
0.218000000000000027,92.671051884326999470
0.219000000000000028,91.026356229223850391
0.220000000000000029,89.400504928282572337
0.221000000000000030,87.792965694033028967
0.222000000000000031,86.203095825843121247
0.223000000000000032,84.630192287513892779
0.224000000000000032,83.073536396371707724
0.225000000000000033,81.532431300148004993
0.226000000000000034,80.006231495531963560
0.227000000000000035,78.494364396731072020
0.228000000000000036,76.996344464606153224
0.229000000000000037,75.511780716024446747
0.230000000000000038,74.040378597431782737
0.231000000000000039,72.581937265458321917
0.232000000000000040,71.136343301838195430
0.233000000000000040,69.703561824521287349
0.234000000000000041,68.283625860433019739
0.235000000000000042,66.876624732142204266
0.236000000000000043,65.482692091216392782
0.237000000000000044,64.101994112772544554
0.238000000000000045,62.734718253787512765
0.239000000000000046,61.381062875405788759
0.240000000000000047,60.041227938639124773
0.241000000000000048,58.715406904333107718
0.242000000000000048,57.403779902138388991
0.243000000000000049,56.106508179000329051
0.244000000000000050,54.823729794554687089
0.245000000000000051,53.555556497732162313
0.246000000000000052,52.302071694693722748
0.247000000000000053,51.063329401734158353
0.248000000000000054,49.839354066845068303
0.249000000000000055,48.630141139100572900
0.250000000000000056,47.435658264896233050
0.251000000000000056,46.255846993398776590
0.252000000000000057,45.090624879531326030
0.253000000000000058,43.939887880705455814
0.254000000000000059,42.803512952702085670
0.255000000000000060,41.681360760085667039
0.256000000000000061,40.573278426880051484
0.257000000000000062,39.479102263599983758
0.258000000000000063,38.398660416846162491
0.259000000000000064,37.331775397328499366
0.260000000000000064,36.278266451230635425
0.261000000000000065,35.237951748164654475
0.262000000000000066,34.210650366519757881
0.263000000000000067,33.196184063756689397
0.264000000000000068,32.194378825127067500
0.265000000000000069,31.205066189421678757
0.266000000000000070,30.228084354705309522
0.267000000000000071,29.263279070615517696
0.268000000000000071,28.310504326744524661
0.269000000000000072,27.369622848938877979
0.270000000000000073,26.440506417101136805
0.271000000000000074,25.523036019323079415
0.272000000000000075,24.617101857976148693
0.273000000000000076,23.722603223795083238
0.274000000000000077,22.839448254065668920
0.275000000000000078,21.967553590821786713
0.276000000000000079,21.106843954518573980
0.277000000000000079,20.257251648019249046
0.278000000000000080,19.418716004958326948
0.279000000000000081,18.591182795652905213
0.280000000000000082,17.774603602764699417
0.281000000000000083,16.968935177891552257
0.282000000000000084,16.174138789216158330
0.283000000000000085,15.390179569281063010
0.284000000000000086,14.617025870907625063
0.285000000000000087,13.854648638253788562
0.286000000000000087,13.103020799014483799
0.287000000000000088,12.362116682825636360
0.288000000000000089,11.631911470041604417
0.289000000000000090,10.912380674221690668
0.290000000000000091,10.203499660891012013
0.291000000000000092,9.505243204430666282
0.292000000000000093,8.817585084309040866
0.293000000000000094,8.140497721285564481
0.294000000000000095,7.473951853701400694
0.295000000000000095,6.817916253514523461
0.296000000000000096,6.172357481340696950
0.297000000000000097,5.537239679419405647
0.298000000000000098,4.912524401136012742
0.299000000000000099,4.298170475491542852
0.300000000000000100,3.694133904718932992
0.301000000000000101,3.100367793092044355
0.302000000000000102,2.516822304862905035
0.303000000000000103,1.943444649182484385
0.304000000000000103,1.380179089815998905
0.305000000000000104,0.826966977443763795
0.306000000000000105,0.283746802345291371
0.307000000000000106,-0.249545734708137262
0.308000000000000107,-0.772977635481213121
0.309000000000000108,-1.286618503289018722
0.310000000000000109,-1.790540429990339799
0.311000000000000110,-2.284817872864214561
0.312000000000000111,-2.769527523181712247
0.313000000000000111,-3.244748168181405212
0.314000000000000112,-3.710560548051997642
0.315000000000000113,-4.167047209415586373
0.316000000000000114,-4.614292356693783681
0.317000000000000115,-5.052381702626790982
0.318000000000000116,-5.481402319104539345
0.319000000000000117,-5.901442489358736054
0.320000000000000118,-6.312591562457418704
0.321000000000000119,-6.714939810939450915
0.322000000000000119,-7.108578292325343106
0.323000000000000120,-7.493598715144008438
0.324000000000000121,-7.870093310023813515
0.325000000000000122,-8.238154706308215225
0.326000000000000123,-8.597875814574369002
0.327000000000000124,-8.949349715356092361
0.328000000000000125,-9.292669554300811541
0.329000000000000126,-9.627928443923245538
0.330000000000000127,-9.955219372057843685
0.331000000000000127,-10.274635117055300526
0.332000000000000128,-10.586268169717772736
0.333000000000000129,-10.890210661921321034
0.334000000000000130,-11.186554301832341451
0.335000000000000131,-11.475390315588818169
0.336000000000000132,-11.756809395283646325
0.337000000000000133,-12.030901653060181999
0.338000000000000134,-12.297756581105613094
0.339000000000000135,-12.557463017306439212
0.340000000000000135,-12.810109116314823297
0.341000000000000136,-13.055782325759363260
0.342000000000000137,-13.294569367324100995
0.343000000000000138,-13.526556222410897945
0.344000000000000139,-13.751828122095782092
0.345000000000000140,-13.970469541086165677
0.346000000000000141,-14.182564195385333861
0.347000000000000142,-14.388195043371643678
0.348000000000000143,-14.587444290002787639
0.349000000000000143,-14.780393393859688089
0.350000000000000144,-14.967123076750686650
0.351000000000000145,-15.147713335603180340
0.352000000000000146,-15.322243456378572546
0.353000000000000147,-15.490792029754619108
0.354000000000000148,-15.653436968329453194
0.355000000000000149,-15.810255525111710284
0.356000000000000150,-15.961324313071974856
0.357000000000000151,-16.106719325541863697
0.358000000000000151,-16.246515957258896634
0.359000000000000152,-16.380789025866523190
0.360000000000000153,-16.509612793691015753
0.361000000000000154,-16.633060989628084769
0.362000000000000155,-16.751206830984553875
0.363000000000000156,-16.864123045131584888
0.364000000000000157,-16.971881890837487106
0.365000000000000158,-17.074555179160029184
0.366000000000000159,-17.172214293788119477
0.367000000000000159,-17.264930210734625859
0.368000000000000160,-17.352773517291687710
0.369000000000000161,-17.435814430170189837
0.370000000000000162,-17.514122812755008596
0.371000000000000163,-17.587768191416394359
0.372000000000000164,-17.656819770827240745
0.373000000000000165,-17.721346448243956218
0.374000000000000166,-17.781416826717354240
0.375000000000000167,-17.837099227206532959
0.376000000000000167,-17.888461699577014485
0.377000000000000168,-17.935572032470233239
0.378000000000000169,-17.978497762038252006
0.379000000000000170,-18.017306179543179923
0.380000000000000171,-18.052064337826386975
0.381000000000000172,-18.082839056657451948
0.382000000000000173,-18.109696926977512987
0.383000000000000174,-18.132704314055985151
0.384000000000000175,-18.151927359583261534
0.385000000000000175,-18.167431982725549489
0.386000000000000176,-18.179283880171492882
0.387000000000000177,-18.187548525202213767
0.388000000000000178,-18.192291165819863608
0.389000000000000179,-18.193576821971046087
0.390000000000000180,-18.191470281903843187
0.391000000000000181,-18.186036097698742964
0.392000000000000182,-18.177338580014609448
0.393000000000000183,-18.165441792092643425
0.394000000000000183,-18.150409543061222450
0.395000000000000184,-18.132305380585989951
0.396000000000000185,-18.111192582909175997
0.397000000000000186,-18.087134150322846438
0.398000000000000187,-18.060192796120539072
0.399000000000000188,-18.030430937071695752
0.400000000000000189,-17.997910683462809089
0.401000000000000190,-17.962693828749081604
0.402000000000000191,-17.924841838859432386
0.403000000000000191,-17.884415841197231600
0.404000000000000192,-17.841476613378276284
0.405000000000000193,-17.796084571746469294
0.406000000000000194,-17.748299759706959833
0.407000000000000195,-17.698181835915200111
0.408000000000000196,-17.645790062359168360
0.409000000000000197,-17.591183292371120217
0.410000000000000198,-17.534419958603823630
0.411000000000000199,-17.475558061004548449
0.412000000000000199,-17.414655154819776328
0.413000000000000200,-17.351768338660821911
0.414000000000000201,-17.286954242660730330
0.415000000000000202,-17.220269016749963242
0.416000000000000203,-17.151768319078172453
0.417000000000000204,-17.081507304607114861
0.418000000000000205,-17.009540613898952444
0.419000000000000206,-16.935922362122358464
0.420000000000000207,-16.860706128297596962
0.421000000000000207,-16.783944944800690990
0.422000000000000208,-16.705691287144645685
0.423000000000000209,-16.625997064055336949
0.424000000000000210,-16.544913607857605342
0.425000000000000211,-16.462491665186004042
0.426000000000000212,-16.378781388033722521
0.427000000000000213,-16.293832325151370810
0.428000000000000214,-16.207693413806634197
0.429000000000000214,-16.120412971914383604
0.430000000000000215,-16.032038690545640236
0.431000000000000216,-15.942617626822913834
0.432000000000000217,-15.852196197208218820
0.433000000000000218,-15.760820171188843375
0.434000000000000219,-15.668534665365530856
0.435000000000000220,-15.575384137946139518
0.436000000000000221,-15.481412383647363384
0.437000000000000222,-15.386662529005899813
0.438000000000000222,-15.291177028100056745
0.439000000000000223,-15.194997658681426600
0.440000000000000224,-15.098165518716005096
0.441000000000000225,-15.000721023332999948
0.442000000000000226,-14.902703902179320394
0.443000000000000227,-14.804153197176509238
0.444000000000000228,-14.705107260677028336
0.445000000000000229,-14.605603754015410445
0.446000000000000230,-14.505679646449868514
0.447000000000000230,-14.405371214489235854
0.448000000000000231,-14.304714041599577712
0.449000000000000232,-14.203743018284299637
0.450000000000000233,-14.102492342531679270
0.451000000000000234,-14.000995520622504742
0.452000000000000235,-13.899285368291128151
0.453000000000000236,-13.797394012232009786
0.454000000000000237,-13.695352891944370555
0.455000000000000238,-13.593192761906621513
0.456000000000000238,-13.490943694072512926
0.457000000000000239,-13.388635080680353795
0.458000000000000240,-13.286295637366896116
0.459000000000000241,-13.183953406576701894
0.460000000000000242,-13.081635761258510797
0.461000000000000243,-12.979369408839053435
0.462000000000000244,-12.877180395465718021
0.463000000000000245,-12.775094110508161904
0.464000000000000246,-12.673135291310284600
0.465000000000000246,-12.571328028182790604
0.466000000000000247,-12.469695769627128001
0.467000000000000248,-12.368261327781521430
0.468000000000000249,-12.267046884079785940
0.469000000000000250,-12.166073995113539041
0.470000000000000251,-12.065363598688614744
0.471000000000000252,-11.964936020066470945
0.472000000000000253,-11.864810978381569839
0.473000000000000254,-11.765007593225424998
0.474000000000000254,-11.665544391388683820
0.475000000000000255,-11.566439313752088225
0.476000000000000256,-11.467709722317746213
0.477000000000000257,-11.369372407372070555
0.478000000000000258,-11.271443594771721308
0.479000000000000259,-11.173938953344396907
0.480000000000000260,-11.076873602396085872
0.481000000000000261,-10.980262119316682501
0.482000000000000262,-10.884118547276120381
0.483000000000000262,-10.788456403003213069
0.484000000000000263,-10.693288684639464137
0.485000000000000264,-10.598627879660570628
0.486000000000000265,-10.504485972858196519
0.487000000000000266,-10.410874454374882347
0.488000000000000267,-10.317804327785282226
0.489000000000000268,-10.225286118216805775
0.490000000000000269,-10.133329880503117337
0.491000000000000270,-10.041945207364179282
0.492000000000000270,-9.951141237606382361
0.493000000000000271,-9.860926664336956193
0.494000000000000272,-9.771309743186650465
0.495000000000000273,-9.682298300534913693
0.496000000000000274,-9.593899741732332842
0.497000000000000275,-9.506121059314660116
0.498000000000000276,-9.418968841203575693
0.499000000000000277,-9.332449278889033195
0.500000000000000222,-9.246568175588407712
0.501000000000000334,-9.161330954377955749
0.502000000000000224,-9.076742666292020090
0.503000000000000336,-8.992807998385675461
0.504000000000000226,-8.909531281756970955
0.505000000000000338,-8.826916499524399384
0.506000000000000227,-8.744967294756397891
0.507000000000000339,-8.663686978348678736
0.508000000000000229,-8.583078536846510787
0.509000000000000341,-8.503144640208152083
0.510000000000000231,-8.423887649506905717
0.511000000000000343,-8.345309624568171714
0.512000000000000233,-8.267412331539302883
0.513000000000000345,-8.190197250389047667
0.514000000000000234,-8.113665582334665061
0.515000000000000346,-8.037818257193592331
0.516000000000000236,-7.962655940658224907
0.517000000000000348,-7.888179041490983145
0.518000000000000238,-7.814387718638315050
0.519000000000000350,-7.741281888261243083
0.520000000000000240,-7.668861230681211616
0.521000000000000352,-7.597125197239314787
0.522000000000000242,-7.526073017067664850
0.523000000000000353,-7.455703703771322743
0.524000000000000243,-7.386016062019787221
0.525000000000000355,-7.317008694046703177
0.526000000000000245,-7.248680006057002245
0.527000000000000357,-7.181028214540224219
0.528000000000000247,-7.114051352489632052
0.529000000000000359,-7.047747275525961363
0.530000000000000249,-6.982113667925565537
0.531000000000000361,-6.917148048552091311
0.532000000000000250,-6.852847776691584514
0.533000000000000362,-6.789210057790294961
0.534000000000000252,-6.726231949095245355
0.535000000000000364,-6.663910365197104113
0.536000000000000254,-6.602242083475509560
0.537000000000000366,-6.541223749446404945
0.538000000000000256,-6.480851882011966048
0.539000000000000368,-6.421122878612571583
0.540000000000000258,-6.362033020281634421
0.541000000000000369,-6.303578476602871739
0.542000000000000259,-6.245755310570905827
0.543000000000000371,-6.188559483354998392
0.544000000000000261,-6.131986858966722131
0.545000000000000373,-6.076033208831773003
0.546000000000000263,-6.020694216266578636
0.547000000000000375,-5.965965480859984460
0.548000000000000265,-5.911842522761117102
0.549000000000000377,-5.858320786873376207
0.550000000000000266,-5.805395646955902045
0.551000000000000378,-5.753062409632711649
0.552000000000000268,-5.701316318310591491
0.553000000000000380,-5.650152557006329346
0.554000000000000270,-5.599566254084292538
0.555000000000000382,-5.549552485904926336
0.556000000000000272,-5.500106280385440805
0.557000000000000384,-5.451222620473122227
0.558000000000000274,-5.402896447532714141
0.559000000000000385,-5.355122664648307662
0.560000000000000275,-5.307896139841180805
0.561000000000000387,-5.261211709204236087
0.562000000000000277,-5.215064179954255863
0.563000000000000389,-5.169448333402908879
0.564000000000000279,-5.124358927847663558
0.565000000000000391,-5.079790701383487317
0.566000000000000281,-5.035738374636650860
0.567000000000000393,-4.992196653421475894
0.568000000000000282,-4.949160231321393155
0.569000000000000394,-4.906623792195103029
0.570000000000000284,-4.864582012609298900
0.571000000000000396,-4.823029564198757946
0.572000000000000286,-4.781961115955224884
0.573000000000000398,-4.741371336445905804
0.574000000000000288,-4.701254895963014491
0.575000000000000400,-4.661606468605308251
0.576000000000000290,-4.622420734292850497
0.577000000000000401,-4.583692380716062331
0.578000000000000291,-4.545416105220343006
0.579000000000000403,-4.507586616627198950
0.580000000000000293,-4.470198636993276686
0.581000000000000405,-4.433246903308128317
0.582000000000000295,-4.396726169132202600
0.583000000000000407,-4.360631206175829888
0.584000000000000297,-4.324956805820614925
0.585000000000000409,-4.289697780584174502
0.586000000000000298,-4.254848965529463456
0.587000000000000410,-4.220405219619668635
0.588000000000000300,-4.186361427019933856
0.589000000000000412,-4.152712498346808445
0.590000000000000302,-4.119453371866694802
0.591000000000000414,-4.086579014644287966
0.592000000000000304,-4.054084423642072110
0.593000000000000416,-4.021964626771906026
0.594000000000000306,-3.990214683899905079
0.595000000000000417,-3.958829687805401676
0.596000000000000307,-3.927804765095272987
0.597000000000000419,-3.897135077074482812
0.598000000000000309,-3.866815820573960227
0.599000000000000421,-3.836842228736678351
0.600000000000000311,-3.807209571763122913
0.601000000000000423,-3.777913157616870077
0.602000000000000313,-3.748948332691540486
0.603000000000000425,-3.720310482439715738
0.604000000000000314,-3.691995031965193963
0.605000000000000426,-3.663997446579050354
0.606000000000000316,-3.636313232320832700
0.607000000000000428,-3.608937936445459460
0.608000000000000318,-3.581867147877002999
0.609000000000000430,-3.555096497629937069
0.610000000000000320,-3.528621659199033811
0.611000000000000432,-3.502438348918440969
0.612000000000000322,-3.476542326291057527
0.613000000000000433,-3.450929394288830387
0.614000000000000323,-3.425595399624912663
0.615000000000000435,-3.400536232998403907
0.616000000000000325,-3.375747829312523152
0.617000000000000437,-3.351226167866907524
0.618000000000000327,-3.326967272524926411
0.619000000000000439,-3.302967211856567165
0.620000000000000329,-3.279222099257830703
0.621000000000000441,-3.255728093047237426
0.622000000000000330,-3.232481396540152652
0.623000000000000442,-3.209478258101683856
0.624000000000000332,-3.186714971178787437
0.625000000000000444,-3.164187874312277327
0.626000000000000334,-3.141893351129391831
0.627000000000000446,-3.119827830317521311
0.628000000000000336,-3.097987785579811248
0.629000000000000448,-3.076369735573166064
0.630000000000000338,-3.054970243829354892
0.631000000000000449,-3.033785918659721581
0.632000000000000339,-3.012813413044143296
0.633000000000000451,-2.992049424504799493
0.634000000000000341,-2.971490694965285506
0.635000000000000453,-2.951134010595648949
0.636000000000000343,-2.930976201643840540
0.637000000000000455,-2.911014142254151782
0.638000000000000345,-2.891244750273146202
0.639000000000000457,-2.871664987043490491
0.640000000000000346,-2.852271857186371218
0.641000000000000458,-2.833062408372724938
0.642000000000000348,-2.814033731083990908
0.643000000000000460,-2.795182958362648407
0.644000000000000350,-2.776507265553122661
0.645000000000000462,-2.758003870033397309
0.646000000000000352,-2.739670030937841894
0.647000000000000464,-2.721503048871547037
0.648000000000000353,-2.703500265616785914
0.649000000000000465,-2.685659063831685067
0.650000000000000355,-2.667976866741835984
0.651000000000000467,-2.650451137824906045
0.652000000000000357,-2.633079380488875021
0.653000000000000469,-2.615859137744034335
0.654000000000000359,-2.598787991869293101
0.655000000000000471,-2.581863564072931716
0.656000000000000361,-2.565083514148339461
0.657000000000000473,-2.548445540124837372
0.658000000000000362,-2.531947377914107289
0.659000000000000474,-2.515586800952349655
