# CNT15-NH2-2_CYTOSINE
# h[nm],U(h)[kJ/mol]
0.149999999999999994,120.670102335825077944
0.150999999999999995,119.058644797121559122
0.151999999999999996,116.780323944559171423
0.152999999999999997,114.434842644440962545
0.153999999999999998,112.217203968785184998
0.154999999999999999,110.143369231201489811
0.156000000000000000,108.167497412633991871
0.157000000000000001,106.237075844467568686
0.158000000000000002,104.314233987729636510
0.159000000000000002,102.380023454078923351
0.160000000000000003,100.431230830686558875
0.161000000000000004,98.474869056424893188
0.162000000000000005,96.522866645459799884
0.163000000000000006,94.587978369451647609
0.164000000000000007,92.681141494266327641
0.165000000000000008,90.810117736214976958
0.166000000000000009,88.979114786546006144
0.167000000000000010,87.189062193629567332
0.168000000000000010,85.438258182456408463
0.169000000000000011,83.723168316483381091
0.170000000000000012,82.039223030685050730
0.171000000000000013,80.381518940895105629
0.172000000000000014,78.745374667859593387
0.173000000000000015,77.126725353594480339
0.174000000000000016,75.522362456705764089
0.175000000000000017,73.930038844425098432
0.176000000000000018,72.348465813388486367
0.177000000000000018,70.777230439694022834
0.178000000000000019,69.216660232597988056
0.179000000000000020,67.667658744443045293
0.180000000000000021,66.131531539772566930
0.181000000000000022,64.609817430697077612
0.182000000000000023,63.104135592538924016
0.183000000000000024,61.616055352675957124
0.184000000000000025,60.146992232262981304
0.185000000000000026,58.698131257210945932
0.186000000000000026,57.270376621111765303
0.187000000000000027,55.864325420147203261
0.188000000000000028,54.480262309491045869
0.189000000000000029,53.118171465720969593
0.190000000000000030,51.777762094598656972
0.191000000000000031,50.458503818842807220
0.192000000000000032,49.159668546116897403
0.193000000000000033,47.880375793971580833
0.194000000000000034,46.619638887396156690
0.195000000000000034,45.376409907751906303
0.196000000000000035,44.149621730335198322
0.197000000000000036,42.938225920926896606
0.198000000000000037,41.741225655529284211
0.199000000000000038,40.557703173743099967
0.200000000000000039,39.386841570958623038
0.201000000000000040,38.227940977133883393
0.202000000000000041,37.080429362271033256
0.203000000000000042,35.943868354329538306
0.204000000000000042,34.817954558861650582
0.205000000000000043,33.702516936342348686
0.206000000000000044,32.597510828421263795
0.207000000000000045,31.503009233516809928
0.208000000000000046,30.419191920396269069
0.209000000000000047,29.346332940339017625
0.210000000000000048,28.284787058376622326
0.211000000000000049,27.234975575639236212
0.212000000000000050,26.197371961171047161
0.213000000000000050,25.172487655361866388
0.214000000000000051,24.160858350530993732
0.215000000000000052,23.163030998911693814
0.216000000000000053,22.179551745632455351
0.217000000000000054,21.210954935236067342
0.218000000000000055,20.257753295479442812
0.219000000000000056,19.320429362022295550
0.220000000000000057,18.399428172326828701
0.221000000000000058,17.495151226686768808
0.222000000000000058,16.607951688654900124
0.223000000000000059,15.738130776042435599
0.224000000000000060,14.885935276820385198
0.225000000000000061,14.051556111325941956
0.226000000000000062,13.235127852792595959
0.227000000000000063,12.436729111990450392
0.228000000000000064,11.656383688297001555
0.229000000000000065,10.894062388429860633
0.230000000000000066,10.149685415002895894
0.231000000000000066,9.423125229662812075
0.232000000000000067,8.714209799512023125
0.233000000000000068,8.022726140528709138
0.234000000000000069,7.348424077497281992
0.235000000000000070,6.691020146327130824
0.236000000000000071,6.050201571362349817
0.237000000000000072,5.425630257190656280
0.238000000000000073,4.816946741400398579
0.239000000000000073,4.223774061583124073
0.240000000000000074,3.645721496530845318
0.241000000000000075,3.082388147955803515
0.242000000000000076,2.533366335097088307
0.243000000000000077,1.998244780228613182
0.244000000000000078,1.476611568313945355
0.245000000000000079,0.968056868843830687
0.246000000000000080,0.472175412234131009
0.247000000000000081,-0.011431282948389753
0.248000000000000081,-0.483152932217071285
0.249000000000000082,-0.943368754121824638
0.250000000000000111,-1.392445980597301736
0.251000000000000112,-1.830738601158140355
0.252000000000000113,-2.258586331556041049
0.253000000000000114,-2.676313796012522062
0.254000000000000115,-3.084229910959878307
0.255000000000000115,-3.482627457326831433
0.256000000000000116,-3.871782827772597635
0.257000000000000117,-4.251955934873611120
0.258000000000000118,-4.623390266074956401
0.259000000000000119,-4.986313071210257242
0.260000000000000120,-5.340935668543371762
0.261000000000000121,-5.687453855570613115
0.262000000000000122,-6.026048411223439594
0.263000000000000123,-6.356885676606895075
0.264000000000000123,-6.680118201983058945
0.265000000000000124,-6.995885448342450630
0.266000000000000125,-7.304314532587038222
0.267000000000000126,-7.605521006061198186
0.268000000000000127,-7.899609656901356303
0.269000000000000128,-8.186675327418793557
0.270000000000000129,-8.466803738475839225
0.271000000000000130,-8.740072313554648531
0.272000000000000131,-9.006550995942765425
0.273000000000000131,-9.266303053166078385
0.274000000000000132,-9.519385863481723220
0.275000000000000133,-9.765851679898336357
0.276000000000000134,-10.005748367814593536
0.277000000000000135,-10.239120112957326825
0.278000000000000136,-10.466008096856908693
0.279000000000000137,-10.686451137617353879
0.280000000000000138,-10.900486294222014649
0.281000000000000139,-11.108149433063417177
0.282000000000000139,-11.309475755795961760
0.283000000000000140,-11.504500287985710116
0.284000000000000141,-11.693258328371376464
0.285000000000000142,-11.875785858857069499
0.286000000000000143,-12.052119915631054781
0.287000000000000144,-12.222298922047126979
0.288000000000000145,-12.386362984118562736
0.289000000000000146,-12.544354149658550668
0.290000000000000147,-12.696316632260193913
0.291000000000000147,-12.842297001441895787
0.292000000000000148,-12.982344340395190585
0.293000000000000149,-13.116510372860357592
0.294000000000000150,-13.244849560725082682
0.295000000000000151,-13.367419173992360015
0.296000000000000152,-13.484279334798586092
0.297000000000000153,-13.595493037182610152
0.298000000000000154,-13.701126144312519628
0.299000000000000155,-13.801247364871311873
0.300000000000000155,-13.895928210285717341
0.301000000000000156,-13.985242934456326935
0.302000000000000157,-14.069268457612864154
0.303000000000000158,-14.148084275876618321
0.304000000000000159,-14.221772358064338704
0.305000000000000160,-14.290417031214948551
0.306000000000000161,-14.354104856263109724
0.307000000000000162,-14.412924495223265353
0.308000000000000163,-14.466966571184045165
0.309000000000000163,-14.516323522347821751
0.310000000000000164,-14.561089451283553586
0.311000000000000165,-14.601359970493223983
0.312000000000000166,-14.637232045324855889
0.313000000000000167,-14.668803835197024910
0.314000000000000168,-14.696174534033024983
0.315000000000000169,-14.719444210736639889
0.316000000000000170,-14.738713650476711337
0.317000000000000171,-14.754084197484194974
0.318000000000000171,-14.765657600003823546
0.319000000000000172,-14.773535857983082664
0.320000000000000173,-14.777821074023202996
0.321000000000000174,-14.778615308061919364
0.322000000000000175,-14.776020436204499120
0.323000000000000176,-14.770138014069058130
0.324000000000000177,-14.761069144964034550
0.325000000000000178,-14.748914353169837455
0.326000000000000179,-14.733773462553937605
0.327000000000000179,-14.715745480707635551
0.328000000000000180,-14.694928488754717577
0.329000000000000181,-14.671419536946757489
0.330000000000000182,-14.645314546125996813
0.331000000000000183,-14.616708215106541502
0.332000000000000184,-14.585693933995335314
0.333000000000000185,-14.552363703448403243
0.334000000000000186,-14.516808059833698152
0.335000000000000187,-14.479116006249375559
0.336000000000000187,-14.439374949326975184
0.337000000000000188,-14.397670641729794383
0.338000000000000189,-14.354087130241614645
0.339000000000000190,-14.308706709325463180
0.340000000000000191,-14.261609880019516794
0.341000000000000192,-14.212875314026282680
0.342000000000000193,-14.162579822840736909
0.343000000000000194,-14.110798331755441737
0.344000000000000195,-14.057603858572729649
0.345000000000000195,-14.003067496849315177
0.346000000000000196,-13.947258403492828194
0.347000000000000197,-13.890243790527074808
0.348000000000000198,-13.832088920839870738
0.349000000000000199,-13.772857107725542392
0.350000000000000200,-13.712609718033627715
0.351000000000000201,-13.651406178735138397
0.352000000000000202,-13.589303986718320516
0.353000000000000203,-13.526358721627540049
0.354000000000000203,-13.462624061560532596
0.355000000000000204,-13.398151801441764874
0.356000000000000205,-13.332991873892868995
0.357000000000000206,-13.267192372424258195
0.358000000000000207,-13.200799576775764876
0.359000000000000208,-13.133857980238468954
0.360000000000000209,-13.066410318794080325
0.361000000000000210,-12.998497601912948340
0.362000000000000210,-12.930159144856597564
0.363000000000000211,-12.861432602335725051
0.364000000000000212,-12.792354003379792005
0.365000000000000213,-12.722957787279495889
0.366000000000000214,-12.653276840469001030
0.367000000000000215,-12.583342534219863040
0.368000000000000216,-12.513184763024458590
0.369000000000000217,-12.442831983551789321
0.370000000000000218,-12.372311254064280561
0.371000000000000218,-12.301648274189352250
0.372000000000000219,-12.230867424945099486
0.373000000000000220,-12.159991808924690559
0.374000000000000221,-12.089043290549223997
0.375000000000000222,-12.018042536303980228
0.376000000000000223,-11.947009054878154899
0.377000000000000224,-11.875961237132942827
0.378000000000000225,-11.804916395827714126
0.379000000000000226,-11.733890805038772243
0.380000000000000226,-11.662899739209787953
0.381000000000000227,-11.591957511777177814
0.382000000000000228,-11.521077513318454422
0.383000000000000229,-11.450272249175267092
0.384000000000000230,-11.379553376507127282
0.385000000000000231,-11.308931740735729932
0.386000000000000232,-11.238417411343206709
0.387000000000000233,-11.168019716991613777
0.388000000000000234,-11.097747279933981801
0.389000000000000234,-11.027608049690941883
0.390000000000000235,-10.957609335969682007
0.391000000000000236,-10.887757840805301512
0.392000000000000237,-10.818059689907233434
0.393000000000000238,-10.748520463196332031
0.394000000000000239,-10.679145224520521396
0.395000000000000240,-10.609938550539634861
0.396000000000000241,-10.540904558772130173
0.397000000000000242,-10.472046934798617812
0.398000000000000242,-10.403368958619299889
0.399000000000000243,-10.334873530164049527
0.400000000000000244,-10.266563193955970945
0.401000000000000245,-10.198440162930802799
0.402000000000000246,-10.130506341416085192
0.403000000000000247,-10.062763347275481607
0.404000000000000248,-9.995212533225137364
0.405000000000000249,-9.927855007329998926
0.406000000000000250,-9.860691652689316911
0.407000000000000250,-9.793723146321623219
0.408000000000000251,-9.726949977260286317
0.409000000000000252,-9.660372463871949478
0.410000000000000253,-9.593990770410574243
0.411000000000000254,-9.527804922820859446
0.412000000000000255,-9.461814823805273278
0.413000000000000256,-9.396020267169662432
0.414000000000000257,-9.330420951462665258
0.415000000000000258,-9.265016492924956992
0.416000000000000258,-9.199806437764415534
0.417000000000000259,-9.134790273773804259
0.418000000000000260,-9.069967441307840161
0.419000000000000261,-9.005337343636583114
0.420000000000000262,-8.940899356692487032
0.421000000000000263,-8.876652838228421771
0.422000000000000264,-8.812597136404010101
0.423000000000000265,-8.748731597817819505
0.424000000000000266,-8.685055575002992967
0.425000000000000266,-8.621568433403504983
0.426000000000000267,-8.558269557848644737
0.427000000000000268,-8.495158358542951760
0.428000000000000269,-8.432234276588690847
0.429000000000000270,-8.369496789058008090
0.430000000000000271,-8.306945413631499520
0.431000000000000272,-8.244579712819922079
0.432000000000000273,-8.182399297785394765
0.433000000000000274,-8.120403831778393311
0.434000000000000274,-8.058593033206369327
0.435000000000000275,-7.996966678349761715
0.436000000000000276,-7.935524603740776506
0.437000000000000277,-7.874266708220005739
0.438000000000000278,-7.813192954685743707
0.439000000000000279,-7.752303371550508082
0.440000000000000280,-7.691598053918850653
0.441000000000000281,-7.631077164500391419
0.442000000000000282,-7.570740934271602107
0.443000000000000282,-7.510589662899422869
0.444000000000000283,-7.450623718939644036
0.445000000000000284,-7.390843539822526509
0.446000000000000285,-7.331249631637693831
0.447000000000000286,-7.271842568730353840
0.448000000000000287,-7.212622993119961912
0.449000000000000288,-7.153591613752759315
0.450000000000000289,-7.094749205598676944
0.451000000000000290,-7.036096608603183533
0.452000000000000290,-6.977634726504106766
0.453000000000000291,-6.919364525523084453
0.454000000000000292,-6.861287032941168818
0.455000000000000293,-6.803403335567510979
0.456000000000000294,-6.745714578109928361
0.457000000000000295,-6.688221961455765197
0.458000000000000296,-6.630926740871063707
0.459000000000000297,-6.573830224125890354
0.460000000000000298,-6.516933769553200584
0.461000000000000298,-6.460238784048462080
0.462000000000000299,-6.403746721016847054
0.463000000000000300,-6.347459078274537703
0.464000000000000301,-6.291377395910453529
0.465000000000000302,-6.235503254114411753
0.466000000000000303,-6.179838270977350945
0.467000000000000304,-6.124384100269129050
0.468000000000000305,-6.069142429199106736
0.469000000000000306,-6.014114976164339765
0.470000000000000306,-5.959303488490233391
0.471000000000000307,-5.904709740167875864
0.472000000000000308,-5.850335529592496364
0.473000000000000309,-5.796182677306831899
0.474000000000000310,-5.742253023753259633
0.475000000000000311,-5.688548427038158550
0.476000000000000312,-5.635070760712005189
0.477000000000000313,-5.581821911568059846
0.478000000000000314,-5.528803777462785618
0.479000000000000314,-5.476018265160715437
0.480000000000000315,-5.423467288206210490
0.481000000000000316,-5.371152764824665304
0.482000000000000317,-5.319076615855210299
0.483000000000000318,-5.267240762717080749
0.484000000000000319,-5.215647125411459584
0.485000000000000320,-5.164297620560626356
0.486000000000000321,-5.113194159485896506
0.487000000000000322,-5.062338646325892810
0.488000000000000322,-5.011732976196368483
0.489000000000000323,-4.961379033392918636
0.490000000000000324,-4.911278689637480710
0.491000000000000325,-4.861433802369675483
0.492000000000000326,-4.811846213083735613
0.493000000000000327,-4.762517745711847716
0.494000000000000328,-4.713450205054412478
0.495000000000000329,-4.664645375257818749
0.496000000000000330,-4.616105018340110000
0.497000000000000330,-4.567830872764913508
0.498000000000000331,-4.519824652063783255
0.499000000000000332,-4.472088043507304711
0.500000000000000333,-4.424622706824854923
0.501000000000000334,-4.377430272973121816
0.502000000000000335,-4.330512342953331206
0.503000000000000336,-4.283870486677064271
0.504000000000000337,-4.237506241880433677
0.505000000000000338,-4.191421113086416739
0.506000000000000338,-4.145616570615059615
0.507000000000000339,-4.100094049641159089
0.508000000000000340,-4.054854949299038225
0.509000000000000341,-4.009900631834044660
0.510000000000000342,-3.965232421800165330
0.511000000000000343,-3.920851605303334875
0.512000000000000344,-3.876759429289801773
0.513000000000000345,-3.832957100879017531
0.514000000000000346,-3.789445786740407662
0.515000000000000346,-3.746226612513331666
0.516000000000000347,-3.703300662269558785
0.517000000000000348,-3.660668978017666664
0.518000000000000349,-3.618332559248386815
0.519000000000000350,-3.576292362520443024
0.520000000000000351,-3.534549301085865292
0.521000000000000352,-3.493104244554173565
0.522000000000000353,-3.451958018594523558
0.523000000000000353,-3.411111404675022385
0.524000000000000354,-3.370565139838493707
0.525000000000000355,-3.330319916513679424
0.526000000000000356,-3.290376382361202445
0.527000000000000357,-3.250735140153402369
0.528000000000000358,-3.211396747687088382
0.529000000000000359,-3.172361717728560571
0.530000000000000360,-3.133630517989825393
0.531000000000000361,-3.095203571135334286
0.532000000000000361,-3.057081254818231564
0.533000000000000362,-3.019263901745393941
0.534000000000000363,-2.981751799770312239
0.535000000000000364,-2.944545192012989254
0.536000000000000365,-2.907644277006042888
0.537000000000000366,-2.871049208866130797
0.538000000000000367,-2.834760097489832376
0.539000000000000368,-2.798777008773297936
0.540000000000000369,-2.763099964854610846
0.541000000000000369,-2.727728944378294607
0.542000000000000370,-2.692663882780972795
0.543000000000000371,-2.657904672597448226
0.544000000000000372,-2.623451163786450824
0.545000000000000373,-2.589303164075217989
0.546000000000000374,-2.555460439322128074
0.547000000000000375,-2.521922713896676438
0.548000000000000376,-2.488689671076043552
0.549000000000000377,-2.455760953457473583
0.550000000000000377,-2.423136163385741781
0.551000000000000378,-2.390814863395060552
0.552000000000000379,-2.358796576664649258
0.553000000000000380,-2.327080787487328717
0.554000000000000381,-2.295666941750400536
0.555000000000000382,-2.264554447428269945
0.556000000000000383,-2.233742675085974128
0.557000000000000384,-2.203230958393195049
0.558000000000000385,-2.173018594647929458
0.559000000000000385,-2.143104845309364404
0.560000000000000386,-2.113488936539243745
0.561000000000000387,-2.084170059751227377
0.562000000000000388,-2.055147372167600572
0.563000000000000389,-2.026419997382835625
0.564000000000000390,-1.997987025933411598
0.565000000000000391,-1.969847515873394572
0.566000000000000392,-1.942000493355233504
0.567000000000000393,-1.914444953215310719
0.568000000000000393,-1.887179859563686168
0.569000000000000394,-1.860204146377608225
0.570000000000000395,-1.833516718098344045
0.571000000000000396,-1.807116450230782601
0.572000000000000397,-1.781002189945503744
0.573000000000000398,-1.755172756682747748
0.574000000000000399,-1.729626942758011321
0.575000000000000400,-1.704363513968710553
0.576000000000000401,-1.679381210201673635
0.577000000000000401,-1.654678746041005510
0.578000000000000402,-1.630254811375945412
0.579000000000000403,-1.606108072008395338
0.580000000000000404,-1.582237170259810366
0.581000000000000405,-1.558640725577038477
0.582000000000000406,-1.535317335136857642
0.583000000000000407,-1.512265574448871552
0.584000000000000408,-1.489483997956490002
0.585000000000000409,-1.466971139635678600
0.586000000000000409,-1.444725513591228028
0.587000000000000410,-1.422745614650280155
0.588000000000000411,-1.401029918952824804
0.589000000000000412,-1.379576884538976644
0.590000000000000413,-1.358384951932736673
0.591000000000000414,-1.337452544722061543
0.592000000000000415,-1.316778070135027789
0.593000000000000416,-1.296359919611834943
0.594000000000000417,-1.276196469372489650
0.595000000000000417,-1.256286080980045794
0.596000000000000418,-1.236627101899037795
0.597000000000000419,-1.217217866049184583
0.598000000000000420,-1.198056694353980101
0.599000000000000421,-1.179141895284171015
0.600000000000000422,-1.160471765395891364
0.601000000000000423,-1.142044589863364434
0.602000000000000424,-1.123858643006013347
0.603000000000000425,-1.105912188809874852
0.604000000000000425,-1.088203481443204890
0.605000000000000426,-1.070730765766133574
0.606000000000000427,-1.053492277834367608
0.607000000000000428,-1.036486245396659234
0.608000000000000429,-1.019710888386225589
0.609000000000000430,-1.003164419405720542
0.610000000000000431,-0.986845044205997168
