# CNT15-NH2-2_HISTIDINEZWITTER
# h[nm],U(h)[kJ/mol]
0.200000000000000011,98.037480448706475045
0.201000000000000012,96.943047847667997985
0.202000000000000013,95.195434133283441724
0.203000000000000014,93.178935353671391795
0.204000000000000015,91.107736616445478717
0.205000000000000016,89.088259030162006979
0.206000000000000016,87.161684473377931681
0.207000000000000017,85.332311049287824289
0.208000000000000018,83.585909328402905771
0.209000000000000019,81.901131427738604884
0.210000000000000020,80.256186233046534539
0.211000000000000021,78.632368509020395209
0.212000000000000022,77.015566164298462581
0.213000000000000023,75.396529165745363343
0.214000000000000024,73.770435270620566826
0.215000000000000024,72.136108687524298944
0.216000000000000025,70.495120296173155339
0.217000000000000026,68.850908702577100939
0.218000000000000027,67.208000001016301894
0.219000000000000028,65.571362992563621219
0.220000000000000029,63.945910033581867538
0.221000000000000030,62.336137389391090835
0.222000000000000031,60.745889799356994843
0.223000000000000032,59.178229617699301457
0.224000000000000032,57.635389714372159631
0.225000000000000033,56.118790114349692999
0.226000000000000034,54.629100287865661301
0.227000000000000035,53.166331506103311710
0.228000000000000036,51.729946364600706943
0.229000000000000037,50.318975205804477469
0.230000000000000038,48.932131596033734411
0.231000000000000039,47.567921152029477128
0.232000000000000040,46.224739836075478649
0.233000000000000040,44.900959344720973831
0.234000000000000041,43.594998421852650949
0.235000000000000042,42.305379860700881522
0.236000000000000043,41.030773655148827572
0.237000000000000044,39.770027253859815630
0.238000000000000045,38.522184195762385173
0.239000000000000046,37.286492594452354865
0.240000000000000047,36.062405020938861355
0.241000000000000048,34.849571334122529720
0.242000000000000048,33.647825947995698925
0.243000000000000049,32.457170921816107523
0.244000000000000050,31.277756129186144562
0.245000000000000051,30.109857615874346948
0.246000000000000052,28.953855103614749567
0.247000000000000053,27.810209445040964482
0.248000000000000054,26.679440688552723770
0.249000000000000055,25.562107274912694521
0.250000000000000056,24.458786762123288838
0.251000000000000056,23.370058363026284809
0.252000000000000057,22.296487481708979317
0.253000000000000058,21.238612350199126411
0.254000000000000059,20.196932795650376136
0.255000000000000060,19.171901109515353312
0.256000000000000061,18.163914943113816491
0.257000000000000062,17.173312117444037739
0.258000000000000063,16.200367207908691114
0.259000000000000064,15.245289745672412351
0.260000000000000064,14.308223865503416405
0.261000000000000065,13.389249224096820612
0.262000000000000066,12.488383012018241303
0.263000000000000067,11.605582885623119793
0.264000000000000068,10.740750651757156930
0.265000000000000069,9.893736546982982105
0.266000000000000070,9.064343963855055364
0.267000000000000071,8.252334488807587576
0.268000000000000071,7.457433129049610088
0.269000000000000072,6.679333619066246897
0.270000000000000073,5.917703710571197817
0.271000000000000074,5.172190362768782634
0.272000000000000075,4.442424762346949052
0.273000000000000076,3.728027114570827028
0.274000000000000077,3.028611158054604680
0.275000000000000078,2.343788366172972815
0.276000000000000079,1.673171807578975434
0.277000000000000079,1.016379646892460409
0.278000000000000080,0.373038274312553653
0.279000000000000081,-0.257214940305274753
0.280000000000000082,-0.874729267449035008
0.281000000000000083,-1.479838605486587522
0.282000000000000084,-2.072859824903079407
0.283000000000000085,-2.654091454845608489
0.284000000000000086,-3.223812694704894621
0.285000000000000087,-3.782282731207772031
0.286000000000000087,-4.329740339805937310
0.287000000000000088,-4.866403747962915638
0.288000000000000089,-5.392470737208546971
0.289000000000000090,-5.908118960494219252
0.290000000000000091,-6.413506451388082397
0.291000000000000092,-6.908772301953327144
0.292000000000000093,-7.394037486703846085
0.293000000000000094,-7.869405810791616496
0.294000000000000095,-8.334964961508591230
0.295000000000000095,-8.790787643249297290
0.296000000000000096,-9.236932777244444281
0.297000000000000097,-9.673446748615880608
0.298000000000000098,-10.100364684590733333
0.299000000000000099,-10.517711749028645585
0.300000000000000100,-10.925504439738537243
0.301000000000000101,-11.323751876377249559
0.302000000000000102,-11.712457068013582884
0.303000000000000103,-12.091618150701327394
0.304000000000000103,-12.461229586618159715
0.305000000000000104,-12.821283317491534604
0.306000000000000105,-13.171769866138518523
0.307000000000000106,-13.512679380990196165
0.308000000000000107,-13.844002619450503033
0.309000000000000108,-14.165731866850560294
0.310000000000000109,-14.477861788603693327
0.311000000000000110,-14.780390213940261646
0.312000000000000111,-15.073318850310460704
0.313000000000000111,-15.356653928182700142
0.314000000000000112,-15.630406776542633551
0.315000000000000113,-15.894594329911210906
0.316000000000000114,-16.149239568154694524
0.317000000000000115,-16.394371890756229249
0.318000000000000116,-16.630027427561916653
0.319000000000000117,-16.856249288306635492
0.320000000000000118,-17.073087753469025074
0.321000000000000119,-17.280600409206385848
0.322000000000000119,-17.478852229278722064
0.323000000000000120,-17.667915606993215505
0.324000000000000121,-17.847870340287773416
0.325000000000000122,-18.018803573127616602
0.326000000000000123,-18.180809696416382337
0.327000000000000124,-18.333990211624787037
0.328000000000000125,-18.478453560319241689
0.329000000000000126,-18.614314922731189483
0.330000000000000127,-18.741695988449421861
0.331000000000000127,-18.860724702243338413
0.332000000000000128,-18.971534987937623384
0.333000000000000129,-19.074266453160689139
0.334000000000000130,-19.169064077680754821
0.335000000000000131,-19.256077887929205161
0.336000000000000132,-19.335462620188245353
0.337000000000000133,-19.407377374795405700
0.338000000000000134,-19.471985263587832549
0.339000000000000135,-19.529453052678370284
0.340000000000000135,-19.579950802524134446
0.341000000000000136,-19.623651507116118609
0.342000000000000137,-19.660730733987687557
0.343000000000000138,-19.691366266610586422
0.344000000000000139,-19.715737750620387914
0.345000000000000140,-19.734026345189246143
0.346000000000000141,-19.746414380743001260
0.347000000000000142,-19.753085024103249623
0.348000000000000143,-19.754221952021868702
0.349000000000000143,-19.750009033967373284
0.350000000000000144,-19.740630024918750962
0.351000000000000145,-19.726268268823133667
0.352000000000000146,-19.707106413280126134
0.353000000000000147,-19.683326135925781841
0.354000000000000148,-19.655107882905795691
0.355000000000000149,-19.622630619747642555
0.356000000000000150,-19.586071594867668466
0.357000000000000151,-19.545606115879586184
0.358000000000000151,-19.501407338806409086
0.359000000000000152,-19.453646070237972765
0.360000000000000153,-19.402490582421258125
0.361000000000000154,-19.348106441219684370
0.362000000000000155,-19.290656346831326573
0.363000000000000156,-19.230299987113841809
0.364000000000000157,-19.167193903325252080
0.365000000000000158,-19.101491368055988573
0.366000000000000159,-19.033342275096046592
0.367000000000000159,-18.962893040954469370
0.368000000000000160,-18.890286517724128146
0.369000000000000161,-18.815661916963811962
0.370000000000000162,-18.739154744252019213
0.371000000000000163,-18.660896744051552076
0.372000000000000164,-18.581015854511491625
0.373000000000000165,-18.499636171823016895
0.374000000000000166,-18.416877923738088185
0.375000000000000167,-18.332857451853566744
0.376000000000000167,-18.247687202260493677
0.377000000000000168,-18.161475724155575762
0.378000000000000169,-18.074327676012082122
0.379000000000000170,-17.986343838908457116
0.380000000000000171,-17.897621136615544657
0.381000000000000172,-17.808252662047351578
0.382000000000000173,-17.718327709685105731
0.383000000000000174,-17.627931813590716814
0.384000000000000175,-17.537146790632412774
0.385000000000000175,-17.446050788553286282
0.386000000000000176,-17.354718338522069132
0.387000000000000177,-17.263220411814280908
0.388000000000000178,-17.171624480281913350
0.389000000000000179,-17.079994580279695526
0.390000000000000180,-16.988391379726486718
0.391000000000000181,-16.896872247991353788
0.392000000000000182,-16.805491328304746901
0.393000000000000183,-16.714299612406399831
0.394000000000000183,-16.623345017153191350
0.395000000000000184,-16.532672462821373927
0.396000000000000185,-16.442323952849243085
0.397000000000000186,-16.352338654777618387
0.398000000000000187,-16.262752982157110182
0.399000000000000188,-16.173600677202347953
0.400000000000000189,-16.084912893984402160
0.401000000000000190,-15.996718281964078301
0.402000000000000191,-15.909043069679270843
0.403000000000000191,-15.821911148410327641
0.404000000000000192,-15.735344155658001597
0.405000000000000193,-15.649361558278567230
0.406000000000000194,-15.563980735130764188
0.407000000000000195,-15.479217059098974829
0.408000000000000196,-15.395083978366333355
0.409000000000000197,-15.311593096820697468
0.410000000000000198,-15.228754253485437431
0.411000000000000199,-15.146575600875019418
0.412000000000000199,-15.065063682184330673
0.413000000000000200,-14.984223507228032091
0.414000000000000201,-14.904058627054286745
0.415000000000000202,-14.824571207164131792
0.416000000000000203,-14.745762099275319557
0.417000000000000204,-14.667630911575660235
0.418000000000000205,-14.590176077417609690
0.419000000000000206,-14.513394922411993804
0.420000000000000207,-14.437283729884319072
0.421000000000000207,-14.361837804663100115
0.422000000000000208,-14.287051535174317252
0.423000000000000209,-14.212918453821737685
0.424000000000000210,-14.139431295637018948
0.425000000000000211,-14.066582055188154854
0.426000000000000212,-13.994362041739197622
0.427000000000000213,-13.922761932657618189
0.428000000000000214,-13.851771825070040123
0.429000000000000214,-13.781381285769811029
0.430000000000000215,-13.711579399383699851
0.431000000000000216,-13.642354814807660546
0.432000000000000217,-13.573695789924489219
0.433000000000000218,-13.505590234618775725
0.434000000000000219,-13.438025752107026989
0.435000000000000220,-13.370989678602825279
0.436000000000000221,-13.304469121339181470
0.437000000000000222,-13.238450994971731944
0.438000000000000222,-13.172922056388491896
0.439000000000000223,-13.107868937953066180
0.440000000000000224,-13.043278179209732315
0.441000000000000225,-12.979136257079966654
0.442000000000000226,-12.915429614581233508
0.443000000000000227,-12.852144688099397030
0.444000000000000228,-12.789267933247472797
0.445000000000000229,-12.726785849343716706
0.446000000000000230,-12.664685002542762859
0.447000000000000230,-12.602952047654152778
0.448000000000000231,-12.541573748682843359
0.449000000000000232,-12.480536998126442683
0.450000000000000233,-12.419828835064603112
0.451000000000000234,-12.359436462075425567
0.452000000000000235,-12.299347261014599297
0.453000000000000236,-12.239548807692079535
0.454000000000000237,-12.180028885481906542
0.455000000000000238,-12.120775497899847650
0.456000000000000238,-12.061776880183945337
0.457000000000000239,-12.003021509912251474
0.458000000000000240,-11.944498116692265910
0.459000000000000241,-11.886195690955641879
0.460000000000000242,-11.828103491891948096
0.461000000000000243,-11.770211054554197361
0.462000000000000244,-11.712508196169068242
0.463000000000000245,-11.654985021683391011
0.464000000000000246,-11.597631928578973515
0.465000000000000246,-11.540439610986235053
0.466000000000000247,-11.483399063127341932
0.467000000000000248,-11.426501582118472555
0.468000000000000249,-11.369738770160434882
0.469000000000000250,-11.313102536146137922
0.470000000000000251,-11.256585096712807825
0.471000000000000252,-11.200178976766069994
0.472000000000000253,-11.143877009502734410
0.473000000000000254,-11.087672335957792669
0.474000000000000254,-11.031558404101131643
0.475000000000000255,-10.975528967508335398
0.476000000000000256,-10.919578083629463805
0.477000000000000257,-10.863700111679033711
0.478000000000000258,-10.807889710169501285
0.479000000000000259,-10.752141834110267027
0.480000000000000260,-10.696451731893194648
0.481000000000000261,-10.640814941885084366
0.482000000000000262,-10.585227288746940744
0.483000000000000262,-10.529684879499189520
0.484000000000000263,-10.474184099351155908
0.485000000000000264,-10.418721607312839694
0.486000000000000265,-10.363294331606020648
0.487000000000000266,-10.307899464891285390
0.488000000000000267,-10.252534459326943406
0.489000000000000268,-10.197197021475174594
0.490000000000000269,-10.141885107070070404
0.491000000000000270,-10.086596915661802498
0.492000000000000270,-10.031330885150401500
0.493000000000000271,-9.976085686222255333
0.494000000000000272,-9.920860216701690604
0.495000000000000273,-9.865653595829590117
0.496000000000000274,-9.810465158480461412
0.497000000000000275,-9.755294449328770767
0.498000000000000276,-9.700141216974971670
0.499000000000000277,-9.645005408041095407
0.500000000000000222,-9.589887161245247427
0.501000000000000334,-9.534786801464088413
0.502000000000000224,-9.479704833791632979
0.503000000000000336,-9.424641937602499908
0.504000000000000226,-9.369598960627310902
0.505000000000000338,-9.314576913047210027
0.506000000000000227,-9.259576961614673252
0.507000000000000339,-9.204600423806645892
0.508000000000000229,-9.149648762016408199
0.509000000000000341,-9.094723577789499913
0.510000000000000231,-9.039826606109457430
0.511000000000000343,-8.984959709737873723
0.512000000000000233,-8.930124873613896952
0.513000000000000345,-8.875324199317118357
0.514000000000000234,-8.820559899598304554
0.515000000000000346,-8.765834292981219633
0.516000000000000236,-8.711149798439546288
0.517000000000000348,-8.656508930151591841
0.518000000000000238,-8.601914292336145351
0.519000000000000350,-8.547368574171773759
0.520000000000000240,-8.492874544802276660
0.521000000000000352,-8.438435048430388719
0.522000000000000242,-8.384052999501699688
0.523000000000000353,-8.329731377980561291
0.524000000000000243,-8.275473224719577914
0.525000000000000355,-8.221281636924024028
0.526000000000000245,-8.167159763712401599
0.527000000000000357,-8.113110801774023884
0.528000000000000247,-8.059137991124677214
0.529000000000000359,-8.005244610960758678
0.530000000000000249,-7.951433975612694383
0.531000000000000361,-7.897709430597724456
0.532000000000000250,-7.844074348772570815
0.533000000000000362,-7.790532126585816286
0.534000000000000252,-7.737086180430199356
0.535000000000000364,-7.683739943094492375
0.536000000000000254,-7.630496860314946339
0.537000000000000366,-7.577360387425555288
0.538000000000000256,-7.524333986107204275
0.539000000000000368,-7.471421121234587126
0.540000000000000258,-7.418625257820783858
0.541000000000000369,-7.365949858058257860
0.542000000000000259,-7.313398378455976179
0.543000000000000371,-7.260974267071323318
0.544000000000000261,-7.208680960836199247
0.545000000000000373,-7.156521882976103477
0.546000000000000263,-7.104500440521301918
0.547000000000000375,-7.052620021908644787
0.548000000000000265,-7.000883994673410271
0.549000000000000377,-6.949295703229299015
0.550000000000000266,-6.897858466735939942
0.551000000000000378,-6.846575577052123940
0.552000000000000268,-6.795450296773779542
0.553000000000000380,-6.744485857355098979
0.554000000000000270,-6.693685457311640441
0.555000000000000382,-6.643052260503682582
0.556000000000000272,-6.592589394498832078
0.557000000000000384,-6.542299949011900040
0.558000000000000274,-6.492186974421139567
0.559000000000000385,-6.442253480358783868
0.560000000000000275,-6.392502434374938147
0.561000000000000387,-6.342936760672847285
0.562000000000000277,-6.293559338914342050
0.563000000000000389,-6.244373003093756758
0.564000000000000279,-6.195380540478932829
0.565000000000000391,-6.146584690617642899
0.566000000000000281,-6.097988144408045486
0.567000000000000393,-6.049593543231488901
0.568000000000000282,-6.001403478146388970
0.569000000000000394,-5.953420489141318939
0.570000000000000284,-5.905647064446189809
0.571000000000000396,-5.858085639899669239
0.572000000000000286,-5.810738598371685271
0.573000000000000398,-5.763608269239145265
0.574000000000000288,-5.716696927913826443
0.575000000000000400,-5.670006795420619916
0.576000000000000290,-5.623540038024943399
0.577000000000000401,-5.577298766907705208
0.578000000000000291,-5.531285037886569000
0.579000000000000403,-5.485500851181954296
0.580000000000000293,-5.439948151226611017
0.581000000000000405,-5.394628826517094744
0.582000000000000295,-5.349544709506212747
0.583000000000000407,-5.304697576534648462
0.584000000000000297,-5.260089147800868226
0.585000000000000409,-5.215721087367718667
0.586000000000000298,-5.171595003204698671
0.587000000000000410,-5.127712447264385354
0.588000000000000300,-5.084074915592102784
0.589000000000000412,-5.040683848467269357
0.590000000000000302,-4.997540630575587173
0.591000000000000414,-4.954646591210664752
0.592000000000000304,-4.912003004504055248
0.593000000000000416,-4.869611089682470251
0.594000000000000306,-4.827472011351276571
0.595000000000000417,-4.785586879802936622
0.596000000000000307,-4.743956751349557521
0.597000000000000419,-4.702582628678361409
0.598000000000000309,-4.661465461229200358
0.599000000000000421,-4.620606145592956793
0.600000000000000311,-4.580005525930069155
0.601000000000000423,-4.539664394407982861
0.602000000000000313,-4.499583491656919065
0.603000000000000425,-4.459763507242651137
0.604000000000000314,-4.420205080155901634
0.605000000000000426,-4.380908799316939550
0.606000000000000316,-4.341875204095097196
0.607000000000000428,-4.303104784841885078
0.608000000000000318,-4.264597983437337092
0.609000000000000430,-4.226355193848421621
0.610000000000000320,-4.188376762699126843
0.611000000000000432,-4.150662989851122475
0.612000000000000322,-4.113214128994624907
0.613000000000000433,-4.076030388248463865
0.614000000000000323,-4.039111930768909176
0.615000000000000435,-4.002458875366430746
0.616000000000000325,-3.966071297129862838
0.617000000000000437,-3.929949228057259436
0.618000000000000327,-3.894092657692951320
0.619000000000000439,-3.858501533770050340
0.620000000000000329,-3.823175762858034066
0.621000000000000441,-3.788115211014683403
0.622000000000000330,-3.753319704441980154
0.623000000000000442,-3.718789030145296604
0.624000000000000332,-3.684522936595569398
0.625000000000000444,-3.650521134393775124
0.626000000000000334,-3.616783296937410963
0.627000000000000446,-3.583309061088390646
0.628000000000000336,-3.550098027842030213
0.629000000000000448,-3.517149762996608864
0.630000000000000338,-3.484463797823232234
0.631000000000000449,-3.452039629735387027
0.632000000000000339,-3.419876722958091086
0.633000000000000451,-3.387974509195994077
0.634000000000000341,-3.356332388300340419
0.635000000000000453,-3.324949728934224247
0.636000000000000343,-3.293825869236013837
0.637000000000000455,-3.262960117480460553
0.638000000000000345,-3.232351752737392836
0.639000000000000457,-3.202000025527445892
0.640000000000000346,-3.171904158474888824
0.641000000000000458,-3.142063346956919911
0.642000000000000348,-3.112476759749550848
0.643000000000000460,-3.083143539669481292
0.644000000000000350,-3.054062804212083204
0.645000000000000462,-3.025233646184952274
0.646000000000000352,-2.996655134337125048
0.647000000000000464,-2.968326313983451481
0.648000000000000353,-2.940246207624306773
0.649000000000000465,-2.912413815560023433
0.650000000000000355,-2.884828116500352646
0.651000000000000467,-2.857488068168342110
0.652000000000000357,-2.830392607898879476
0.653000000000000469,-2.803540653231415547
0.654000000000000359,-2.776931102497040449
0.655000000000000471,-2.750562835399505524
0.656000000000000361,-2.724434713590351720
0.657000000000000473,-2.698545581237747459
0.658000000000000362,-2.672894265589215390
