# CNT15-NH2-2_GLUP-AC
# h[nm],U(h)[kJ/mol]
0.149999999999999994,147.292755862790784249
0.150999999999999995,145.141656554263789758
0.151999999999999996,142.887004263085316325
0.152999999999999997,140.632541042407609666
0.153999999999999998,138.404642011385874412
0.154999999999999999,136.201342094975245800
0.156000000000000000,134.014894728951958314
0.157000000000000001,131.840318842872534333
0.158000000000000002,129.677147598220784630
0.159000000000000002,127.528368153779368299
0.160000000000000003,125.398611850152377656
0.161000000000000004,123.292540178621464975
0.162000000000000005,121.213761215617708444
0.163000000000000006,119.164302521768405541
0.164000000000000007,117.144532270364464921
0.165000000000000008,115.153381476434560682
0.166000000000000009,113.188728928022172227
0.167000000000000010,111.247839072786092629
0.168000000000000010,109.327776483096954507
0.169000000000000011,107.425751009370927136
0.170000000000000012,105.539372186190007596
0.171000000000000013,103.666809201856679579
0.172000000000000014,101.806864356161440810
0.173000000000000015,99.958974521175846917
0.174000000000000016,98.123157917122298954
0.175000000000000017,96.299923662561440096
0.176000000000000018,94.490160015243191083
0.177000000000000018,92.695014737876590516
0.178000000000000019,90.915778153634761338
0.179000000000000020,89.153776579437590044
0.180000000000000021,87.410281182168745318
0.181000000000000022,85.686435028975409978
0.182000000000000023,83.983199255419236806
0.183000000000000024,82.301317859139444977
0.184000000000000025,80.641299612493128279
0.185000000000000026,79.003414926485447722
0.186000000000000026,77.387705132326473745
0.187000000000000027,75.794001516554061482
0.188000000000000028,74.221951494256742876
0.189000000000000029,72.671049481735849440
0.190000000000000030,71.140670291409449533
0.191000000000000031,69.630103181978455495
0.192000000000000032,68.138585027390234927
0.193000000000000033,66.665331397305720884
0.194000000000000034,65.209564653968797643
0.195000000000000034,63.770538455019142532
0.196000000000000035,62.347558302478681469
0.197000000000000036,60.939997991764172980
0.198000000000000037,59.547311990537821202
0.199000000000000038,58.169043916755683199
0.200000000000000039,56.804831390941572522
0.201000000000000040,55.454407612845081132
0.202000000000000041,54.117600061033364511
0.203000000000000042,52.794326739577101648
0.204000000000000042,51.484590402733225289
0.205000000000000043,50.188471180122164128
0.206000000000000044,48.906118004766007346
0.207000000000000045,47.637739217563520810
0.208000000000000046,46.383592687011713451
0.209000000000000047,45.143975744530166594
0.210000000000000048,43.919215195516805750
0.211000000000000049,42.709657625815708570
0.212000000000000050,41.515660183832025609
0.213000000000000050,40.337581981030282918
0.214000000000000051,39.175776218667792250
0.215000000000000052,38.030583116815179778
0.216000000000000053,36.902323693271036120
0.217000000000000054,35.791294415014355934
0.218000000000000055,34.697762723358088977
0.219000000000000056,33.621963415880429693
0.220000000000000057,32.564095853345996545
0.221000000000000058,31.524321947982929970
0.222000000000000058,30.502764880387132962
0.223000000000000059,29.499508485727222507
0.224000000000000060,28.514597245528904068
0.225000000000000061,27.548036818853653074
0.226000000000000062,26.599795045876739152
0.227000000000000063,25.669803357455315052
0.228000000000000064,24.757958526014476774
0.229000000000000065,23.864124695740610349
0.230000000000000066,22.988135633458476548
0.231000000000000066,22.129797145491469479
0.232000000000000067,21.288889610108238770
0.233000000000000068,20.465170579698202857
0.234000000000000069,19.658377411475083107
0.235000000000000070,18.868229890178607633
0.236000000000000071,18.094432810845951565
0.237000000000000072,17.336678494185221666
0.238000000000000073,16.594649211352706430
0.239000000000000073,15.868019498969193393
0.240000000000000074,15.156458348976727279
0.241000000000000075,14.459631261420099690
0.242000000000000076,13.777202151419285059
0.243000000000000077,13.108835104477975619
0.244000000000000078,12.454195976849735672
0.245000000000000079,11.812953839962016644
0.246000000000000080,11.184782269890547468
0.247000000000000081,10.569360484592525751
0.248000000000000081,9.966374333065012081
0.249000000000000082,9.375517141809286414
0.250000000000000111,8.796490424971022293
0.251000000000000112,8.229004465309392558
0.252000000000000113,7.672778773741836922
0.253000000000000114,7.127542435638432039
0.254000000000000115,6.593034352312178825
0.255000000000000115,6.069003386293001512
0.256000000000000116,5.555208418996086195
0.257000000000000117,5.051418329317120204
0.258000000000000118,4.557411901523604314
0.259000000000000119,4.072977670574005948
0.260000000000000120,3.597913712699850386
0.261000000000000121,3.132027388741810192
0.262000000000000122,2.675135047347313222
0.263000000000000123,2.227061694727493268
0.264000000000000123,1.787640637239914509
0.265000000000000124,1.356713102621388334
0.266000000000000125,0.934127845246244370
0.267000000000000126,0.519740740337367724
0.268000000000000127,0.113414371612805723
0.269000000000000128,-0.284982383583066323
0.270000000000000129,-0.675574768037596973
0.271000000000000130,-1.058482554098182815
0.272000000000000131,-1.433820445940910293
0.273000000000000131,-1.801698472220386149
0.274000000000000132,-2.162222366990854905
0.275000000000000133,-2.515493937117478040
0.276000000000000134,-2.861611414702837308
0.277000000000000135,-3.200669793337284297
0.278000000000000136,-3.532761147244495525
0.279000000000000137,-3.857974932633076115
0.280000000000000138,-4.176398270783332478
0.281000000000000139,-4.488116212596601429
0.282000000000000139,-4.793211984511275503
0.283000000000000140,-5.091767215848421735
0.284000000000000141,-5.383862147789260533
0.285000000000000142,-5.669575824309444734
0.286000000000000143,-5.948986265501021720
0.287000000000000144,-6.222170623803320311
0.288000000000000145,-6.489205323741165543
0.289000000000000146,-6.750166185830762444
0.290000000000000147,-7.005128535365739317
0.291000000000000147,-7.254167296834481249
0.292000000000000148,-7.497357074750361505
0.293000000000000149,-7.734772221695783045
0.294000000000000150,-7.966486894393613127
0.295000000000000151,-8.192575098623608554
0.296000000000000152,-8.413110723799402280
0.297000000000000153,-8.628167568013449085
0.298000000000000154,-8.837819354344304656
0.299000000000000155,-9.042139739202857740
0.300000000000000155,-9.241202313472983931
0.301000000000000156,-9.435080597176947137
0.302000000000000157,-9.623848028369510033
0.303000000000000158,-9.807577946934360469
0.304000000000000159,-9.986343573926212969
0.305000000000000160,-10.160217987068945078
0.306000000000000161,-10.329274092987287048
0.307000000000000162,-10.493584596715766821
0.308000000000000163,-10.653221968994246893
0.309000000000000163,-10.808258411825764966
0.310000000000000164,-10.958765822738339324
0.311000000000000165,-11.104815758159221062
0.312000000000000166,-11.246479396277431206
0.313000000000000167,-11.383827499738503164
0.314000000000000168,-11.516930378484392605
0.315000000000000169,-11.645857853021754025
0.316000000000000170,-11.770679218373068409
0.317000000000000171,-11.891463208937238960
0.318000000000000171,-12.008277964460351228
0.319000000000000172,-12.121190997292186964
0.320000000000000173,-12.230269161080304485
0.321000000000000174,-12.335578621031157098
0.322000000000000175,-12.437184825847001690
0.323000000000000176,-12.535152481427315863
0.324000000000000177,-12.629545526405399514
0.325000000000000178,-12.720427109573552826
0.326000000000000179,-12.807859569234784303
0.327000000000000179,-12.891904414504105958
0.328000000000000180,-12.972622308569398797
0.329000000000000181,-13.050073053909693854
0.330000000000000182,-13.124315579457405789
0.331000000000000183,-13.195407929681540082
0.332000000000000184,-13.263407255559467757
0.333000000000000185,-13.328369807397232094
0.334000000000000186,-13.390350929451290796
0.335000000000000187,-13.449405056298207484
0.336000000000000187,-13.505585710893887708
0.337000000000000188,-13.558945504258838710
0.338000000000000189,-13.609536136722727662
0.339000000000000190,-13.657408400657988778
0.340000000000000191,-13.702612184629661130
0.341000000000000192,-13.745196478887066860
0.342000000000000193,-13.785209382121237809
0.343000000000000194,-13.822698109411357237
0.344000000000000195,-13.857709001282637828
0.345000000000000195,-13.890287533798858277
0.346000000000000196,-13.920478329612086199
0.347000000000000197,-13.948325169893848852
0.348000000000000198,-13.973871007072267147
0.349000000000000199,-13.997157978301467907
0.350000000000000200,-14.018227419590861160
0.351000000000000201,-14.037119880523770021
0.352000000000000202,-14.053875139496648572
0.353000000000000203,-14.068532219412537287
0.354000000000000203,-14.081129403764464314
0.355000000000000204,-14.091704253046639650
0.356000000000000205,-14.100293621434252245
0.357000000000000206,-14.106933673674893370
0.358000000000000207,-14.111659902136938882
0.359000000000000208,-14.114507143963530567
0.360000000000000209,-14.115509598282860892
0.361000000000000210,-14.114700843428272137
0.362000000000000210,-14.112113854124464396
0.363000000000000211,-14.107781018598595679
0.364000000000000212,-14.101734155577792862
0.365000000000000213,-14.094004531136974379
0.366000000000000214,-14.084622875363695726
0.367000000000000215,-14.073619398808924430
0.368000000000000216,-14.061023808695443549
0.369000000000000217,-14.046865324857440882
0.370000000000000218,-14.031172695387809313
0.371000000000000218,-14.013974211971207851
0.372000000000000219,-13.995297724883688062
0.373000000000000220,-13.975170657641450944
0.374000000000000221,-13.953620021283430930
0.375000000000000222,-13.930672428274103680
0.376000000000000223,-13.906354106015275107
0.377000000000000224,-13.880690909956754808
0.378000000000000225,-13.853708336297904324
0.379000000000000226,-13.825431534273459278
0.380000000000000226,-13.795885318018800803
0.381000000000000227,-13.765094178010732762
0.382000000000000228,-13.733082292081927989
0.383000000000000229,-13.699873536007810770
0.384000000000000230,-13.665491493666161560
0.385000000000000231,-13.629959466770921850
0.386000000000000232,-13.593300484182432086
0.387000000000000233,-13.555537310797598494
0.388000000000000234,-13.516692456024077984
0.389000000000000234,-13.476788181843852854
0.390000000000000235,-13.435846510471725068
0.391000000000000236,-13.393889231615577984
0.392000000000000237,-13.350937909345358179
0.393000000000000238,-13.307013888578769212
0.394000000000000239,-13.262138301191736645
0.395000000000000240,-13.216332071762579403
0.396000000000000241,-13.169615922959019727
0.397000000000000242,-13.122010380577382449
0.398000000000000242,-13.073535778244131933
0.399000000000000243,-13.024212261789552159
0.400000000000000244,-12.974059793304078880
0.401000000000000245,-12.923098154887771472
0.402000000000000246,-12.871346952103527528
0.403000000000000247,-12.818825617144849360
0.404000000000000248,-12.765553411729012367
0.405000000000000249,-12.711549429726513694
0.406000000000000250,-12.656832599537683137
0.407000000000000250,-12.601421686227338270
0.408000000000000251,-12.545335293428365731
0.409000000000000252,-12.488591865024933014
0.410000000000000253,-12.431209686626079503
0.411000000000000254,-12.373206886840216967
0.412000000000000255,-12.314601438360957886
0.413000000000000256,-12.255411158874727207
0.414000000000000257,-12.195653711800014563
0.415000000000000258,-12.135346606868512964
0.416000000000000258,-12.074507200557709652
0.417000000000000259,-12.013152696384599594
0.418000000000000260,-11.951300145069831515
0.419000000000000261,-11.888966444581431148
0.420000000000000262,-11.826168340066979923
0.421000000000000263,-11.762922423682997675
0.422000000000000264,-11.699245134329800067
0.423000000000000265,-11.635152757300129878
0.424000000000000266,-11.570661423849488258
0.425000000000000266,-11.505787110695720799
0.426000000000000267,-11.440545639455377724
0.427000000000000268,-11.374952676023957210
0.428000000000000269,-11.309023729906886757
0.429000000000000270,-11.242774153507992807
0.430000000000000271,-11.176219141381647404
0.431000000000000272,-11.109373729454883772
0.432000000000000273,-11.042252794225190016
0.433000000000000274,-10.974871051939752320
0.434000000000000274,-10.907243057761235150
0.435000000000000275,-10.839383204925496784
0.436000000000000276,-10.771305723895903128
0.437000000000000277,-10.703024681518824579
0.438000000000000278,-10.634553980184843880
0.439000000000000279,-10.565907356999707289
0.440000000000000280,-10.497098382968884422
0.441000000000000281,-10.428140462199504412
0.442000000000000282,-10.359046831123128740
0.443000000000000282,-10.289830557742495998
0.444000000000000283,-10.220504540905423596
0.445000000000000284,-10.151081509608591347
0.446000000000000285,-10.081574022333795071
0.447000000000000286,-10.011994466419348981
0.448000000000000287,-9.942355057468507340
0.449000000000000288,-9.872667838797381634
0.450000000000000289,-9.802944680923880938
0.451000000000000290,-9.733197281099638332
0.452000000000000290,-9.663437162886408416
0.453000000000000291,-9.593675675778253975
0.454000000000000292,-9.523923994870909127
0.455000000000000293,-9.454193120579251541
0.456000000000000294,-9.384493878403972644
0.457000000000000295,-9.314836918748206074
0.458000000000000296,-9.245232716784750338
0.459000000000000297,-9.175691572374566007
0.460000000000000298,-9.106223610036819238
0.461000000000000298,-9.036838778970999186
0.462000000000000299,-8.967546853131132423
0.463000000000000300,-8.898357431352312830
0.464000000000000301,-8.829279937529522115
0.465000000000000302,-8.760323620848733839
0.466000000000000303,-8.691497556069958108
0.467000000000000304,-8.622810643862157676
0.468000000000000305,-8.554271611189573576
0.469000000000000306,-8.485889011749097932
0.470000000000000306,-8.417671226458242728
0.471000000000000307,-8.349626463993025993
0.472000000000000308,-8.281762761375338400
0.473000000000000309,-8.214087984608980264
0.474000000000000310,-8.146609829363686828
0.475000000000000311,-8.079335821706351339
0.476000000000000312,-8.012273318878742501
0.477000000000000313,-7.945429510120578520
0.478000000000000314,-7.878811417537318285
0.479000000000000314,-7.812425897011609166
0.480000000000000315,-7.746279639157340746
0.481000000000000316,-7.680379170315495330
0.482000000000000317,-7.614730853590515380
0.483000000000000318,-7.549340889926289933
0.484000000000000319,-7.484215319220639984
0.485000000000000320,-7.419360021477155342
0.486000000000000321,-7.354780717993312678
0.487000000000000322,-7.290482972583733456
0.488000000000000322,-7.226472192837310793
0.489000000000000323,-7.162753631407310806
0.490000000000000324,-7.099332387333022965
0.491000000000000325,-7.036213407391914920
0.492000000000000326,-6.973401487481076799
0.493000000000000327,-6.910901274026822527
0.494000000000000328,-6.848717265421211842
0.495000000000000329,-6.786853813484375664
0.496000000000000330,-6.725315124951391610
0.497000000000000330,-6.664105262982667810
0.498000000000000331,-6.603228148696459243
0.499000000000000332,-6.542687562722676375
0.500000000000000333,-6.482487146776513498
0.501000000000000334,-6.422630405250950858
0.502000000000000335,-6.363120706826942197
0.503000000000000336,-6.303961286100231654
0.504000000000000337,-6.245155245223573459
0.505000000000000338,-6.186705555563397851
0.506000000000000338,-6.128615059369774798
0.507000000000000339,-6.070886471458616818
0.508000000000000340,-6.013522380905070186
0.509000000000000341,-5.956525252747180588
0.510000000000000342,-5.899897429698600426
0.511000000000000343,-5.843641133869583726
0.512000000000000344,-5.787758468495082909
0.513000000000000345,-5.732251419669149861
0.514000000000000346,-5.677121858084658079
0.515000000000000346,-5.622371540777343135
0.516000000000000347,-5.568002112873369214
0.517000000000000348,-5.514015109339544196
0.518000000000000349,-5.460411956735178762
0.519000000000000350,-5.407193974964974004
0.520000000000000351,-5.354362379031892161
0.521000000000000352,-5.301918280789418070
0.522000000000000353,-5.249862690692274292
0.523000000000000353,-5.198196519544869609
0.524000000000000354,-5.146920580246893806
0.525000000000000355,-5.096035589535068411
0.526000000000000356,-5.045542169720599546
0.527000000000000357,-4.995440850421597467
0.528000000000000358,-4.945732070289655447
0.529000000000000359,-4.896416178730250479
0.530000000000000360,-4.847493437616043011
0.531000000000000361,-4.798964022992732836
0.532000000000000361,-4.750828026776702906
0.533000000000000362,-4.703085458444069999
0.534000000000000363,-4.655736246710485915
0.535000000000000364,-4.608780241201226424
0.536000000000000365,-4.562217214111081276
0.537000000000000366,-4.516046861853565630
0.538000000000000367,-4.470268806698938668
0.539000000000000368,-4.424882598400766476
0.540000000000000369,-4.379887715810335536
0.541000000000000369,-4.335283568478815575
0.542000000000000370,-4.291069498246562475
0.543000000000000371,-4.247244780819313448
0.544000000000000372,-4.203808627330886338
0.545000000000000373,-4.160760185892104168
0.546000000000000374,-4.118098543125524813
0.547000000000000375,-4.075822725685782189
0.548000000000000376,-4.033931701765251177
0.549000000000000377,-3.992424382584704112
0.550000000000000377,-3.951299623868756328
0.551000000000000378,-3.910556227305851174
0.552000000000000379,-3.870192941992619318
0.553000000000000380,-3.830208465862308120
0.554000000000000381,-3.790601447097142085
0.555000000000000382,-3.751370485524529563
0.556000000000000383,-3.712514133996712040
0.557000000000000384,-3.674030899754017643
0.558000000000000385,-3.635919245771290775
0.559000000000000385,-3.598177592087585364
0.560000000000000386,-3.560804317118895224
0.561000000000000387,-3.523797758953865156
0.562000000000000388,-3.487156216632368633
0.563000000000000389,-3.450877951406907673
0.564000000000000390,-3.414961187986744306
0.565000000000000391,-3.379404115764709449
0.566000000000000392,-3.344204890026634125
0.567000000000000393,-3.309361633143441228
0.568000000000000393,-3.274872435745733945
0.569000000000000394,-3.240735357880983880
0.570000000000000395,-3.206948430153301555
0.571000000000000396,-3.173509654845679595
0.572000000000000397,-3.140417007024900009
0.573000000000000398,-3.107668435628938131
0.574000000000000399,-3.075261864537051970
0.575000000000000400,-3.043195193622451722
0.576000000000000401,-3.011466299787681322
0.577000000000000401,-2.980073037982783113
0.578000000000000402,-2.949013242206175889
0.579000000000000403,-2.918284726488416858
0.580000000000000404,-2.887885285858937223
0.581000000000000405,-2.857812697295698534
0.582000000000000406,-2.828064720657994080
0.583000000000000407,-2.798639099602369562
0.584000000000000408,-2.769533562481844680
0.585000000000000409,-2.740745823228466715
0.586000000000000409,-2.712273582219321355
0.587000000000000410,-2.684114527126143734
0.588000000000000411,-2.656266333748556363
0.589000000000000412,-2.628726666831164849
0.590000000000000413,-2.601493180864506094
0.591000000000000414,-2.574563520870076783
0.592000000000000415,-2.547935323169529642
0.593000000000000416,-2.521606216138144507
0.594000000000000417,-2.495573820942719845
0.595000000000000417,-2.469835752264140094
0.596000000000000418,-2.444389619004470493
0.597000000000000419,-2.419233024979106528
0.598000000000000420,-2.394363569593768837
0.599000000000000421,-2.369778848506749025
0.600000000000000422,-2.345476454276399725
0.601000000000000423,-2.321453976994106938
0.602000000000000424,-2.297709004902868113
0.603000000000000425,-2.274239125001627393
0.604000000000000425,-2.251041923635546560
0.605000000000000426,-2.228114987072342679
0.606000000000000427,-2.205455902064937135
0.607000000000000428,-2.183062256400376988
0.608000000000000429,-2.160931639435523799
0.609000000000000430,-2.139061642619272785
