# CNT15-NH2-2_HYDROGENSULFITE-AC
# h[nm],U(h)[kJ/mol]
0.149999999999999994,128.698737133504380381
0.150999999999999995,126.041498538361992132
0.151999999999999996,124.414787300421565419
0.152999999999999997,123.001289188909055383
0.153999999999999998,121.498854281676614164
0.154999999999999999,119.850116609567180603
0.156000000000000000,118.095142456838061662
0.157000000000000001,116.297061633121984414
0.158000000000000002,114.509275109477670185
0.159000000000000002,112.764995268936971229
0.160000000000000003,111.077692241871915257
0.161000000000000004,109.445950405693949392
0.162000000000000005,107.859275327370369268
0.163000000000000006,106.303202491230237570
0.164000000000000007,104.763092230238569869
0.165000000000000008,103.226545709652370419
0.166000000000000009,101.684636981655117438
0.167000000000000010,100.132249211366016084
0.168000000000000010,98.567806310055473773
0.169000000000000011,96.992651319237495500
0.170000000000000012,95.410267359630324790
0.171000000000000013,93.825480816870168610
0.172000000000000014,92.243737084039992169
0.173000000000000015,90.670499494251103556
0.174000000000000016,89.110792383857429400
0.175000000000000017,87.568888552040476725
0.176000000000000018,86.048128194462236706
0.177000000000000018,84.550849035507198437
0.178000000000000019,83.078404324807138437
0.179000000000000020,81.631245278208410809
0.180000000000000021,80.209046363787734890
0.181000000000000022,78.810854739366590138
0.182000000000000023,77.435248537668186941
0.183000000000000024,76.080492150250037753
0.184000000000000025,74.744679909005213858
0.185000000000000026,73.425862443445979011
0.186000000000000026,72.122152424384893266
0.187000000000000027,70.831808368983473656
0.188000000000000028,69.553296695854228915
0.189000000000000029,68.285333322995739991
0.190000000000000030,67.026906849491155072
0.191000000000000031,65.777285812634730178
0.192000000000000032,64.536012723530262747
0.193000000000000033,63.302887610423638876
0.194000000000000034,62.077943688463278704
0.195000000000000034,60.861417568834916381
0.196000000000000035,59.653716153933302735
0.197000000000000036,58.455382066349919512
0.198000000000000037,57.267059149757287173
0.199000000000000038,56.089459275614373723
0.200000000000000039,54.923331402707823656
0.201000000000000040,53.769433574704635248
0.202000000000000041,52.628508308816357442
0.203000000000000042,51.501261628575569773
0.204000000000000042,50.388345825931573074
0.205000000000000043,49.290345901325771649
0.206000000000000044,48.207769523081836383
0.207000000000000045,47.141040266689131499
0.208000000000000046,46.090493837364633123
0.209000000000000047,45.056376942493116644
0.210000000000000048,44.038848461032401360
0.211000000000000049,43.037982551717995250
0.212000000000000050,42.053773348103902663
0.213000000000000050,41.086140903587519801
0.214000000000000051,40.134938071316362596
0.215000000000000052,39.199958030290488864
0.216000000000000053,38.280942198369494633
0.217000000000000054,37.377588303853841012
0.218000000000000055,36.489558418683678553
0.219000000000000056,35.616486787161186101
0.220000000000000057,34.757987313737565671
0.221000000000000058,33.913660601288746932
0.222000000000000058,33.083100457049070542
0.223000000000000059,32.265899806749295919
0.224000000000000060,31.461655978375432596
0.225000000000000061,30.669975335290434515
0.226000000000000062,29.890477254273747576
0.227000000000000063,29.122797457418915457
0.228000000000000064,28.366590717917983255
0.229000000000000065,27.621532968708340405
0.230000000000000066,26.887322849945519465
0.231000000000000066,26.163682736477483104
0.232000000000000067,25.450359290131011392
0.233000000000000068,24.747123583866340368
0.234000000000000069,24.053770845902455733
0.235000000000000070,23.370119871937760081
0.236000000000000071,22.696012152758960667
0.237000000000000072,22.031310762996628938
0.238000000000000073,21.375899054693153545
0.239000000000000073,20.729679196824275067
0.240000000000000074,20.092570599070008086
0.241000000000000075,19.464508255069397080
0.242000000000000076,18.845441037198742862
0.243000000000000077,18.235329971660910076
0.244000000000000078,17.634146519427229549
0.245000000000000079,17.041870885384931000
0.246000000000000080,16.458490374955477620
0.247000000000000081,15.883997814494355438
0.248000000000000081,15.318390048990107033
0.249000000000000082,14.761666527965676465
0.250000000000000111,14.213827988063110652
0.251000000000000112,13.674875238571752689
0.252000000000000113,13.144808054140813880
0.253000000000000114,12.623624177105030597
0.254000000000000115,12.111318430236218902
0.255000000000000115,11.607881939315257469
0.256000000000000116,11.113301463685314019
0.257000000000000117,10.627558831891153801
0.258000000000000118,10.150630478620977115
0.259000000000000119,9.682487078432933103
0.260000000000000120,9.223093271158402828
0.261000000000000121,8.772407473416462764
0.262000000000000122,8.330381770334668090
0.263000000000000123,7.896961881341296063
0.264000000000000123,7.472087193759390900
0.265000000000000124,7.055690857884265199
0.266000000000000125,6.647699937251656088
0.267000000000000126,6.248035607894220966
0.268000000000000127,5.856613400529290914
0.269000000000000128,5.473343479813435053
0.270000000000000129,5.098130955029814615
0.271000000000000130,4.730876216835593340
0.272000000000000131,4.371475294983233617
0.273000000000000131,4.019820232233080048
0.274000000000000132,3.675799469991994251
0.275000000000000133,3.339298241537238532
0.276000000000000134,3.010198969013059500
0.277000000000000135,2.688381660716244514
0.278000000000000136,2.373724305510769739
0.279000000000000137,2.066103261530643387
0.280000000000000138,1.765393636640220976
0.281000000000000139,1.471469658420098137
0.282000000000000139,1.184205031734651303
0.283000000000000140,0.903473282210833895
0.284000000000000141,0.629148084217832748
0.285000000000000142,0.361103572181614541
0.286000000000000143,0.099214634297643919
0.287000000000000144,-0.156642812081284777
0.288000000000000145,-0.406591563908104692
0.289000000000000146,-0.650752895098584139
0.290000000000000147,-0.889246338560182203
0.291000000000000147,-1.122189487618195924
0.292000000000000148,-1.349697816728995026
0.293000000000000149,-1.571884521247006727
0.294000000000000150,-1.788860375904034683
0.295000000000000151,-2.000733611563444203
0.296000000000000152,-2.207609809728612760
0.297000000000000153,-2.409591814213150052
0.298000000000000154,-2.606779659319966136
0.299000000000000155,-2.799270513825605100
0.300000000000000155,-2.987158640025459277
0.301000000000000156,-3.170535367063249232
0.302000000000000157,-3.349489077744569610
0.303000000000000158,-3.524105208017372259
0.304000000000000159,-3.694466258293021443
0.305000000000000160,-3.860651815777762952
0.306000000000000161,-4.022738586986672971
0.307000000000000162,-4.180800439619244635
0.308000000000000163,-4.334908452987059846
0.309000000000000163,-4.485130976199522834
0.310000000000000164,-4.631533693332409385
0.311000000000000165,-4.774179694825585685
0.312000000000000166,-4.913129554380607722
0.313000000000000167,-5.048441410655211570
0.314000000000000168,-5.180171053079675403
0.315000000000000169,-5.308372011149591785
0.316000000000000170,-5.433095646580137661
0.317000000000000171,-5.554391247738061921
0.318000000000000171,-5.672306125799486232
0.319000000000000172,-5.786885712113921443
0.320000000000000173,-5.898173656286638256
0.321000000000000174,-6.006211924523818801
0.322000000000000175,-6.111040897816636175
0.323000000000000176,-6.212699469571449917
0.324000000000000177,-6.311225142324221160
0.325000000000000178,-6.406654123206854123
0.326000000000000179,-6.499021417862818062
0.327000000000000179,-6.588360922537061626
0.328000000000000180,-6.674705514092984515
0.329000000000000181,-6.758087137735358851
0.330000000000000182,-6.838536892243091359
0.331000000000000183,-6.916085112540264035
0.332000000000000184,-6.990761449456409871
0.333000000000000185,-7.062594946549114461
0.334000000000000186,-7.131614113882653427
0.335000000000000187,-7.197846998675828445
0.336000000000000187,-7.261321252750809307
0.337000000000000188,-7.322064196731595587
0.338000000000000189,-7.380102880957394973
0.339000000000000190,-7.435464143090951161
0.340000000000000191,-7.488174662415708838
0.341000000000000192,-7.538261010829034880
0.342000000000000193,-7.585749700550228347
0.343000000000000194,-7.630667228573299710
0.344000000000000195,-7.673040117904056601
0.345000000000000195,-7.712894955630749116
0.346000000000000196,-7.750258427884983981
0.347000000000000197,-7.785157351757549193
0.348000000000000198,-7.817618704240032912
0.349000000000000199,-7.847669648269000042
0.350000000000000200,-7.875337555954628144
0.351000000000000201,-7.900650029079973713
0.352000000000000202,-7.923634916960805796
0.353000000000000203,-7.944320331759229248
0.354000000000000203,-7.962734661346689613
0.355000000000000204,-7.978906579813996203
0.356000000000000205,-7.992865055727696344
0.357000000000000206,-8.004639358233161417
0.358000000000000207,-8.014259061105038384
0.359000000000000208,-8.021754044846515441
0.360000000000000209,-8.027154496938347705
0.361000000000000210,-8.030490910338105692
0.362000000000000210,-8.031794080329568430
0.363000000000000211,-8.031095099820857897
0.364000000000000212,-8.028425353188840319
0.365000000000000213,-8.023816508765492017
0.366000000000000214,-8.017300510060485053
0.367000000000000215,-8.008909565811958231
0.368000000000000216,-7.998676138955735482
0.369000000000000217,-7.986632934600576661
0.370000000000000218,-7.972812887095078516
0.371000000000000218,-7.957249146269004925
0.372000000000000219,-7.939975062929541139
0.373000000000000220,-7.921024173690182302
0.374000000000000221,-7.900430185207321543
0.375000000000000222,-7.878226957896698579
0.376000000000000223,-7.854448489199445937
0.377000000000000224,-7.829128896464252030
0.378000000000000225,-7.802302399509649433
0.379000000000000226,-7.774003302927428471
0.380000000000000226,-7.744265978185632449
0.381000000000000227,-7.713124845586364131
0.382000000000000228,-7.680614356131444609
0.383000000000000229,-7.646768973345723808
0.384000000000000230,-7.611623155105363026
0.385000000000000231,-7.575211335515940725
0.386000000000000232,-7.537567906882188140
0.387000000000000233,-7.498727201809105125
0.388000000000000234,-7.458723475471259690
0.389000000000000234,-7.417590888085065615
0.390000000000000235,-7.375363487616089841
0.391000000000000236,-7.332075192751427828
0.392000000000000237,-7.287759776164699943
0.393000000000000238,-7.242450848099323935
0.394000000000000239,-7.196181840293315979
0.395000000000000240,-7.148985990267104462
0.396000000000000241,-7.100896325993799607
0.397000000000000242,-7.051945650969299706
0.398000000000000242,-7.002166529698220288
0.399000000000000243,-6.951591273609409427
0.400000000000000244,-6.900251927413468600
0.401000000000000245,-6.848180255913112191
0.402000000000000246,-6.795407731275379781
0.403000000000000247,-6.741965520773601561
0.404000000000000248,-6.687884475005463791
0.405000000000000249,-6.633195116592243146
0.406000000000000250,-6.577927629362955386
0.407000000000000250,-6.522111848026147740
0.408000000000000251,-6.465777248330768501
0.409000000000000252,-6.408952937716608567
0.410000000000000253,-6.351667646453759808
0.411000000000000254,-6.293949719269621212
0.412000000000000255,-6.235827107461082264
0.413000000000000256,-6.177327361488764268
0.414000000000000257,-6.118477624049275754
0.415000000000000258,-6.059304623620962005
0.416000000000000258,-5.999834668477691757
0.417000000000000259,-5.940093641164870597
0.418000000000000260,-5.880106993431096107
0.419000000000000261,-5.819899741608483446
0.420000000000000262,-5.759496462434146480
0.421000000000000263,-5.698921289304917259
0.422000000000000264,-5.638197908956978033
0.423000000000000265,-5.577349558561652820
0.424000000000000266,-5.516399023228559351
0.425000000000000266,-5.455368633906564568
0.426000000000000267,-5.394280265673265795
0.427000000000000268,-5.333155336403082813
0.428000000000000269,-5.272014805804078108
0.429000000000000270,-5.210879174813503489
0.430000000000000271,-5.149768485341648550
0.431000000000000272,-5.088702320353912789
0.432000000000000273,-5.027699804280467255
0.433000000000000274,-4.966779603743261440
0.434000000000000274,-4.905959928589682661
0.435000000000000275,-4.845258533222520647
0.436000000000000276,-4.784692718215684870
0.437000000000000277,-4.724279332205140847
0.438000000000000278,-4.664034774044752751
0.439000000000000279,-4.603974995216583821
0.440000000000000280,-4.544115502485363223
0.441000000000000281,-4.484471360786908889
0.442000000000000282,-4.425057196340466348
0.443000000000000282,-4.365887199974816113
0.444000000000000283,-4.306975130658426743
0.445000000000000284,-4.248334319223848965
0.446000000000000285,-4.189977672276633314
0.447000000000000286,-4.131917676279599050
0.448000000000000287,-4.074166401802822080
0.449000000000000288,-4.016735507930518700
0.450000000000000289,-3.959636246815617433
0.451000000000000290,-3.902879468373401828
0.452000000000000290,-3.846475625105576057
0.453000000000000291,-3.790434777046283621
0.454000000000000292,-3.734766596821945228
0.455000000000000293,-3.679480374816791688
0.456000000000000294,-3.624585024436316694
0.457000000000000295,-3.570089087460996069
0.458000000000000296,-3.516000739482764370
0.459000000000000297,-3.462327795417121656
0.460000000000000298,-3.409077715083684179
0.461000000000000298,-3.356257608848483009
0.462000000000000299,-3.303874243321250681
0.463000000000000300,-3.251934047101278757
0.464000000000000301,-3.200443116565651280
0.465000000000000302,-3.149407221693798498
0.466000000000000303,-3.098831811922434287
0.467000000000000304,-3.048722022025356804
0.468000000000000305,-2.999082678012577219
0.469000000000000306,-2.949918303043505663
0.470000000000000306,-2.901233123349224563
0.471000000000000307,-2.853031074158788094
0.472000000000000308,-2.805315805625041570
0.473000000000000309,-2.758090688745290731
0.474000000000000310,-2.711358821272606967
0.475000000000000311,-2.665123033613460812
0.476000000000000312,-2.619385894707950246
0.477000000000000313,-2.574149717888494671
0.478000000000000314,-2.529416566713599934
0.479000000000000314,-2.485188260773145696
0.480000000000000315,-2.441466381461788071
0.481000000000000316,-2.398252277717491054
0.482000000000000317,-2.355547071721998176
0.483000000000000318,-2.313351664560553189
0.484000000000000319,-2.271666741838034742
0.485000000000000320,-2.230492779249062973
0.486000000000000321,-2.189830048099556503
0.487000000000000322,-2.149678620777545568
0.488000000000000322,-2.110038376170964014
0.489000000000000323,-2.070909005030610928
0.490000000000000324,-2.032290015276166706
0.491000000000000325,-1.994180737243653301
0.492000000000000326,-1.956580328872569607
0.493000000000000327,-1.919487780831302004
0.494000000000000328,-1.882901921579251736
0.495000000000000329,-1.846821422364468557
0.496000000000000330,-1.811244802155517419
0.497000000000000330,-1.776170432506535279
0.498000000000000331,-1.741596542354362231
0.499000000000000332,-1.707521222747009348
0.500000000000000333,-1.673942431502484895
0.501000000000000334,-1.640857997797290579
0.502000000000000335,-1.608265626684010074
0.503000000000000336,-1.576162903537361881
0.504000000000000337,-1.544547298428238680
0.505000000000000338,-1.513416170425362361
0.506000000000000338,-1.482766771824204799
0.507000000000000339,-1.452596252302895463
0.508000000000000340,-1.422901663004938255
0.509000000000000341,-1.393679960548663832
0.510000000000000342,-1.364928010963236460
0.511000000000000343,-1.336642593551327307
0.512000000000000344,-1.308820404678420424
0.513000000000000345,-1.281458061488917055
0.514000000000000346,-1.254552105549185947
0.515000000000000346,-1.228099006417733063
0.516000000000000347,-1.202095165142774702
0.517000000000000348,-1.176536917687575068
0.518000000000000349,-1.151420538283739914
0.519000000000000350,-1.126742242713041575
0.520000000000000351,-1.102498191518038073
0.521000000000000352,-1.078684493142072487
0.522000000000000353,-1.055297206999069370
0.523000000000000353,-1.032332346473664231
0.524000000000000354,-1.009785881852307998
0.525000000000000355,-0.987653743185811450
0.526000000000000356,-0.965931823084040908
0.527000000000000357,-0.944615979443408138
0.528000000000000358,-0.923702038107702128
0.529000000000000359,-0.903185795463163688
0.530000000000000360,-0.883063020968280932
0.531000000000000361,-0.863329459619220918
0.532000000000000361,-0.843980834351521381
0.533000000000000362,-0.825012848378901098
0.534000000000000363,-0.806421187469879008
0.535000000000000364,-0.788201522163070600
0.536000000000000365,-0.770349509921916975
0.537000000000000366,-0.752860797229708778
0.538000000000000367,-0.735731021625657844
0.539000000000000368,-0.718955813682980005
0.540000000000000369,-0.702530798929670630
0.541000000000000369,-0.686451599712991078
0.542000000000000370,-0.670713837008389935
0.543000000000000371,-0.655313132173794166
0.544000000000000372,-0.640245108650139172
0.545000000000000373,-0.625505393608973725
0.546000000000000374,-0.611089619548025320
0.547000000000000375,-0.596993425835613656
0.548000000000000376,-0.583212460204800109
0.549000000000000377,-0.569742380198105414
0.550000000000000377,-0.556578854563702374
0.551000000000000378,-0.543717564603966252
0.552000000000000379,-0.531154205477231023
0.553000000000000380,-0.518884487453650012
0.554000000000000381,-0.506904137125985366
0.555000000000000382,-0.495208898576265599
0.556000000000000383,-0.483794534499067619
0.557000000000000384,-0.472656827282398218
0.558000000000000385,-0.461791580046914008
0.559000000000000385,-0.451194617644409601
0.560000000000000386,-0.440861787616366407
0.561000000000000387,-0.430788961113420577
0.562000000000000388,-0.420972033776552734
0.563000000000000389,-0.411406926580856869
0.564000000000000390,-0.402089586642661090
0.565000000000000391,-0.393015987990836813
0.566000000000000392,-0.384182132303068025
0.567000000000000393,-0.375584049607912640
0.568000000000000393,-0.367217798953377972
0.569000000000000394,-0.359079469042836885
0.570000000000000395,-0.351165178839025927
0.571000000000000396,-0.343471078136863561
0.572000000000000397,-0.335993348105898981
0.573000000000000398,-0.328728201803023701
0.574000000000000399,-0.321671884656301643
0.575000000000000400,-0.314820674920509469
0.576000000000000401,-0.308170884105185894
0.577000000000000401,-0.301718857375869010
0.578000000000000402,-0.295460973929184190
0.579000000000000403,-0.289393647342456872
0.580000000000000404,-0.283513325898601953
0.581000000000000405,-0.277816492886827304
0.582000000000000406,-0.272299666879899205
0.583000000000000407,-0.266959401988559664
0.584000000000000408,-0.261792288093731118
0.585000000000000409,-0.256794951057141674
0.586000000000000409,-0.251964052910967795
0.587000000000000410,-0.247296292027099629
0.588000000000000411,-0.242788403266598868
0.589000000000000412,-0.238437158109974984
0.590000000000000413,-0.234239364768769665
0.591000000000000414,-0.230191868279091633
0.592000000000000415,-0.226291550577596118
0.593000000000000416,-0.222535330560460043
0.594000000000000417,-0.218920164125876282
0.595000000000000417,-0.215443044200627792
0.596000000000000418,-0.212101000751150875
0.597000000000000419,-0.208891100779719840
0.598000000000000420,-0.205810448306108895
0.599000000000000421,-0.202856184335314105
0.600000000000000422,-0.200025486811742953
0.601000000000000423,-0.197315570560353176
0.602000000000000424,-0.194723687215194258
0.603000000000000425,-0.192247125135791341
0.604000000000000425,-0.189883209311789702
0.605000000000000426,-0.187629301256286851
0.606000000000000427,-0.185482798888323780
0.607000000000000428,-0.183441136404780519
0.608000000000000429,-0.181501784142332118
0.609000000000000430,-0.179662248429532573
0.610000000000000431,-0.177920071429715915
0.611000000000000432,-0.176272830974863431
0.612000000000000433,-0.174718140390872190
0.613000000000000433,-0.173253648314639241
