# C-amorph-2_LYSSCA-AC
# h[nm],U(h)[kJ/mol]
0.149999999999999994,114.820078315036226968
0.150999999999999995,113.026864896430581098
0.151999999999999996,110.709873532543952024
0.152999999999999997,108.300431299129442664
0.153999999999999998,105.956952735726503079
0.154999999999999999,103.710663880588484176
0.156000000000000000,101.543549444730004438
0.157000000000000001,99.426717378650693036
0.158000000000000002,97.336653143341536065
0.159000000000000002,95.259909033978843240
0.160000000000000003,93.192373314280757768
0.161000000000000004,91.136526422775133938
0.162000000000000005,89.098434170977427016
0.163000000000000006,87.085260575386939763
0.164000000000000007,85.103547489569464801
0.165000000000000008,83.158235738802886772
0.166000000000000009,81.252284424012572117
0.167000000000000010,79.386712978845309863
0.168000000000000010,77.560902356364209709
0.169000000000000011,75.773022430410236439
0.170000000000000012,74.020488256627999135
0.171000000000000013,72.300380953758320857
0.172000000000000014,70.609796411268519023
0.173000000000000015,68.946105913479513561
0.174000000000000016,67.307127444797103522
0.175000000000000017,65.691215833462493379
0.176000000000000018,64.097285116054848686
0.177000000000000018,62.524778646477365385
0.178000000000000019,60.973602481640092776
0.179000000000000020,59.444036227535697492
0.180000000000000021,57.936633422913430991
0.181000000000000022,56.452121111905512407
0.182000000000000023,54.991305814978396427
0.183000000000000024,53.554990844282670537
0.184000000000000025,52.143907936729966934
0.185000000000000026,50.758664547090454278
0.186000000000000026,49.399706862931836326
0.187000000000000027,48.067297654471232704
0.188000000000000028,46.761507419998238788
0.189000000000000029,45.482216887742509925
0.190000000000000030,44.229128741647670608
0.191000000000000031,43.001786406556149700
0.192000000000000032,41.799597816643455417
0.193000000000000033,40.621862263468131005
0.194000000000000034,39.467798646267468143
0.195000000000000034,38.336573702307312317
0.196000000000000035,37.227329059692515045
0.197000000000000036,36.139206214358488012
0.198000000000000037,35.071368776450313476
0.199000000000000038,34.023021551912094651
0.200000000000000039,32.993426218673704398
0.201000000000000040,31.981913521411790668
0.202000000000000041,30.987892044289530702
0.203000000000000042,30.010853728428408260
0.204000000000000042,29.050376382105099538
0.205000000000000043,28.106123489338596499
0.206000000000000044,27.177841659489956783
0.207000000000000045,26.265356079719062166
0.208000000000000046,25.368564336574767282
0.209000000000000047,24.487428965450483531
0.210000000000000048,23.621969069722535295
0.211000000000000049,22.772251327457457393
0.212000000000000050,21.938380674700528772
0.213000000000000050,21.120490922339335782
0.214000000000000051,20.318735529881799096
0.215000000000000052,19.533278725452213109
0.216000000000000053,18.764287127893606311
0.217000000000000054,18.011921994853246076
0.218000000000000055,17.276332190706646941
0.219000000000000056,16.557647940559057531
0.220000000000000057,15.855975411616915594
0.221000000000000058,15.171392141097594930
0.222000000000000058,14.503943310578378600
0.223000000000000059,13.853638850249245351
0.224000000000000060,13.220451342821633034
0.225000000000000061,12.604314685713486455
0.226000000000000062,12.005123461398326867
0.227000000000000063,11.422732959268440567
0.228000000000000064,10.856959787804489892
0.229000000000000065,10.307583013041575981
0.230000000000000066,9.774345758058100131
0.231000000000000066,9.256957198269567755
0.232000000000000067,8.755094888483871074
0.233000000000000068,8.268407359771799747
0.234000000000000069,7.796516927050433310
0.235000000000000070,7.339022651703929867
0.236000000000000071,6.895503407430263465
0.237000000000000072,6.465521001671339363
0.238000000000000073,6.048623309345252608
0.239000000000000073,5.644347380052763263
0.240000000000000074,5.252222484388620494
0.241000000000000075,4.871773069384373045
0.242000000000000076,4.502521597380639840
0.243000000000000077,4.143991246726864475
0.244000000000000078,3.795708456598797742
0.245000000000000079,3.457205301879058279
0.246000000000000080,3.128021687445218468
0.247000000000000081,2.807707354338435213
0.248000000000000081,2.495823693138895294
0.249000000000000082,2.191945362449014389
0.250000000000000111,1.895661712684528100
0.251000000000000112,1.606578017404589387
0.252000000000000113,1.324316516181649250
0.253000000000000114,1.048517274535845534
0.254000000000000115,0.778838867744765517
0.255000000000000115,0.514958896407726519
0.256000000000000116,0.256574342505338115
0.257000000000000117,0.003401775368434556
0.258000000000000118,-0.244822582528861327
0.259000000000000119,-0.488342919694142008
0.260000000000000120,-0.727384019199760368
0.261000000000000121,-0.962151551187058751
0.262000000000000122,-1.192832463790110875
0.263000000000000123,-1.419595462108535155
0.264000000000000123,-1.642591565075089521
0.265000000000000124,-1.861954730350233067
0.266000000000000125,-2.077802537723221210
0.267000000000000126,-2.290236921894776678
0.268000000000000127,-2.499344945952381103
0.269000000000000128,-2.705199607314485277
0.270000000000000129,-2.907860668408288607
0.271000000000000130,-3.107375504849133829
0.272000000000000131,-3.303779964401044822
0.273000000000000131,-3.497099230512889623
0.274000000000000132,-3.687348684736988069
0.275000000000000133,-3.874534762843262481
0.276000000000000134,-4.058655799937808339
0.277000000000000135,-4.239702860376987736
0.278000000000000136,-4.417660548735011794
0.279000000000000137,-4.592507798531010543
0.280000000000000138,-4.764218635849919004
0.281000000000000139,-4.932762915399013792
0.282000000000000139,-5.098107026926692598
0.283000000000000140,-5.260214570292592207
0.284000000000000141,-5.419046997817004829
0.285000000000000142,-5.574564222853551243
0.286000000000000143,-5.726725193821653903
0.287000000000000144,-5.875488433204839822
0.288000000000000145,-6.020812541268687923
0.289000000000000146,-6.162656664476905632
0.290000000000000147,-6.300980928788879609
0.291000000000000147,-6.435746838205183451
0.292000000000000148,-6.566917639092326731
0.293000000000000149,-6.694458650962897828
0.294000000000000150,-6.818337564515486449
0.295000000000000151,-6.938524707849653694
0.296000000000000152,-7.054993281866378751
0.297000000000000153,-7.167719565945060545
0.298000000000000154,-7.276683095054673700
0.299000000000000155,-7.381866809510684746
0.300000000000000155,-7.483257178631369300
0.301000000000000156,-7.580844299578025414
0.302000000000000157,-7.674621972685168991
0.303000000000000158,-7.764587754598183622
0.304000000000000159,-7.850742990540164001
0.305000000000000160,-7.933092827025338245
0.306000000000000161,-8.011646206326393127
0.307000000000000162,-8.086415843986280549
0.308000000000000163,-8.157418190643355160
0.309000000000000163,-8.224673379412163143
0.310000000000000164,-8.288205160031935748
0.311000000000000165,-8.348040820960495267
0.312000000000000166,-8.404211100554839220
0.313000000000000167,-8.456750088439855872
0.314000000000000168,-8.505695118125546017
0.315000000000000169,-8.551086651890011936
0.316000000000000170,-8.592968158901513220
0.317000000000000171,-8.631385987507602664
0.318000000000000171,-8.666389232574031709
0.319000000000000172,-8.698029598710366628
0.320000000000000173,-8.726361260173284506
0.321000000000000174,-8.751440718193130408
0.322000000000000175,-8.773326656424350389
0.323000000000000176,-8.792079795175769874
0.324000000000000177,-8.807762745033297591
0.325000000000000178,-8.820439860444672320
0.326000000000000179,-8.830177093794706167
0.327000000000000179,-8.837041850458451364
0.328000000000000180,-8.841102845280893519
0.329000000000000181,-8.842429960894000018
0.330000000000000182,-8.841094108244842431
0.331000000000000183,-8.837167089674260012
0.332000000000000184,-8.830721464851169600
0.333000000000000185,-8.821830419835931636
0.334000000000000186,-8.810567639515356930
0.335000000000000187,-8.797007183622723048
0.336000000000000187,-8.781223366528731589
0.337000000000000188,-8.763290640962656752
0.338000000000000189,-8.743283485798848176
0.339000000000000190,-8.721276298019885687
0.340000000000000191,-8.697343288945994288
0.341000000000000192,-8.671558384800009733
0.342000000000000193,-8.643995131657620234
0.343000000000000194,-8.614726604815215794
0.344000000000000195,-8.583825322590536544
0.345000000000000195,-8.551363164556605057
0.346000000000000196,-8.517411294194619842
0.347000000000000197,-8.482040085938837848
0.348000000000000198,-8.445319056574460248
0.349000000000000199,-8.407316800938421153
0.350000000000000200,-8.368100931863409642
0.351000000000000201,-8.327738024296191810
0.352000000000000202,-8.286293563513460469
0.353000000000000203,-8.243831897351157068
0.354000000000000203,-8.200416192356936307
0.355000000000000204,-8.156108393769688547
0.356000000000000205,-8.110969189225349041
0.357000000000000206,-8.065057976084045066
0.358000000000000207,-8.018432832269821731
0.359000000000000208,-7.971150490511671016
0.360000000000000209,-7.923266315871948962
0.361000000000000210,-7.874834286446477094
0.362000000000000210,-7.825906977119369223
0.363000000000000211,-7.776535546254595310
0.364000000000000212,-7.726769725206082740
0.365000000000000213,-7.676657810527705017
0.366000000000000214,-7.626246658765164277
0.367000000000000215,-7.575581683712154124
0.368000000000000216,-7.524706856014224066
0.369000000000000217,-7.473664705004845921
0.370000000000000218,-7.422496322659813295
0.371000000000000218,-7.371241369557464118
0.372000000000000219,-7.319938082734435802
0.373000000000000220,-7.268623285328430939
0.374000000000000221,-7.217332397901850882
0.375000000000000222,-7.166099451342271998
0.376000000000000223,-7.114957101238607251
0.377000000000000224,-7.063936643633878631
0.378000000000000225,-7.013068032058572321
0.379000000000000226,-6.962379895751044323
0.380000000000000226,-6.911899558974445412
0.381000000000000227,-6.861653061342207316
0.382000000000000228,-6.811665179067281528
0.383000000000000229,-6.761959447053082606
0.384000000000000230,-6.712558181746929975
0.385000000000000231,-6.663482504679959284
0.386000000000000232,-6.614752366620062496
0.387000000000000233,-6.566386572267622235
0.388000000000000234,-6.518402805426393165
0.389000000000000234,-6.470817654585109935
0.390000000000000235,-6.423646638847779755
0.391000000000000236,-6.376904234153864870
0.392000000000000237,-6.330603899731903184
0.393000000000000238,-6.284758104733143114
0.394000000000000239,-6.239378354994167708
0.395000000000000240,-6.194475219880250627
0.396000000000000241,-6.150058359163651289
0.397000000000000242,-6.106136549893493637
0.398000000000000242,-6.062717713216457582
0.399000000000000243,-6.019808941109650924
0.400000000000000244,-5.977416522989436487
0.401000000000000245,-5.935545972162319828
0.402000000000000246,-5.894202052085889321
0.403000000000000247,-5.853388802410153247
0.404000000000000248,-5.813109564771496984
0.405000000000000249,-5.773367008313523563
0.406000000000000250,-5.734163154910810078
0.407000000000000250,-5.695499404073596672
0.408000000000000251,-5.657376557513002169
0.409000000000000252,-5.619794843348226543
0.410000000000000253,-5.582753939938621457
0.411000000000000254,-5.546252999325278488
0.412000000000000255,-5.510290670268047641
0.413000000000000256,-5.474865120865574752
0.414000000000000257,-5.439974060747025497
0.415000000000000258,-5.405614762825787345
0.416000000000000258,-5.371784084606342269
0.417000000000000259,-5.338478489036992514
0.418000000000000260,-5.305694064902058749
0.419000000000000261,-5.273426546748273047
0.420000000000000262,-5.241671334341164723
0.421000000000000263,-5.210423511648206940
0.422000000000000264,-5.179677865346214105
0.423000000000000265,-5.149428902851634682
0.424000000000000266,-5.119670869873016450
0.425000000000000266,-5.090397767485634439
0.426000000000000267,-5.061603368729190144
0.427000000000000268,-5.033281234729996889
0.428000000000000269,-5.005424730349741225
0.429000000000000270,-4.978027039363579931
0.430000000000000271,-4.951081179170749635
0.431000000000000272,-4.924580015041532199
0.432000000000000273,-4.898516273904746754
0.433000000000000274,-4.872882557680530802
0.434000000000000274,-4.847671356163434808
0.435000000000000275,-4.822875059461376068
0.436000000000000276,-4.798485969996235667
0.437000000000000277,-4.774496314072225189
0.438000000000000278,-4.750898253018474016
0.439000000000000279,-4.727683893912559832
0.440000000000000280,-4.704845299891809773
0.441000000000000281,-4.682374500059571787
0.442000000000000282,-4.660263498993832521
0.443000000000000282,-4.638504285865487020
0.444000000000000283,-4.617088843174125046
0.445000000000000284,-4.596009155108886191
0.446000000000000285,-4.575257215542313460
0.447000000000000286,-4.554825035665231781
0.448000000000000287,-4.534704651270482501
0.449000000000000288,-4.514888129693764185
0.450000000000000289,-4.495367576419538658
0.451000000000000290,-4.476135141360200187
0.452000000000000290,-4.457183024816647965
0.453000000000000291,-4.438503483128318550
0.454000000000000292,-4.420088834020910795
0.455000000000000293,-4.401931461659755129
0.456000000000000294,-4.384023821417012634
0.457000000000000295,-4.366358444360612268
0.458000000000000296,-4.348927941472929604
0.459000000000000297,-4.331725007607071021
0.460000000000000298,-4.314742425188592634
0.461000000000000298,-4.297973067670383784
0.462000000000000299,-4.281409902748372076
0.463000000000000300,-4.265045995345592367
0.464000000000000301,-4.248874510372109725
0.465000000000000302,-4.232888715268141588
0.466000000000000303,-4.217081982337637314
0.467000000000000304,-4.201447790879440092
0.468000000000000305,-4.185979729123103787
0.469000000000000306,-4.170671495976218779
0.470000000000000306,-4.155516902590102646
0.471000000000000307,-4.140509873750436221
0.472000000000000308,-4.125644449099476141
0.473000000000000309,-4.110914784196213034
0.474000000000000310,-4.096315151420722778
0.475000000000000311,-4.081839940728942295
0.476000000000000312,-4.067483660263846446
0.477000000000000313,-4.053240936828899521
0.478000000000000314,-4.039106516229570509
0.479000000000000314,-4.025075263488539612
0.480000000000000315,-4.011142162940022793
0.481000000000000316,-3.997302318208688199
0.482000000000000317,-3.983550952078240392
0.483000000000000318,-3.969883406254893998
0.484000000000000319,-3.956295141030610640
0.485000000000000320,-3.942781734850980602
0.486000000000000321,-3.929338883792409920
0.487000000000000322,-3.915962400953215017
0.488000000000000322,-3.902648215763009354
0.489000000000000323,-3.889392373214775489
0.490000000000000324,-3.876191033023762778
0.491000000000000325,-3.863040468717272802
0.492000000000000326,-3.849937066659286700
0.493000000000000327,-3.836877325013778428
0.494000000000000328,-3.823857852650375921
0.495000000000000329,-3.810875367996000129
0.496000000000000330,-3.797926697835907639
0.497000000000000330,-3.785008776067565694
0.498000000000000331,-3.772118642410498435
0.499000000000000332,-3.759253441075370628
0.500000000000000333,-3.746410419395251434
0.501000000000000334,-3.733586926421982977
0.502000000000000335,-3.720780411490547834
0.503000000000000336,-3.707988422754079583
0.504000000000000337,-3.695208605692179127
0.505000000000000338,-3.682438701595050823
0.506000000000000338,-3.669676546025892883
0.507000000000000339,-3.656920067263874419
0.508000000000000340,-3.644167284729937784
0.509000000000000341,-3.631416307397633769
0.510000000000000342,-3.618665332190967199
0.511000000000000343,-3.605912642371355670
0.512000000000000344,-3.593156605915501789
0.513000000000000345,-3.580395673886068941
0.514000000000000346,-3.567628378796918298
0.515000000000000346,-3.554853332974505342
0.516000000000000347,-3.542069226917093694
0.517000000000000348,-3.529274827653341440
0.518000000000000349,-3.516468977101596671
0.519000000000000350,-3.503650590431432565
0.520000000000000351,-3.490818654428625045
0.521000000000000352,-3.477972225864941258
0.522000000000000353,-3.465110429873807796
0.523000000000000353,-3.452232458333098997
0.524000000000000354,-3.439337568256092048
0.525000000000000355,-3.426425080191573436
0.526000000000000356,-3.413494376634083949
0.527000000000000357,-3.400544900445254370
0.528000000000000358,-3.387576153287001457
0.529000000000000359,-3.374587694067491928
0.530000000000000360,-3.361579137400544592
0.531000000000000361,-3.348550152079264652
0.532000000000000361,-3.335500459564527009
0.533000000000000362,-3.322429832488944523
0.534000000000000363,-3.309338093176928730
0.535000000000000364,-3.296225112181353722
0.536000000000000365,-3.283090806837345887
0.537000000000000366,-3.269935139833671123
0.538000000000000367,-3.256758117802102781
0.539000000000000368,-3.243559789925272163
0.540000000000000369,-3.230340246563200512
0.541000000000000369,-3.217099617899026320
0.542000000000000370,-3.203838072604055842
0.543000000000000371,-3.190555816522519628
0.544000000000000372,-3.177253091376230465
0.545000000000000373,-3.163930173489352349
0.546000000000000374,-3.150587372533468766
0.547000000000000375,-3.137225030293103956
0.548000000000000376,-3.123843519451868556
0.549000000000000377,-3.110443242399278940
0.550000000000000377,-3.097024630058391903
0.551000000000000378,-3.083588140734288885
0.552000000000000379,-3.070134258983492792
0.553000000000000380,-3.056663494504307632
0.554000000000000381,-3.043176381048096069
0.555000000000000382,-3.029673475351551293
0.556000000000000383,-3.016155356089804673
0.557000000000000384,-3.002622622850494860
0.558000000000000385,-2.989075895128582072
0.559000000000000385,-2.975515811341965744
0.560000000000000386,-2.961943027867735445
0.561000000000000387,-2.948358218099007999
0.562000000000000388,-2.934762071522206028
0.563000000000000389,-2.921155292814692217
0.564000000000000390,-2.907538600962589204
0.565000000000000391,-2.893912728398678080
0.566000000000000392,-2.880278420160189867
0.567000000000000393,-2.866636433066372724
0.568000000000000393,-2.852987534915604417
0.569000000000000394,-2.839332503701919030
0.570000000000000395,-2.825672126850772514
0.571000000000000396,-2.812007200473775281
0.572000000000000397,-2.798338528642307921
0.573000000000000398,-2.784666922679714052
0.574000000000000399,-2.770993200471916218
0.575000000000000400,-2.757318185796216348
0.576000000000000401,-2.743642707668062730
0.577000000000000401,-2.729967599705585002
0.578000000000000402,-2.716293699511612036
0.579000000000000403,-2.702621848072980448
0.580000000000000404,-2.688952889176917438
0.581000000000000405,-2.675287668844192002
0.582000000000000406,-2.661627034778862644
0.583000000000000407,-2.647971835834325383
0.584000000000000408,-2.634322921495454217
0.585000000000000409,-2.620681141376567602
0.586000000000000409,-2.607047344734960692
0.587000000000000410,-2.593422379999801741
0.588000000000000411,-2.579807094316061811
0.589000000000000412,-2.566202333103324573
0.590000000000000413,-2.552608939629124052
0.591000000000000414,-2.539027754596638875
0.592000000000000415,-2.525459615746457498
0.593000000000000416,-2.511905357472142608
0.594000000000000417,-2.498365810449375335
0.595000000000000417,-2.484841801278448781
0.596000000000000418,-2.471334152139756490
0.597000000000000419,-2.457843680462193259
0.598000000000000420,-2.444371198604042839
0.599000000000000421,-2.430917513546245079
0.600000000000000422,-2.417483426597720086
0.601000000000000423,-2.404069733112522922
0.602000000000000424,-2.390677222218599685
0.603000000000000425,-2.377306676557904730
0.604000000000000425,-2.363958872037593473
0.605000000000000426,-2.350634577592130903
0.606000000000000427,-2.337334554956036037
0.607000000000000428,-2.324059558446980311
0.608000000000000429,-2.310810334759159979
0.609000000000000430,-2.297587622766507298
0.610000000000000431,-2.284392153335715214
0.611000000000000432,-2.271224649148709585
0.612000000000000433,-2.258085824534398434
0.613000000000000433,-2.244976385309513489
