# C-amorph-2_DGL-JS
# h[nm],U(h)[kJ/mol]
0.200000000000000011,124.531460818970074911
0.201000000000000012,122.620678231116926327
0.202000000000000013,120.371746338202726179
0.203000000000000014,118.031043243837714840
0.204000000000000015,115.726901554290250829
0.205000000000000016,113.514810944181334662
0.206000000000000016,111.407824614465951640
0.207000000000000017,109.396481933612818693
0.208000000000000018,107.461408503964776173
0.209000000000000019,105.580891151041697640
0.210000000000000020,103.735080762734085624
0.211000000000000021,101.907997916810799666
0.212000000000000022,100.088164335517035397
0.213000000000000023,98.268426303374212694
0.214000000000000024,96.445350479053800541
0.215000000000000024,94.618439869351334437
0.216000000000000025,92.789324316707080698
0.217000000000000026,90.961015242883178189
0.218000000000000027,89.137270730625402848
0.219000000000000028,87.322088427345107675
0.220000000000000029,85.519325841478050165
0.221000000000000030,83.732437139536955328
0.222000000000000031,81.964310172463115123
0.223000000000000032,80.217185448178241813
0.224000000000000032,78.492638895621169581
0.225000000000000033,76.791611669107538773
0.226000000000000034,75.114472323112252639
0.227000000000000035,73.461099044561976257
0.228000000000000036,71.830972001632616752
0.229000000000000037,70.223268094744696555
0.230000000000000038,68.636952387273936438
0.231000000000000039,67.070862209065452930
0.232000000000000040,65.523781355835851059
0.233000000000000040,63.994502963013800922
0.234000000000000041,62.481880536611150490
0.235000000000000042,60.984867305715951602
0.236000000000000043,59.502544552859866656
0.237000000000000044,58.034139911299533310
0.238000000000000045,56.579036821744637109
0.239000000000000046,55.136776442079089122
0.240000000000000047,53.707053325710845115
0.241000000000000048,52.289706147593030039
0.242000000000000048,50.884704678640574116
0.243000000000000049,49.492134103171110837
0.244000000000000050,48.112177651344879337
0.245000000000000051,46.745098388156193892
0.246000000000000052,45.391220869102973268
0.247000000000000053,44.050913245196099410
0.248000000000000054,42.724570280025652380
0.249000000000000055,41.412597631521748553
0.250000000000000056,40.115397652249683347
0.251000000000000056,38.833356875226826332
0.252000000000000057,37.566835277445932206
0.253000000000000058,36.316157350217032729
0.254000000000000059,35.081604953472137254
0.255000000000000060,33.863411889496013885
0.256000000000000061,32.661760099200023433
0.257000000000000062,31.476777360034429165
0.258000000000000063,30.308536347911438469
0.259000000000000064,29.157054915077907253
0.260000000000000064,28.022297430770162663
0.261000000000000065,26.904177030807527871
0.262000000000000066,25.802558625201839959
0.263000000000000067,24.717262518640179536
0.264000000000000068,23.648068506666611199
0.265000000000000069,22.594720319963499833
0.266000000000000070,21.556930299814858643
0.267000000000000071,20.534384199185378606
0.268000000000000071,19.526746015516476263
0.269000000000000072,18.533662773021326586
0.270000000000000073,17.554769183716437908
0.271000000000000074,16.589692127468261162
0.272000000000000075,15.638054901811420550
0.273000000000000076,14.699481202107165245
0.274000000000000077,13.773598801680227766
0.275000000000000078,12.860042909855318172
0.276000000000000079,11.958459193290590150
0.277000000000000079,11.068506452667788764
0.278000000000000080,10.189858952668117809
0.279000000000000081,9.322208408256150491
0.280000000000000082,8.465265634654494775
0.281000000000000083,7.618761872055173967
0.282000000000000084,6.782449799132535873
0.283000000000000085,5.956104251843243880
0.284000000000000086,5.139522665873487384
0.285000000000000087,4.332525262479414607
0.286000000000000087,3.534954998407451310
0.287000000000000088,2.746677301134366367
0.288000000000000089,1.967579610876867280
0.289000000000000090,1.197570750733445211
0.290000000000000091,0.436580145983046564
0.291000000000000092,-0.315443086989312338
0.292000000000000093,-1.058531162398012926
0.293000000000000094,-1.792698738523302637
0.294000000000000095,-2.517944105051829418
0.295000000000000095,-3.234250427473530642
0.296000000000000096,-3.941587032843643978
0.297000000000000097,-4.639910722386138886
0.298000000000000098,-5.329167097599682101
0.299000000000000099,-6.009291887716734948
0.300000000000000100,-6.680212267542875892
0.301000000000000101,-7.341848155859745262
0.302000000000000102,-7.994113485694636090
0.303000000000000103,-8.636917438843445538
0.304000000000000103,-9.270165638064915115
0.305000000000000104,-9.893761291347093589
0.306000000000000105,-10.507606283571899297
0.307000000000000106,-11.111602211770488680
0.308000000000000107,-11.705651360969620001
0.309000000000000108,-12.289657618374800307
0.310000000000000109,-12.863527324323218437
0.311000000000000110,-13.427170059063064045
0.312000000000000111,-13.980499364986460620
0.313000000000000111,-14.523433404450907247
0.314000000000000112,-15.055895553781876828
0.315000000000000113,-15.577814934451854612
0.316000000000000114,-16.089126882785059536
0.317000000000000115,-16.589773359843150047
0.318000000000000116,-17.079703303409754511
0.319000000000000117,-17.558872924212078459
0.320000000000000118,-18.027245948699935241
0.321000000000000119,-18.484793810849438955
0.322000000000000119,-18.931495795572196528
0.323000000000000120,-19.367339136393812993
0.324000000000000121,-19.792319070123511437
0.325000000000000122,-20.206438851267030543
0.326000000000000123,-20.609709728945187379
0.327000000000000124,-21.002150889070335893
0.328000000000000125,-21.383789364505137343
0.329000000000000126,-21.754659915884840160
0.330000000000000127,-22.114804885728243988
0.331000000000000127,-22.464274028393781180
0.332000000000000128,-22.803124318360083578
0.333000000000000129,-23.131419739224085674
0.334000000000000130,-23.449231055716708738
0.335000000000000131,-23.756635570939344859
0.336000000000000132,-24.053716870920467841
0.337000000000000133,-24.340564558488051006
0.338000000000000134,-24.617273978346382535
0.339000000000000135,-24.883945935136079441
0.340000000000000135,-25.140686406150443588
0.341000000000000136,-25.387606250271034014
0.342000000000000137,-25.624820914580055842
0.343000000000000138,-25.852450140001412393
0.344000000000000139,-26.070617667219902813
0.345000000000000140,-26.279450944027427539
0.346000000000000141,-26.479080835147584594
0.347000000000000142,-26.669641335496351076
0.348000000000000143,-26.851269287745274994
0.349000000000000143,-27.024104104967001660
0.350000000000000144,-27.188287499059402563
0.351000000000000145,-27.343963215565139535
0.352000000000000146,-27.491276775428268309
0.353000000000000147,-27.630375224157699421
0.354000000000000148,-27.761406888800216564
0.355000000000000149,-27.884521143061807180
0.356000000000000150,-27.999868180856857691
0.357000000000000151,-28.107598798508831806
0.358000000000000151,-28.207864185774081278
0.359000000000000152,-28.300815725812277890
0.360000000000000153,-28.386604804182603345
0.361000000000000154,-28.465382626902886898
0.362000000000000155,-28.537300047571989126
0.363000000000000156,-28.602507403520597506
0.364000000000000157,-28.661154360924022910
0.365000000000000158,-28.713389768782899836
0.366000000000000159,-28.759361521650625093
0.367000000000000159,-28.799216430964833080
0.368000000000000160,-28.833100104818619513
0.369000000000000161,-28.861156835989639546
0.370000000000000162,-28.883529498029503202
0.371000000000000163,-28.900359449201800999
0.372000000000000164,-28.911786444045894484
0.373000000000000165,-28.917948552333314183
0.374000000000000166,-28.918982085176121899
0.375000000000000167,-28.915021528039307697
0.376000000000000167,-28.906199480405291524
0.377000000000000168,-28.892646601834314879
0.378000000000000169,-28.874491564162429569
0.379000000000000170,-28.851861009577778105
0.380000000000000171,-28.824879514315689732
0.381000000000000172,-28.793669557713961638
0.382000000000000173,-28.758351496371638234
0.383000000000000174,-28.719043543157084741
0.384000000000000175,-28.675861750814629403
0.385000000000000175,-28.628919999922544548
0.386000000000000176,-28.578329990960490647
0.387000000000000177,-28.524201240248327593
0.388000000000000178,-28.466641079525185631
0.389000000000000179,-28.405754658941827273
0.390000000000000180,-28.341644953246877492
0.391000000000000181,-28.274412770953155416
0.392000000000000182,-28.204156766277026946
0.393000000000000183,-28.130973453650693017
0.394000000000000183,-28.054957224614135214
0.395000000000000184,-27.976200366900513927
0.396000000000000185,-27.894793085535809496
0.397000000000000186,-27.810823525780655530
0.398000000000000187,-27.724377797749532704
0.399000000000000188,-27.635540002549390692
0.400000000000000189,-27.544392259786953048
0.401000000000000190,-27.451014736300823671
0.402000000000000191,-27.355485675981508820
0.403000000000000191,-27.257881430549190327
0.404000000000000192,-27.158276491165587174
0.405000000000000193,-27.056743520763070876
0.406000000000000194,-26.953353386980307249
0.407000000000000195,-26.848175195600067156
0.408000000000000196,-26.741276324390746311
0.409000000000000197,-26.632722457259241367
0.410000000000000198,-26.522577618628400131
0.411000000000000199,-26.410904207957564438
0.412000000000000199,-26.297763034330795762
0.413000000000000200,-26.183213351041423778
0.414000000000000201,-26.067312890107736223
0.415000000000000202,-25.950117896658337457
0.416000000000000203,-25.831683163131106795
0.417000000000000204,-25.712062063233492637
0.418000000000000205,-25.591306585616514724
0.419000000000000206,-25.469467367218726395
0.420000000000000207,-25.346593726240051581
0.421000000000000207,-25.222733694709496888
0.422000000000000208,-25.097934050613702084
0.423000000000000209,-24.972240349557218053
0.424000000000000210,-24.845696955927934368
0.425000000000000211,-24.718347073544514103
0.426000000000000212,-24.590232775765393569
0.427000000000000213,-24.461395035041334722
0.428000000000000214,-24.331873751896505809
0.429000000000000214,-24.201707783324955869
0.430000000000000215,-24.070934970591753910
0.431000000000000216,-23.939592166430504250
0.432000000000000217,-23.807715261630072234
0.433000000000000218,-23.675339211006146911
0.434000000000000219,-23.542498058754073753
0.435000000000000220,-23.409224963181934243
0.436000000000000221,-23.275552220823207961
0.437000000000000222,-23.141511289930711825
0.438000000000000222,-23.007132813354214562
0.439000000000000223,-22.872446640805407014
0.440000000000000224,-22.737481850515017356
0.441000000000000225,-22.602266770287769759
0.442000000000000226,-22.466828997961922454
0.443000000000000227,-22.331195421280597202
0.444000000000000228,-22.195392237183288131
0.445000000000000229,-22.059444970526282503
0.446000000000000230,-21.923378492241177184
0.447000000000000230,-21.787217036941807891
0.448000000000000231,-21.650984219989641844
0.449000000000000232,-21.514703054028444740
0.450000000000000233,-21.378395964999551637
0.451000000000000234,-21.242084807648822675
0.452000000000000235,-21.105790880537256271
0.453000000000000236,-20.969534940566770587
0.454000000000000237,-20.833337217033548683
0.455000000000000238,-20.697217425220657105
0.456000000000000238,-20.561194779542489641
0.457000000000000239,-20.425288006252948492
0.458000000000000240,-20.289515355730038948
0.459000000000000241,-20.153894614348548231
0.460000000000000242,-20.018443115953651557
0.461000000000000243,-19.883177752946956218
0.462000000000000244,-19.748114986997642006
0.463000000000000245,-19.613270859389871248
0.464000000000000246,-19.478661001019084154
0.465000000000000246,-19.344300642048196437
0.466000000000000247,-19.210204621235508426
0.467000000000000248,-19.076387394945420795
0.468000000000000249,-18.942863045853318482
0.469000000000000250,-18.809645291355320040
0.470000000000000251,-18.676747491693710401
0.471000000000000252,-18.544182657808338632
0.472000000000000253,-18.411963458924685000
0.473000000000000254,-18.280102229888012033
0.474000000000000254,-18.148610978253920223
0.475000000000000255,-18.017501391144449485
0.476000000000000256,-17.886784841879258323
0.477000000000000257,-17.756472396390854840
0.478000000000000258,-17.626574819432544672
0.479000000000000259,-17.497102580587888809
0.480000000000000260,-17.368065860089711094
0.481000000000000261,-17.239474554456776900
0.482000000000000262,-17.111338281955930540
0.483000000000000262,-16.983666387897319083
0.484000000000000263,-16.856467949769683656
0.485000000000000264,-16.729751782223146961
0.486000000000000265,-16.603526441905980704
0.487000000000000266,-16.477800232161996519
0.488000000000000267,-16.352581207594948154
0.489000000000000268,-16.227877178505956124
0.490000000000000269,-16.103695715209717321
0.491000000000000270,-15.980044152235389987
0.492000000000000270,-15.856929592417154495
0.493000000000000271,-15.734358910880015259
0.494000000000000272,-15.612338758925702109
0.495000000000000273,-15.490875567823142234
0.496000000000000274,-15.369975552508620353
0.497000000000000275,-15.249644715199442757
0.498000000000000276,-15.129888848925654443
0.499000000000000277,-15.010713540983633862
0.500000000000000222,-14.892124176315302719
0.501000000000000334,-14.774125940816773550
0.502000000000000224,-14.656723824579753312
0.503000000000000336,-14.539922625068879114
0.504000000000000226,-14.423726950238537015
0.505000000000000338,-14.308141221591412773
0.506000000000000227,-14.193169677182513766
0.507000000000000339,-14.078816374570362058
0.508000000000000229,-13.965085193718769219
0.509000000000000341,-13.851979839850798726
0.510000000000000231,-13.739503846257992592
0.511000000000000343,-13.627660577066126990
0.512000000000000233,-13.516453229960362137
0.513000000000000345,-13.405884838870864684
0.514000000000000234,-13.295958276621600902
0.515000000000000346,-13.186676257542933044
0.516000000000000236,-13.078041340050656771
0.517000000000000348,-12.970055929192009003
0.518000000000000238,-12.862722279160877292
0.519000000000000350,-12.756042495782697443
0.520000000000000240,-12.650018538970945414
0.521000000000000352,-12.544652225155859426
0.522000000000000242,-12.439945229686754757
0.523000000000000353,-12.335899089208627544
0.524000000000000243,-12.232515204014200449
0.525000000000000355,-12.129794840372003506
0.526000000000000245,-12.027739132831602120
0.527000000000000357,-11.926349086506110808
0.528000000000000247,-11.825625579333346238
0.529000000000000359,-11.725569364315557408
0.530000000000000249,-11.626181071738761474
0.531000000000000361,-11.527461211371822003
0.532000000000000250,-11.429410174646051246
0.533000000000000362,-11.332028236815350652
0.534000000000000252,-11.235315559097660554
0.535000000000000364,-11.139272190797637307
0.536000000000000254,-11.043898071411295092
0.537000000000000366,-10.949193032712290830
0.538000000000000256,-10.855156800820765284
0.539000000000000368,-10.761788998254187888
0.540000000000000258,-10.669089145961146770
0.541000000000000369,-10.577056665337359220
0.542000000000000259,-10.485690880224973753
0.543000000000000371,-10.394991018894332413
0.544000000000000261,-10.304956216008990921
0.545000000000000373,-10.215585514573561454
0.546000000000000263,-10.126877867864841676
0.547000000000000375,-10.038832141345643834
0.548000000000000265,-9.951447114562208540
0.549000000000000377,-9.864721483024215587
0.550000000000000266,-9.778653860068249770
0.551000000000000378,-9.693242778704028950
0.552000000000000268,-9.608486693443834881
0.553000000000000380,-9.524383982114731140
0.554000000000000270,-9.440932947653918106
0.555000000000000382,-9.358131819886665426
0.556000000000000272,-9.275978757287363763
0.557000000000000384,-9.194471848722955087
0.558000000000000274,-9.113609115179423625
0.559000000000000385,-9.033388511470466398
0.560000000000000275,-8.953807927929073429
0.561000000000000387,-8.874865192081259124
0.562000000000000277,-8.796558070302364030
0.563000000000000389,-8.718884269455520197
0.564000000000000279,-8.641841438512491536
0.565000000000000391,-8.565427170156503678
0.566000000000000281,-8.489639002367335152
0.567000000000000393,-8.414474419988225762
0.568000000000000282,-8.339930856275007187
0.569000000000000394,-8.266005694426786121
0.570000000000000284,-8.192696269098799888
0.571000000000000396,-8.119999867896737555
0.572000000000000286,-8.047913732853078983
0.573000000000000398,-7.976435061884791011
0.574000000000000288,-7.905561010232946551
0.575000000000000400,-7.835288691883684820
0.576000000000000290,-7.765615180970949716
0.577000000000000401,-7.696537513160521371
0.578000000000000291,-7.628052687015754785
0.579000000000000403,-7.560157665344599209
0.580000000000000293,-7.492849376528307737
0.581000000000000405,-7.426124715831290857
0.582000000000000295,-7.359980546692780123
0.583000000000000407,-7.294413701999597599
0.584000000000000297,-7.229420985340615502
0.585000000000000409,-7.164999172242541015
0.586000000000000298,-7.101145011387288264
0.587000000000000410,-7.037855225810733195
0.588000000000000300,-6.975126514083166640
0.589000000000000412,-6.912955551471094751
0.590000000000000302,-6.851338991080842433
0.591000000000000414,-6.790273464983679119
0.592000000000000304,-6.729755585322743983
0.593000000000000416,-6.669781945401560108
0.594000000000000306,-6.610349120754579033
0.595000000000000417,-6.551453670199377299
0.596000000000000307,-6.493092136870987297
0.597000000000000419,-6.435261049238087949
0.598000000000000309,-6.377956922101441606
0.599000000000000421,-6.321176257574366630
0.600000000000000311,-6.264915546045628503
0.601000000000000423,-6.209171267124528271
0.602000000000000313,-6.153939890568668858
0.603000000000000425,-6.099217877193991555
0.604000000000000314,-6.045001679767842084
0.605000000000000426,-5.991287743884444517
0.606000000000000316,-5.938072508823577067
0.607000000000000428,-5.885352408392019008
0.608000000000000318,-5.833123871748340683
0.609000000000000430,-5.781383324210726649
0.610000000000000320,-5.730127188048418141
0.611000000000000432,-5.679351883256435585
0.612000000000000322,-5.629053828314155794
0.613000000000000433,-5.579229440927525374
0.614000000000000323,-5.529875138755300235
0.615000000000000435,-5.480987340119274798
0.616000000000000325,-5.432562464698821536
0.617000000000000437,-5.384596934209679553
0.618000000000000327,-5.337087173067393664
0.619000000000000439,-5.290029609035277858
0.620000000000000329,-5.243420673857309922
0.621000000000000441,-5.197256803875968778
0.622000000000000330,-5.151534440635212597
0.623000000000000442,-5.106250031468727357
0.624000000000000332,-5.061400030073706091
0.625000000000000444,-5.016980897070180134
0.626000000000000334,-4.972989100546216790
0.627000000000000446,-4.929421116588988738
0.628000000000000336,-4.886273429802054480
0.629000000000000448,-4.843542533808858686
0.630000000000000338,-4.801224931742796187
0.631000000000000449,-4.759317136723780095
0.632000000000000339,-4.717815672321747478
0.633000000000000451,-4.676717073007042202
0.634000000000000341,-4.636017884588044424
0.635000000000000453,-4.595714664636031621
0.636000000000000343,-4.555803982897629112
0.637000000000000455,-4.516282421694841176
0.638000000000000345,-4.477146576313065118
0.639000000000000457,-4.438393055376934626
0.640000000000000346,-4.400018481214599042
0.641000000000000458,-4.362019490210131245
0.642000000000000348,-4.324392733144696521
0.643000000000000460,-4.287134875526267486
0.644000000000000350,-4.250242597908380660
0.645000000000000462,-4.213712596197828120
0.646000000000000352,-4.177541581951726535
0.647000000000000464,-4.141726282663823255
0.648000000000000353,-4.106263442040633649
0.649000000000000465,-4.071149820267043751
0.650000000000000355,-4.036382194262126077
0.651000000000000467,-4.001957357924815106
0.652000000000000357,-3.967872122370033061
0.653000000000000469,-3.934123316155107908
0.654000000000000359,-3.900707785496926761
0.655000000000000471,-3.867622394479716341
0.656000000000000361,-3.834864025253924780
0.657000000000000473,-3.802429578226010243
