# C-amorph-2_GANSCA-JS
# h[nm],U(h)[kJ/mol]
0.200000000000000011,51.040219512244377142
0.201000000000000012,50.345284346368927686
0.202000000000000013,49.157475593880967324
0.203000000000000014,47.771803127923135435
0.204000000000000015,46.347751111523372458
0.205000000000000016,44.961286983016357510
0.206000000000000016,43.639525195289337489
0.207000000000000017,42.383226648067271469
0.208000000000000018,41.180895526162231590
0.209000000000000019,40.017179345195643236
0.210000000000000020,38.877497178539584866
0.211000000000000021,37.750247636140386476
0.212000000000000022,36.627530450907762827
0.213000000000000023,35.505014064144525321
0.214000000000000024,34.381366430713910631
0.215000000000000024,33.257514719475381071
0.216000000000000025,32.135894587539013401
0.217000000000000026,31.019778455506212822
0.218000000000000027,29.912725160677432257
0.219000000000000028,28.818163446213503676
0.220000000000000029,27.739103757891655277
0.221000000000000030,26.677962976866314904
0.222000000000000031,25.636482282484735151
0.223000000000000032,24.615717365175804332
0.224000000000000032,23.616081328137607187
0.225000000000000033,22.637422886550375267
0.226000000000000034,21.679125262510829941
0.227000000000000035,20.740214073419632967
0.228000000000000036,19.819465269293353060
0.229000000000000037,18.915506648213071372
0.230000000000000038,18.026908601246397268
0.231000000000000039,17.152261490253309262
0.232000000000000040,16.290238456580048876
0.233000000000000040,15.439643526521654948
0.234000000000000041,14.599445660706200201
0.235000000000000042,13.768799932737309177
0.236000000000000043,12.947057360584306451
0.237000000000000044,12.133765092582525114
0.238000000000000045,11.328658704617522446
0.239000000000000046,10.531648327528211340
0.240000000000000047,9.742800220541411704
0.241000000000000048,8.962315259586093319
0.242000000000000048,8.190505636290225766
0.243000000000000049,7.427770878204340121
0.244000000000000050,6.674574113899586436
0.245000000000000051,5.931419325821599919
0.246000000000000052,5.198830164612605387
0.247000000000000053,4.477330744601927037
0.248000000000000054,3.767428703380564237
0.249000000000000055,3.069600689712038921
0.250000000000000056,2.384280343499035393
0.251000000000000056,1.711848748483890459
0.252000000000000057,1.052627271719110080
0.253000000000000058,0.406872652214134489
0.254000000000000059,-0.225225837013575264
0.255000000000000060,-0.843547355611527161
0.256000000000000061,-1.448038809587024689
0.257000000000000062,-2.038712737882159232
0.258000000000000063,-2.615643998127938463
0.259000000000000064,-3.178965472569358575
0.260000000000000064,-3.728863005340556924
0.261000000000000065,-4.265569769053854543
0.262000000000000066,-4.789360243018006891
0.263000000000000067,-5.300543968147432672
0.264000000000000068,-5.799459225472797463
0.265000000000000069,-6.286466766699612130
0.266000000000000070,-6.761943706960792611
0.267000000000000071,-7.226277672155016596
0.268000000000000071,-7.679861276345128829
0.269000000000000072,-8.123086988830946709
0.270000000000000073,-8.556342435859470186
0.271000000000000074,-8.980006168591234683
0.272000000000000075,-9.394443916955539819
0.273000000000000076,-9.800005338411597933
0.274000000000000077,-10.197021261370398548
0.275000000000000078,-10.585801415080061005
0.276000000000000079,-10.966632631074400450
0.277000000000000079,-11.339777495756930392
0.278000000000000080,-11.705473429253093087
0.279000000000000081,-12.063932162225450284
0.280000000000000082,-12.415339579812323834
0.281000000000000083,-12.759855900129085882
0.282000000000000084,-13.097616153767020819
0.283000000000000085,-13.428730930349058070
0.284000000000000086,-13.753287358368670112
0.285000000000000087,-14.071350285163950034
0.286000000000000087,-14.382963624891285548
0.287000000000000088,-14.688151843688558529
0.288000000000000089,-14.986921552794644441
0.289000000000000090,-15.279263182161566093
0.290000000000000091,-15.565152709005365850
0.291000000000000092,-15.844553417747388124
0.292000000000000093,-16.117417669856997975
0.293000000000000094,-16.383688664185410033
0.294000000000000095,-16.643302170448734500
0.295000000000000095,-16.896188220550389048
0.296000000000000096,-17.142272744407669904
0.297000000000000097,-17.381479138847605981
0.298000000000000098,-17.613729759948821396
0.299000000000000099,-17.838947330919545209
0.300000000000000100,-18.057056259207570292
0.301000000000000101,-18.267983858033080224
0.302000000000000102,-18.471661468913428195
0.303000000000000103,-18.668025483012947063
0.304000000000000103,-18.857018260296744216
0.305000000000000104,-19.038588946500421883
0.306000000000000105,-19.212694188848782773
0.307000000000000106,-19.379298752269534134
0.308000000000000107,-19.538376038558400438
0.309000000000000108,-19.689908511563846361
0.310000000000000109,-19.833888031978883504
0.311000000000000110,-19.970316105759437164
0.312000000000000111,-20.099204050540560473
0.313000000000000111,-20.220573084697782917
0.314000000000000112,-20.334454343908596741
0.315000000000000113,-20.440888830214024807
0.316000000000000114,-20.539927298667606692
0.317000000000000115,-20.631630086695896154
0.318000000000000116,-20.716066891285048968
0.319000000000000117,-20.793316499058406066
0.320000000000000118,-20.863466474224090064
0.321000000000000119,-20.926612809256052827
0.322000000000000119,-20.982859543028418159
0.323000000000000120,-21.032318350958540520
0.324000000000000121,-21.075108111530301613
0.325000000000000122,-21.111354453370584139
0.326000000000000123,-21.141189286841804318
0.327000000000000124,-21.164750323893844808
0.328000000000000125,-21.182180589693995643
0.329000000000000126,-21.193627929324179604
0.330000000000000127,-21.199244512604316526
0.331000000000000127,-21.199186339870635720
0.332000000000000128,-21.193612751309593989
0.333000000000000129,-21.182685942223333342
0.334000000000000130,-21.166570486382973115
0.335000000000000131,-21.145432869412218224
0.336000000000000132,-21.119441033936297458
0.337000000000000133,-21.088763938032276002
0.338000000000000134,-21.053571128325067718
0.339000000000000135,-21.014032328890937862
0.340000000000000135,-20.970317046956850504
0.341000000000000136,-20.922594196219645113
0.342000000000000137,-20.871031738454153270
0.343000000000000138,-20.815796343934220403
0.344000000000000139,-20.757053071054876625
0.345000000000000140,-20.694965065417644468
0.346000000000000141,-20.629693278524143807
0.347000000000000142,-20.561396206115247765
0.348000000000000143,-20.490229646094668681
0.349000000000000143,-20.416346475885358558
0.350000000000000144,-20.339896448985776090
0.351000000000000145,-20.261026010419243448
0.352000000000000146,-20.179878130704107519
0.353000000000000147,-20.096592157913534038
0.354000000000000148,-20.011303687343051649
0.355000000000000149,-19.924144448258537921
0.356000000000000150,-19.835242207159669903
0.357000000000000151,-19.744720686960810951
0.358000000000000151,-19.652699501465036747
0.359000000000000152,-19.559294104484713728
0.360000000000000153,-19.464615752945839233
0.361000000000000154,-19.368771483300580627
0.362000000000000155,-19.271864100564524591
0.363000000000000156,-19.173992179290763715
0.364000000000000157,-19.075250075791899462
0.365000000000000158,-18.975727950923801046
0.366000000000000159,-18.875511802749727508
0.367000000000000159,-18.774683508411566635
0.368000000000000160,-18.673320874545048298
0.369000000000000161,-18.571497695588067955
0.370000000000000162,-18.469283819345282183
0.371000000000000163,-18.366745219188068461
0.372000000000000164,-18.263944072285806186
0.373000000000000165,-18.160938843283126687
0.374000000000000166,-18.057784372856634292
0.375000000000000167,-17.954531970605280833
0.376000000000000167,-17.851229511749078682
0.377000000000000168,-17.747921537132285152
0.378000000000000169,-17.644649356049029620
0.379000000000000170,-17.541451151431260769
0.380000000000000171,-17.438362086961031849
0.381000000000000172,-17.335414415691381862
0.382000000000000173,-17.232637589781944598
0.383000000000000174,-17.130058370977771176
0.384000000000000175,-17.027700941481036523
0.385000000000000175,-16.925587014887117476
0.386000000000000176,-16.823735946877299341
0.387000000000000177,-16.722164845381016107
0.388000000000000178,-16.620888679940822641
0.389000000000000179,-16.519920390032591939
0.390000000000000180,-16.419270992112778629
0.391000000000000181,-16.318949685182825959
0.392000000000000182,-16.218963954678951467
0.393000000000000183,-16.119319674512343710
0.394000000000000183,-16.020021207101944327
0.395000000000000184,-15.921071501257406666
0.396000000000000185,-15.822472187785487918
0.397000000000000186,-15.724223672707541510
0.398000000000000187,-15.626325227989761757
0.399000000000000188,-15.528775079701166106
0.400000000000000189,-15.431570493526820087
0.401000000000000190,-15.334707857575883949
0.402000000000000191,-15.238182762435277695
0.403000000000000191,-15.141990078430486832
0.404000000000000192,-15.046124030065101351
0.405000000000000193,-14.950578267620025841
0.406000000000000194,-14.855345935902295906
0.407000000000000195,-14.760419740141623279
0.408000000000000196,-14.665792009040407251
0.409000000000000197,-14.571454754990242009
0.410000000000000198,-14.477399731474600131
0.411000000000000199,-14.383618487683241582
0.412000000000000199,-14.290102420369844793
0.413000000000000200,-14.196842822989234278
0.414000000000000201,-14.103830932155526412
0.415000000000000202,-14.011057971466437166
0.416000000000000203,-13.918515192743265985
0.417000000000000204,-13.826193914739121738
0.418000000000000205,-13.734085559371269625
0.419000000000000206,-13.642181685536124647
0.420000000000000207,-13.550474020567742528
0.421000000000000207,-13.458954489402746191
0.422000000000000208,-13.367615241516343616
0.423000000000000209,-13.276448675695595725
0.424000000000000210,-13.185447462717174716
0.425000000000000211,-13.094604565997849832
0.426000000000000212,-13.003913260286642739
0.427000000000000213,-12.913367148467935763
0.428000000000000214,-12.822960176545203481
0.429000000000000214,-12.732686646875034597
0.430000000000000215,-12.642541229720903218
0.431000000000000216,-12.552518973196082896
0.432000000000000217,-12.462615311664350770
0.433000000000000218,-12.372826072666780917
0.434000000000000219,-12.283147482442055676
0.435000000000000220,-12.193576170107027323
0.436000000000000221,-12.104109170563132736
0.437000000000000222,-12.014743926193313328
0.438000000000000222,-11.925478287413019629
0.439000000000000223,-11.836310512137568907
0.440000000000000224,-11.747239264226799094
0.441000000000000225,-11.658263610966727697
0.442000000000000226,-11.569383019646512167
0.443000000000000227,-11.480597353287420148
0.444000000000000228,-11.391906865579182195
0.445000000000000229,-11.303312195077520386
0.446000000000000230,-11.214814358715017306
0.447000000000000230,-11.126414744676093704
0.448000000000000231,-11.038115104685104484
0.449000000000000232,-10.949917545754983550
0.450000000000000233,-10.861824521442457581
0.451000000000000234,-10.773838822653875269
0.452000000000000235,-10.685963568044552829
0.453000000000000236,-10.598202194052397829
0.454000000000000237,-10.510558444605612394
0.455000000000000238,-10.423036360542027978
0.456000000000000238,-10.335640268776661088
0.457000000000000239,-10.248374771252079185
0.458000000000000240,-10.161244733704993592
0.459000000000000241,-10.074255274280627503
0.460000000000000242,-9.987411752025405320
0.461000000000000243,-9.900719755286489843
0.462000000000000244,-9.814185090045885573
0.463000000000000245,-9.727813768214774726
0.464000000000000246,-9.641611995913079269
0.465000000000000246,-9.555586161757325669
0.466000000000000247,-9.469742825178938617
0.467000000000000248,-9.384088704793665414
0.468000000000000249,-9.298630666841756209
0.469000000000000250,-9.213375713717104176
0.470000000000000251,-9.128330972602643811
0.471000000000000252,-9.043503684227857775
0.472000000000000253,-8.958901191763628091
0.473000000000000254,-8.874530929868043927
0.474000000000000254,-8.790400413896239940
0.475000000000000255,-8.706517229286003356
0.476000000000000256,-8.622889021130236031
0.477000000000000257,-8.539523483946208415
0.478000000000000258,-8.456428351650696840
0.479000000000000259,-8.373611387749432922
0.480000000000000260,-8.291080375748283160
0.481000000000000261,-8.208843109792749004
0.482000000000000262,-8.126907385541930040
0.483000000000000262,-8.045280991282087513
0.484000000000000263,-7.963971699284290828
0.485000000000000264,-7.882987257410190907
0.486000000000000265,-7.802335380969106282
0.487000000000000266,-7.722023744829073166
0.488000000000000267,-7.642059975784046166
0.489000000000000268,-7.562451645178820847
0.490000000000000269,-7.483206261792650693
0.491000000000000270,-7.404331264982310756
0.492000000000000270,-7.325834018084561805
0.493000000000000271,-7.247721802077846220
0.494000000000000272,-7.170001809502477563
0.495000000000000273,-7.092681138638117666
0.496000000000000274,-7.015766787937346649
0.497000000000000275,-6.939265650713245748
0.498000000000000276,-6.863184510079110900
0.499000000000000277,-6.787530034137819079
0.500000000000000222,-6.712308771418132203
0.501000000000000334,-6.637527146555116886
0.502000000000000224,-6.563191456211482588
0.503000000000000336,-6.489307865236327189
0.504000000000000226,-6.415882403058039252
0.505000000000000338,-6.342920960307113276
0.506000000000000227,-6.270429285665517938
0.507000000000000339,-6.198412982937951732
0.508000000000000229,-6.126877508341297407
0.509000000000000341,-6.055828168007436396
0.510000000000000231,-5.985270115695501048
0.511000000000000343,-5.915208350708430984
0.512000000000000233,-5.845647716009757744
0.513000000000000345,-5.776592896535388988
0.514000000000000234,-5.708048417696181431
0.515000000000000346,-5.640018644065817988
0.516000000000000236,-5.572507778249820021
0.517000000000000348,-5.505519859930162241
0.518000000000000238,-5.439058765081140834
0.519000000000000350,-5.373128205351021869
0.520000000000000240,-5.307731727605000671
0.521000000000000352,-5.242872713624193715
0.522000000000000242,-5.178554379955979670
0.523000000000000353,-5.114779777910524849
0.524000000000000243,-5.051551793698881632
0.525000000000000355,-4.988873148707514638
0.526000000000000245,-4.926746399904723184
0.527000000000000357,-4.865173940373795247
0.528000000000000247,-4.804157999968586168
0.529000000000000359,-4.743700646086393746
0.530000000000000249,-4.683803784553817628
0.531000000000000361,-4.624469160620750863
0.532000000000000250,-4.565698360058247474
0.533000000000000362,-4.507492810355453905
0.534000000000000252,-4.449853782011573777
0.535000000000000364,-4.392782389918179042
0.536000000000000254,-4.336279594827955997
0.537000000000000366,-4.280346204905296048
0.538000000000000256,-4.224982877355087041
0.539000000000000368,-4.170190120125154998
0.540000000000000258,-4.115968293678941237
0.541000000000000369,-4.062317612833969527
0.542000000000000259,-4.009238148662886303
0.543000000000000371,-3.956729830452830221
0.544000000000000261,-3.904792447719924731
0.545000000000000373,-3.853425652275039859
0.546000000000000263,-3.802628960337646191
0.547000000000000375,-3.752401754694011604
0.548000000000000265,-3.702743286896952757
0.549000000000000377,-3.653652679503387901
0.550000000000000266,-3.605128928347050898
0.551000000000000378,-3.557170904842975379
0.552000000000000268,-3.509777358321064522
0.553000000000000380,-3.462946918385646278
0.554000000000000270,-3.416678097298488925
0.555000000000000382,-3.370969292382282934
0.556000000000000272,-3.325818788442316709
0.557000000000000384,-3.281224760203431678
0.558000000000000274,-3.237185274760217446
0.559000000000000385,-3.193698294037660368
0.560000000000000275,-3.150761677260342175
0.561000000000000387,-3.108373183427668440
0.562000000000000277,-3.066530473793196876
0.563000000000000389,-3.025231114345875216
0.564000000000000279,-2.984472578291331502
0.565000000000000391,-2.944252248531171734
0.566000000000000281,-2.904567420138591594
0.567000000000000393,-2.865415302828379307
0.568000000000000282,-2.826793023419851281
0.569000000000000394,-2.788697628290766950
0.570000000000000284,-2.751126085821061107
0.571000000000000396,-2.714075288824516541
0.572000000000000286,-2.677542056967330275
0.573000000000000398,-2.641523139171843670
0.574000000000000288,-2.606015216004474500
0.575000000000000400,-2.571014902046392159
0.576000000000000290,-2.536518748245883526
0.577000000000000401,-2.502523244251213974
0.578000000000000291,-2.469024820723029201
0.579000000000000403,-2.436019851625148114
0.580000000000000293,-2.403504656492999381
0.581000000000000405,-2.371475502678574099
0.582000000000000295,-2.339928607571298613
0.583000000000000407,-2.308860140793803417
0.584000000000000297,-2.278266226372055669
0.585000000000000409,-2.248142944878972038
0.586000000000000298,-2.218486335551057564
0.587000000000000410,-2.189292398377255644
0.588000000000000300,-2.160557096159680945
0.589000000000000412,-2.132276356545481200
0.590000000000000302,-2.104446074029572067
0.591000000000000414,-2.077062111927652666
0.592000000000000304,-2.050120304319202003
0.593000000000000416,-2.023616457960012216
0.594000000000000306,-1.997546354164051907
0.595000000000000417,-1.971905750654245226
0.596000000000000307,-1.946690383382010836
0.597000000000000419,-1.921895968315278980
0.598000000000000309,-1.897518203194860975
0.599000000000000421,-1.873552769258919337
0.600000000000000311,-1.849995332935534309
0.601000000000000423,-1.826841547503110563
0.602000000000000313,-1.804087054718759076
0.603000000000000425,-1.781727486414324435
0.604000000000000314,-1.759758466060385995
0.605000000000000426,-1.738175610297863161
0.606000000000000316,-1.716974530437590740
0.607000000000000428,-1.696150833927631441
0.608000000000000318,-1.675700125788617267
0.609000000000000430,-1.655618010017035902
0.610000000000000320,-1.635900090956710740
0.611000000000000432,-1.616541974638485923
0.612000000000000322,-1.597539270088357721
0.613000000000000433,-1.578887590604139746
0.614000000000000323,-1.560582555000906479
0.615000000000000435,-1.542619788825344784
0.616000000000000325,-1.524994925539289614
0.617000000000000437,-1.507703607672600032
0.618000000000000327,-1.490741487945681065
0.619000000000000439,-1.474104230361817702
0.620000000000000329,-1.457787511269674541
0.621000000000000441,-1.441787020396152030
0.622000000000000330,-1.426098461849945265
0.623000000000000442,-1.410717555096024256
0.624000000000000332,-1.395640035901431819
0.625000000000000444,-1.380861657252613783
0.626000000000000334,-1.366378190244671220
0.627000000000000446,-1.352185424942813130
0.628000000000000336,-1.338279171216377517
0.629000000000000448,-1.324655259545712394
0.630000000000000338,-1.311309541802347267
0.631000000000000449,-1.298237892002676475
0.632000000000000339,-1.285436207035656198
0.633000000000000451,-1.272900407364738751
0.634000000000000341,-1.260626437704521763
0.635000000000000453,-1.248610267672398022
0.636000000000000343,-1.236847892415614547
0.637000000000000455,-1.225335333214111255
0.638000000000000345,-1.214068638059526695
0.639000000000000457,-1.203043882210688809
0.640000000000000346,-1.192257168726080563
0.641000000000000458,-1.181704628973542004
0.642000000000000348,-1.171382423117681260
0.643000000000000460,-1.161286740585318222
0.644000000000000350,-1.151413800509407670
0.645000000000000462,-1.141759852151741361
0.646000000000000352,-1.132321175304908945
0.647000000000000464,-1.123094080673799677
0.648000000000000353,-1.114074910237144334
0.649000000000000465,-1.105260037589347322
0.650000000000000355,-1.096645868263127266
0.651000000000000467,-1.088228840033218070
0.652000000000000357,-1.080005423201614523
0.653000000000000469,-1.071972120864660649
0.654000000000000359,-1.064125469162421789
0.655000000000000471,-1.056462037510634611
0.656000000000000361,-1.048978428815701136
0.657000000000000473,-1.041671279673003436
0.658000000000000362,-1.034537260548973103
0.659000000000000474,-1.027573075947225467
