# C-amorph-2_CS-582-AC
# h[nm],U(h)[kJ/mol]
0.200000000000000011,63.109717935719018556
0.201000000000000012,62.602896088558203758
0.202000000000000013,61.362956537013019442
0.203000000000000014,59.811824864384753653
0.204000000000000015,58.181941276366352156
0.205000000000000016,56.587652974626301727
0.206000000000000016,55.073161507396797276
0.207000000000000017,53.643936995168665760
0.208000000000000018,52.286638704215874895
0.209000000000000019,50.981183805596444358
0.210000000000000020,49.707568948778160234
0.211000000000000021,48.449284610884731705
0.212000000000000022,47.194602698118913509
0.213000000000000023,45.936612106528421862
0.214000000000000024,44.672585696739659511
0.215000000000000024,43.403055658494494651
0.216000000000000025,42.130830060121496672
0.217000000000000026,40.860084590283122452
0.218000000000000027,39.595597455872919568
0.219000000000000028,38.342152693718610124
0.220000000000000029,37.104110836680419538
0.221000000000000030,35.885130856085005746
0.222000000000000031,34.688019887529563334
0.223000000000000032,33.514684784775994331
0.224000000000000032,32.366160160591704198
0.225000000000000033,31.242689959171094927
0.226000000000000034,30.143842874895561579
0.227000000000000035,29.068645501302817991
0.228000000000000036,28.015720592487799223
0.229000000000000037,26.983421028549372522
0.230000000000000038,25.969952883335150062
0.231000000000000039,24.973483352838567129
0.232000000000000040,23.992231217614271799
0.233000000000000040,23.024539011533470045
0.234000000000000041,22.068927196411692648
0.235000000000000042,21.124131448680095957
0.236000000000000043,20.189124702802189404
0.237000000000000044,19.263125916805080351
0.238000000000000045,18.345597674035399649
0.239000000000000046,17.436234752658791081
0.240000000000000047,16.534945715337642014
0.241000000000000048,15.641829425139604837
0.242000000000000048,14.757148203907030748
0.243000000000000049,13.881299135107358467
0.244000000000000050,13.014784789408697208
0.245000000000000051,12.158184429048732866
0.246000000000000052,11.312126534617974016
0.247000000000000053,10.477263300739787510
0.248000000000000054,9.654247568859421591
0.249000000000000055,8.843712507886454688
0.250000000000000056,8.046254217461669356
0.251000000000000056,7.262417313894168558
0.252000000000000057,6.492683464413960159
0.253000000000000058,5.737462759919806032
0.254000000000000059,4.997087758181699257
0.255000000000000060,4.271809986634050205
0.256000000000000061,3.561798664556664384
0.257000000000000062,2.867141386694048499
0.258000000000000063,2.187846502390695669
0.259000000000000064,1.523846924415160675
0.260000000000000064,0.875005108242749685
0.261000000000000065,0.241118954253356332
0.262000000000000066,-0.378071599180149154
0.263000000000000067,-0.982877505477439350
0.264000000000000068,-1.573653256218875640
0.265000000000000069,-2.150789416749565142
0.266000000000000070,-2.714705202277881479
0.267000000000000071,-3.265841224536081278
0.268000000000000071,-3.804652518509485049
0.269000000000000072,-4.331601939143934210
0.270000000000000073,-4.847153999554172366
0.271000000000000074,-5.351769205251782680
0.272000000000000075,-5.845898923402242708
0.273000000000000076,-6.329980812163092274
0.274000000000000077,-6.804434822766286750
0.275000000000000078,-7.269659776166797371
0.276000000000000079,-7.726030506738966963
0.277000000000000079,-8.173895557595418637
0.278000000000000080,-8.613575405542865937
0.279000000000000081,-9.045361188384081430
0.280000000000000082,-9.469513903119453957
0.281000000000000083,-9.886264040492708460
0.282000000000000084,-10.295811619153699468
0.283000000000000085,-10.698326581373788002
0.284000000000000086,-11.093949511643360850
0.285000000000000087,-11.482792639506628873
0.286000000000000087,-11.864941088556809845
0.287000000000000088,-12.240454334535536773
0.288000000000000089,-12.609367836875406965
0.289000000000000090,-12.971694809721128649
0.290000000000000091,-13.327428100393921895
0.291000000000000092,-13.676542145369889880
0.292000000000000093,-14.018994976068906766
0.293000000000000094,-14.354730249052135349
0.294000000000000095,-14.683679277561347831
0.295000000000000095,-15.005763043668256529
0.296000000000000096,-15.320894172604662131
0.297000000000000097,-15.628978853092462487
0.298000000000000098,-15.929918689663136178
0.299000000000000099,-16.223612475034919100
0.300000000000000100,-16.509957872587289529
0.301000000000000101,-16.788853000829956130
0.302000000000000102,-17.060197913496153888
0.303000000000000103,-17.323895970498771391
0.304000000000000103,-17.579855096464761743
0.305000000000000104,-17.827988924912979485
0.306000000000000105,-18.068217827361191752
0.307000000000000106,-18.300469827743761186
0.308000000000000107,-18.524681403495328880
0.309000000000000108,-18.740798175512754398
0.310000000000000109,-18.948775489953128215
0.311000000000000110,-19.148578895464257954
0.312000000000000111,-19.340184519984731537
0.313000000000000111,-19.523579351696518813
0.314000000000000112,-19.698761429073222473
0.315000000000000113,-19.865739945247490539
0.316000000000000114,-20.024535272127721441
0.317000000000000115,-20.175178909834563967
0.318000000000000116,-20.317713367107451461
0.319000000000000117,-20.452191978357113555
0.320000000000000118,-20.578678663017061723
0.321000000000000119,-20.697247632782261206
0.322000000000000119,-20.807983052220041742
0.323000000000000120,-20.910978658103253736
0.324000000000000121,-21.006337342653644384
0.325000000000000122,-21.094170705697081303
0.326000000000000123,-21.174598580527455027
0.327000000000000124,-21.247748538055709844
0.328000000000000125,-21.313755373588019637
0.329000000000000126,-21.372760580335828706
0.330000000000000127,-21.424911813513045189
0.331000000000000127,-21.470362348624739468
0.332000000000000128,-21.509270537299816084
0.333000000000000129,-21.541799263768247386
0.334000000000000130,-21.568115404834962590
0.335000000000000131,-21.588389295957703951
0.336000000000000132,-21.602794205796350013
0.337000000000000133,-21.611505821368837132
0.338000000000000134,-21.614701745723529314
0.339000000000000135,-21.612561009820232982
0.340000000000000135,-21.605263600105104160
0.341000000000000136,-21.592990003065004601
0.342000000000000137,-21.575920767859010141
0.343000000000000138,-21.554236087945628952
0.344000000000000139,-21.528115402455984650
0.345000000000000140,-21.497737017905521384
0.346000000000000141,-21.463277750688583012
0.347000000000000142,-21.424912590662980705
0.348000000000000143,-21.382814386004458385
0.349000000000000143,-21.337153549393086394
0.350000000000000144,-21.288097785486264968
0.351000000000000145,-21.235811839533990764
0.352000000000000146,-21.180457266903502500
0.353000000000000147,-21.122192223198901218
0.354000000000000148,-21.061171274589774782
0.355000000000000149,-20.997545227898207543
0.356000000000000150,-20.931460979937099864
0.357000000000000151,-20.863061385543133497
0.358000000000000151,-20.792485143705388140
0.359000000000000152,-20.719866701154018074
0.360000000000000153,-20.645336172743718350
0.361000000000000154,-20.569019277941841040
0.362000000000000155,-20.491037292711933304
0.363000000000000156,-20.411507016069073472
0.364000000000000157,-20.330540750573383946
0.365000000000000158,-20.248246296022685442
0.366000000000000159,-20.164726955602983338
0.367000000000000159,-20.080081553757214152
0.368000000000000160,-19.994404465037586505
0.369000000000000161,-19.907785653214144617
0.370000000000000162,-19.820310719922392906
0.371000000000000163,-19.732060962145620664
0.372000000000000164,-19.643113437841506652
0.373000000000000165,-19.553541039039266991
0.374000000000000166,-19.463412571751348423
0.375000000000000167,-19.372792842062658281
0.376000000000000167,-19.281742747780846514
0.377000000000000168,-19.190319375052343531
0.378000000000000169,-19.098576099370678349
0.379000000000000170,-19.006562690426637374
0.380000000000000171,-18.914325420272348310
0.381000000000000172,-18.821907174295343879
0.382000000000000173,-18.729347564521638958
0.383000000000000174,-18.636683044791155339
0.384000000000000175,-18.543947027371750380
0.385000000000000175,-18.451170000602125754
0.386000000000000176,-18.358379647176999327
0.387000000000000177,-18.265600962710472288
0.388000000000000178,-18.172856374236996402
0.389000000000000179,-18.080165858330541795
0.390000000000000180,-17.987547058544947731
0.391000000000000181,-17.895015401899264873
0.392000000000000182,-17.802584214152602726
0.393000000000000183,-17.710264833632926695
0.394000000000000183,-17.618066723403629226
0.395000000000000184,-17.525997581570436523
0.396000000000000185,-17.434063449549118019
0.397000000000000186,-17.342268818131991281
0.398000000000000187,-17.250616731207635723
0.399000000000000188,-17.159108887004418165
0.400000000000000189,-17.067745736743358265
0.401000000000000190,-16.976526580600697969
0.402000000000000191,-16.885449660894181534
0.403000000000000191,-16.794512252420211951
0.404000000000000192,-16.703710749881452102
0.405000000000000193,-16.613040752356315721
0.406000000000000194,-16.522497144772749778
0.407000000000000195,-16.432074176359257933
0.408000000000000196,-16.341765536055781638
0.409000000000000197,-16.251564424876345782
0.410000000000000198,-16.161463625223980500
0.411000000000000199,-16.071455567166154310
0.412000000000000199,-15.981532391686721795
0.413000000000000200,-15.891686010936926010
0.414000000000000201,-15.801908165514589655
0.415000000000000202,-15.712190478806178362
0.416000000000000203,-15.622524508431968826
0.417000000000000204,-15.532901794839252929
0.418000000000000205,-15.443313907093003223
0.419000000000000206,-15.353752485917334880
0.420000000000000207,-15.264209284044534698
0.421000000000000207,-15.174676203932014218
0.422000000000000208,-15.085145332909604576
0.423000000000000209,-14.995608975822841913
0.424000000000000210,-14.906059685239373636
0.425000000000000211,-14.816490289287660431
0.426000000000000212,-14.726893917198726314
0.427000000000000213,-14.637264022622471060
0.428000000000000214,-14.547594404791649225
0.429000000000000214,-14.457879227606616368
0.430000000000000215,-14.368113036714854402
0.431000000000000216,-14.278290774659449625
0.432000000000000217,-14.188407794170426968
0.433000000000000218,-14.098459869673121148
0.434000000000000219,-14.008443207087101001
0.435000000000000220,-13.918354451988843579
0.436000000000000221,-13.828190696210622690
0.437000000000000222,-13.737949482947346524
0.438000000000000222,-13.647628810442153480
0.439000000000000223,-13.557227134320646300
0.440000000000000224,-13.466743368642326573
0.441000000000000225,-13.376176885736782651
0.442000000000000226,-13.285527514890910439
0.443000000000000227,-13.194795539951758911
0.444000000000000228,-13.103981695908675675
0.445000000000000229,-13.013087164516472072
0.446000000000000230,-12.922113569019989754
0.447000000000000230,-12.831062968039017136
0.448000000000000231,-12.739937848670610521
0.449000000000000232,-12.648741118864334609
0.450000000000000233,-12.557476099124521340
0.451000000000000234,-12.466146513591453981
0.452000000000000235,-12.374756480552292714
0.453000000000000236,-12.283310502430303757
0.454000000000000237,-12.191813455299737257
0.455000000000000238,-12.100270577971581787
0.456000000000000238,-12.008687460694092763
0.457000000000000239,-11.917070033510000826
0.458000000000000240,-11.825424554310988157
0.459000000000000241,-11.733757596627857112
0.460000000000000242,-11.642076037193840321
0.461000000000000243,-11.550387043316266755
0.462000000000000244,-11.458698060090700466
0.463000000000000245,-11.367016797489622348
0.464000000000000246,-11.275351217356760714
0.465000000000000246,-11.183709520336183374
0.466000000000000247,-11.092100132764006304
0.467000000000000248,-11.000531693549060464
0.468000000000000249,-10.909013041067673555
0.469000000000000250,-10.817553200095870736
0.470000000000000251,-10.726161368801534479
0.471000000000000252,-10.634846905817189722
0.472000000000000253,-10.543619317413396530
0.473000000000000254,-10.452488244790924199
0.474000000000000254,-10.361463451509125733
0.475000000000000255,-10.270554811066499923
0.476000000000000256,-10.179772294648476105
0.477000000000000257,-10.089125959056280735
0.478000000000000258,-9.998625934829648898
0.479000000000000259,-9.908282414575324992
0.480000000000000260,-9.818105641512101300
0.481000000000000261,-9.728105898242251470
0.482000000000000262,-9.638293495758507134
0.483000000000000262,-9.548678762694574829
0.484000000000000263,-9.459272034826522457
0.485000000000000264,-9.370083644831533221
0.486000000000000265,-9.281123912309787727
0.487000000000000266,-9.192403134074396576
0.488000000000000267,-9.103931574713689301
0.489000000000000268,-9.015719457429598904
0.490000000000000269,-8.927776955154936189
0.491000000000000270,-8.840114181952134942
0.492000000000000270,-8.752741184695072008
0.493000000000000271,-8.665667935035406444
0.494000000000000272,-8.578904321654082565
0.495000000000000273,-8.492460142798154976
0.496000000000000274,-8.406345099102944474
0.497000000000000275,-8.320568786698620656
0.498000000000000276,-8.235140690600285751
0.499000000000000277,-8.150070178380081742
0.500000000000000222,-8.065366494119391660
0.501000000000000334,-7.981038752639108225
0.502000000000000224,-7.897095934005406548
0.503000000000000336,-7.813546878308128996
0.504000000000000226,-7.730400280709019967
0.505000000000000338,-7.647664686755982544
0.506000000000000227,-7.565348487960451784
0.507000000000000339,-7.483459917633373593
0.508000000000000229,-7.402007046976470050
0.509000000000000341,-7.320997781424011919
0.510000000000000231,-7.240439857231384835
0.511000000000000343,-7.160340838305282674
0.512000000000000233,-7.080708113271515280
0.513000000000000345,-7.001548892775113941
0.514000000000000234,-6.922870207008460675
0.515000000000000346,-6.844678903461788977
0.516000000000000236,-6.766981644891700398
0.517000000000000348,-6.689784907501976186
0.518000000000000238,-6.613094979332028167
0.519000000000000350,-6.536917958847230814
0.520000000000000240,-6.461259753726357857
0.521000000000000352,-6.386126079840454217
0.522000000000000242,-6.311522460418059310
0.523000000000000353,-6.237454225391256379
0.524000000000000243,-6.163926510917410617
0.525000000000000355,-6.090944259071038758
0.526000000000000245,-6.018512217700797251
0.527000000000000357,-5.946634940445847839
0.528000000000000247,-5.875316786906876310
0.529000000000000359,-5.804561922965950416
0.530000000000000249,-5.734374321250511386
0.531000000000000361,-5.664757761735918606
0.532000000000000250,-5.595715832481830354
0.533000000000000362,-5.527251930496932530
0.534000000000000252,-5.459369262727430616
0.535000000000000364,-5.392070847163962455
0.536000000000000254,-5.325359514062471433
0.537000000000000366,-5.259237907273721646
0.538000000000000256,-5.193708485677309916
0.539000000000000368,-5.128773524714847376
0.540000000000000258,-5.064435118018409732
0.541000000000000369,-5.000695179129030166
0.542000000000000259,-4.937555443301507196
0.543000000000000371,-4.875017469390541258
0.544000000000000261,-4.813082641814434126
0.545000000000000373,-4.751752172591802825
0.546000000000000263,-4.691027103447550139
0.547000000000000375,-4.630908307983635730
0.548000000000000265,-4.571396493911353609
0.549000000000000377,-4.512492205340579154
0.550000000000000266,-4.454195825122886809
0.551000000000000378,-4.396507577244411991
0.552000000000000268,-4.339427529265231342
0.553000000000000380,-4.282955594801524768
0.554000000000000270,-4.227091536047437259
0.555000000000000382,-4.171834966333001660
0.556000000000000272,-4.117185352715327262
0.557000000000000384,-4.063142018599510408
0.558000000000000274,-4.009704146386722456
0.559000000000000385,-3.956870780146059641
0.560000000000000275,-3.904640828307777589
0.561000000000000387,-3.853013066374766371
0.562000000000000277,-3.801986139649906171
0.563000000000000389,-3.751558565976465420
0.564000000000000279,-3.701728738489308057
0.565000000000000391,-3.652494928374222294
0.566000000000000281,-3.603855287633308535
0.567000000000000393,-3.555807851853919566
0.568000000000000282,-3.508350542979286502
0.569000000000000394,-3.461481172078360480
0.570000000000000284,-3.415197442113297566
0.571000000000000396,-3.369496950702226545
0.572000000000000286,-3.324377192875845655
0.573000000000000398,-3.279835563825658884
0.574000000000000288,-3.235869361642520481
0.575000000000000400,-3.192475790043559414
0.576000000000000290,-3.149651961086113339
0.577000000000000401,-3.107394897867007622
0.578000000000000291,-3.065701537205909766
0.579000000000000403,-3.024568732311212482
0.580000000000000293,-2.983993255427360491
0.581000000000000405,-2.943971800462100497
0.582000000000000295,-2.904500985592807893
0.583000000000000407,-2.865577355850427388
0.584000000000000297,-2.827197385680268571
0.585000000000000409,-2.789357481478412559
0.586000000000000298,-2.752053984102994733
0.587000000000000410,-2.715283171359244907
0.588000000000000300,-2.679041260457695639
0.589000000000000412,-2.643324410444493289
0.590000000000000302,-2.608128724603340221
0.591000000000000414,-2.573450252828179075
0.592000000000000304,-2.539284993966101300
0.593000000000000416,-2.505628898129759197
0.594000000000000306,-2.472477868978903981
0.595000000000000417,-2.439827765970341122
0.596000000000000307,-2.407674406576000070
0.597000000000000419,-2.376013568468573478
0.598000000000000309,-2.344840991674455033
0.599000000000000421,-2.314152380693467848
0.600000000000000311,-2.283943406585277280
0.601000000000000423,-2.254209709021970376
0.602000000000000313,-2.224946898306841891
0.603000000000000425,-2.196150557358829580
0.604000000000000314,-2.167816243662838094
0.605000000000000426,-2.139939491185369302
0.606000000000000316,-2.112515812255736591
0.607000000000000428,-2.085540699412442578
0.608000000000000318,-2.059009627214957394
0.609000000000000430,-2.032918054020584897
0.610000000000000320,-2.007261423726669491
0.611000000000000432,-1.982035167477928184
0.612000000000000322,-1.957234705339143899
0.613000000000000433,-1.932855447933131021
0.614000000000000323,-1.908892798044166117
0.615000000000000435,-1.885342152186920917
0.616000000000000325,-1.862198902141068757
0.617000000000000437,-1.839458436451658629
0.618000000000000327,-1.817116141895498416
0.619000000000000439,-1.795167404913608822
0.620000000000000329,-1.773607613010079076
0.621000000000000441,-1.752432156117429640
0.622000000000000330,-1.731636427928776367
0.623000000000000442,-1.711215827196967521
0.624000000000000332,-1.691165759001046265
0.625000000000000444,-1.671481635980197833
0.626000000000000334,-1.652158879535547298
0.627000000000000446,-1.633192921000036879
0.628000000000000336,-1.614579202776728284
0.629000000000000448,-1.596313179445788100
0.630000000000000338,-1.578390318840573681
0.631000000000000449,-1.560806103092992725
0.632000000000000339,-1.543556029648647243
0.633000000000000451,-1.526635612251964425
0.634000000000000341,-1.510040381901772477
0.635000000000000453,-1.493765887777589008
0.636000000000000343,-1.477807698137053150
0.637000000000000455,-1.462161401184841392
0.638000000000000345,-1.446822605913463899
0.639000000000000457,-1.431786942916257965
0.640000000000000346,-1.417050065173077966
0.641000000000000458,-1.402607648808930518
0.642000000000000348,-1.388455393826072193
0.643000000000000460,-1.374589024809853566
0.644000000000000350,-1.361004291608820749
0.645000000000000462,-1.347696969989339078
0.646000000000000352,-1.334662862265284966
0.647000000000000464,-1.321897797903047067
0.648000000000000353,-1.309397634102425156
0.649000000000000465,-1.297158256353625916
0.650000000000000355,-1.285175578970958021
0.651000000000000467,-1.273445545603456797
0.652000000000000357,-1.261964129722984440
0.653000000000000469,-1.250727335090100034
0.654000000000000359,-1.239731196198190499
0.655000000000000471,-1.228971778696176020
0.656000000000000361,-1.218445179790294430
0.657000000000000473,-1.208147528625253653
0.658000000000000362,-1.198074986645250917
