# C-amorph-2_CS-1113-AC
# h[nm],U(h)[kJ/mol]
0.200000000000000011,100.676359999763946007
0.201000000000000012,99.054285220598586648
0.202000000000000013,97.314596471925398191
0.203000000000000014,95.554306061018593255
0.204000000000000015,93.821990831488321305
0.205000000000000016,92.137002970063377916
0.206000000000000016,90.502190266612245750
0.207000000000000017,88.912073202901908076
0.208000000000000018,87.357892353875982394
0.209000000000000019,85.830542280989419623
0.210000000000000020,84.322114246150846384
0.211000000000000021,82.826554260093587345
0.212000000000000022,81.339785758031524665
0.213000000000000023,79.859532742118886972
0.214000000000000024,78.384998277698755942
0.215000000000000024,76.916496249615718739
0.216000000000000025,75.455094847460912888
0.217000000000000026,74.002303532836009481
0.218000000000000027,72.559817651110478209
0.219000000000000028,71.129323719208514376
0.220000000000000029,69.712361788660970774
0.221000000000000030,68.310237719153263924
0.222000000000000031,66.923976669464295242
0.223000000000000032,65.554308883702802291
0.224000000000000032,64.201679404040106647
0.225000000000000033,62.866274320601959857
0.226000000000000034,61.548057335748048047
0.227000000000000035,60.246811618741958227
0.228000000000000036,58.962183062560711733
0.229000000000000037,57.693722073679808204
0.230000000000000038,56.440921902775961883
0.231000000000000039,55.203252252806223055
0.232000000000000040,53.980187486051910639
0.233000000000000040,52.771229205610268309
0.234000000000000041,51.575923325210489168
0.235000000000000042,50.393871981176957320
0.236000000000000043,49.224740798748605641
0.237000000000000044,48.068262117619191542
0.238000000000000045,46.924234822733964734
0.239000000000000046,45.792521428513055071
0.240000000000000047,44.673043038346051503
0.241000000000000048,43.565772755221793489
0.242000000000000048,42.470728060852522390
0.243000000000000049,41.387962615289445978
0.244000000000000050,40.317557861187779622
0.245000000000000051,39.259614749830760161
0.246000000000000052,38.214245842140080356
0.247000000000000053,37.181567978782098294
0.248000000000000054,36.161695660141688791
0.249000000000000055,35.154735229907217331
0.250000000000000056,34.160779915460302902
0.251000000000000056,33.179905744088088682
0.252000000000000057,32.212168325936119118
0.253000000000000058,31.257600472163858285
0.254000000000000059,30.316210599436054451
0.255000000000000060,29.387981859124600703
0.256000000000000061,28.472871920831060777
0.257000000000000062,27.570813334505647418
0.258000000000000063,26.681714392992866181
0.259000000000000064,25.805460416770312548
0.260000000000000064,24.941915384503197117
0.261000000000000065,24.090923836395823798
0.262000000000000066,23.252312981810387527
0.263000000000000067,22.425894947925399947
0.264000000000000068,21.611469112040243346
0.265000000000000069,20.808824466266045761
0.266000000000000070,20.017741969584584183
0.267000000000000071,19.237996848443827957
0.268000000000000071,18.469360813070185401
0.269000000000000072,17.711604162412424301
0.270000000000000073,16.964497756020676889
0.271000000000000074,16.227814836154898614
0.272000000000000075,15.501332687976404401
0.273000000000000076,14.784834129788833934
0.274000000000000077,14.078108828954068343
0.275000000000000078,13.380954442320462050
0.276000000000000079,12.693177582779346935
0.277000000000000079,12.014594615927922661
0.278000000000000080,11.345032292790596884
0.279000000000000081,10.684328226158882558
0.280000000000000082,10.032331219385605792
0.281000000000000083,9.388901457439226661
0.282000000000000084,8.753910570721927797
0.283000000000000085,8.127241582609162407
0.284000000000000086,7.508788751907077952
0.285000000000000087,6.898457321479599891
0.286000000000000087,6.296163184190196382
0.287000000000000088,5.701832477063362603
0.288000000000000089,5.115401114219119805
0.289000000000000090,4.536814268690312346
0.290000000000000091,3.966025812719543353
0.291000000000000092,3.402997725562313835
0.292000000000000093,2.847699477216180775
0.293000000000000094,2.300107395861806125
0.294000000000000095,1.760204026154974288
0.295000000000000095,1.227977484856808577
0.296000000000000096,0.703420819644656303
0.297000000000000097,0.186531376311733332
0.298000000000000098,-0.322689821050802017
0.299000000000000099,-0.824238672888028878
0.300000000000000100,-1.318108586594048948
0.301000000000000101,-1.804291035601155446
0.302000000000000102,-2.282776092743575180
0.303000000000000103,-2.753552935963965886
0.304000000000000103,-3.216610324862682724
0.305000000000000104,-3.671937046989569353
0.306000000000000105,-4.119522333141602211
0.307000000000000106,-4.559356241259388653
0.308000000000000107,-4.991430008812297814
0.309000000000000108,-5.415736373825857264
0.310000000000000109,-5.832269864939470416
0.311000000000000110,-6.241027061085136829
0.312000000000000111,-6.642006821556314833
0.313000000000000111,-7.035210487384749634
0.314000000000000112,-7.420642055070297616
0.315000000000000113,-7.798308323812110032
0.316000000000000114,-8.168219017472482690
0.317000000000000115,-8.530386882568468110
0.318000000000000116,-8.884827763633108333
0.319000000000000117,-9.231560657318766516
0.320000000000000118,-9.570607746631932145
0.321000000000000119,-9.901994416693343126
0.322000000000000119,-10.225749253410070239
0.323000000000000120,-10.541904026429353536
0.324000000000000121,-10.850493657719667340
0.325000000000000122,-11.151556177091077160
0.326000000000000123,-11.445132665928941407
0.327000000000000124,-11.731267190370946452
0.328000000000000125,-12.010006725109771963
0.329000000000000126,-12.281401068951787181
0.330000000000000127,-12.545502753208936042
0.331000000000000127,-12.802366943944528899
0.332000000000000128,-13.052051339037049615
0.333000000000000129,-13.294616060968326821
0.334000000000000130,-13.530123546184231742
0.335000000000000131,-13.758638431819335324
0.336000000000000132,-13.980227440518934401
0.337000000000000133,-14.194959264036896229
0.338000000000000134,-14.402904446233211644
0.339000000000000135,-14.604135266041101460
0.340000000000000135,-14.798725620923752544
0.341000000000000136,-14.986750911290211974
0.342000000000000137,-15.168287926293222867
0.343000000000000138,-15.343414731386275207
0.344000000000000139,-15.512210557974782432
0.345000000000000140,-15.674755695454788196
0.346000000000000141,-15.831131385894831709
0.347000000000000142,-15.981419721580190085
0.348000000000000143,-16.125703545604956446
0.349000000000000143,-16.264066355665818264
0.350000000000000144,-16.396592211182191789
0.351000000000000145,-16.523365643839703409
0.352000000000000146,-16.644471571629697593
0.353000000000000147,-16.759995216433562604
0.354000000000000148,-16.870022025180297476
0.355000000000000149,-16.974637594586120315
0.356000000000000150,-17.073927599467754845
0.357000000000000151,-17.167977724605208323
0.358000000000000151,-17.256873600116211520
0.359000000000000152,-17.340700740291374871
0.360000000000000153,-17.419544485829057123
0.361000000000000154,-17.493489949398242089
0.362000000000000155,-17.562621964450407575
0.363000000000000156,-17.627025037193522650
0.364000000000000157,-17.686783301635550458
0.365000000000000158,-17.741980477600215238
0.366000000000000159,-17.792699831613049355
0.367000000000000159,-17.839024140553426889
0.368000000000000160,-17.881035657965401953
0.369000000000000161,-17.918816082918972654
0.370000000000000162,-17.952446531312368450
0.371000000000000163,-17.982007509505756104
0.372000000000000164,-18.007578890176951347
0.373000000000000165,-18.029239890290760684
0.374000000000000166,-18.047069051074593915
0.375000000000000167,-18.061144219894554652
0.376000000000000167,-18.071542533928592889
0.377000000000000168,-18.078340405535083590
0.378000000000000169,-18.081613509218051661
0.379000000000000170,-18.081436770092945920
0.380000000000000171,-18.077884353759749558
0.381000000000000172,-18.071029657493351550
0.382000000000000173,-18.060945302664251244
0.383000000000000174,-18.047703128306171294
0.384000000000000175,-18.031374185750237871
0.385000000000000175,-18.012028734248968220
0.386000000000000176,-17.989736237516893880
0.387000000000000177,-17.964565361117596609
0.388000000000000178,-17.936583970631129858
0.389000000000000179,-17.905859130538349433
0.390000000000000180,-17.872457103762666719
0.391000000000000181,-17.836443351812967251
0.392000000000000182,-17.797882535474162324
0.393000000000000183,-17.756838515995816863
0.394000000000000183,-17.713374356731627302
0.395000000000000184,-17.667552325186150597
0.396000000000000185,-17.619433895427516035
0.397000000000000186,-17.569079750828201725
0.398000000000000187,-17.516549787098206536
0.399000000000000188,-17.461903115577889878
0.400000000000000189,-17.405198066760014797
0.401000000000000190,-17.346492194013038102
0.402000000000000191,-17.285842277479957829
0.403000000000000191,-17.223304328129152907
0.404000000000000192,-17.158933591935749519
0.405000000000000193,-17.092784554173967138
0.406000000000000194,-17.024910943802780139
0.407000000000000195,-16.955365737929003700
0.408000000000000196,-16.884201166333468791
0.409000000000000197,-16.811468716047492933
0.410000000000000198,-16.737219135968508965
0.411000000000000199,-16.661502441504723038
0.412000000000000199,-16.584367919240197153
0.413000000000000200,-16.505864131612813850
0.414000000000000201,-16.426038921598738796
0.415000000000000202,-16.344939417397867487
0.416000000000000203,-16.262612037115790287
0.417000000000000204,-16.179102493438627164
0.418000000000000205,-16.094455798297815363
0.419000000000000206,-16.008716267522732579
0.420000000000000207,-15.921927525479485865
0.421000000000000207,-15.834132509695180602
0.422000000000000208,-15.745373475466831081
0.423000000000000209,-15.655692000455360358
0.424000000000000210,-15.565128989264891857
0.425000000000000211,-15.473724678008119682
0.426000000000000212,-15.381518638859086323
0.427000000000000213,-15.288549784594476222
0.428000000000000214,-15.194856373125350757
0.429000000000000214,-15.100476012020891403
0.430000000000000215,-15.005445663026250713
0.431000000000000216,-14.909801646576699596
0.432000000000000217,-14.813579646310056859
0.433000000000000218,-14.716814713579855933
0.434000000000000219,-14.619541271971456808
0.435000000000000220,-14.521793121823526107
0.436000000000000221,-14.423603444757137737
0.437000000000000222,-14.325004808214774954
0.438000000000000222,-14.226029170011624814
0.439000000000000223,-14.126707882901252233
0.440000000000000224,-14.027071699157895424
0.441000000000000225,-13.927150775177286945
0.442000000000000226,-13.826974676098268802
0.443000000000000227,-13.726572380446645738
0.444000000000000228,-13.625972284803463452
0.445000000000000229,-13.525202208499084833
0.446000000000000230,-13.424289398334574130
0.447000000000000230,-13.323260533331980682
0.448000000000000231,-13.222141729514628850
0.449000000000000232,-13.120958544718428485
0.450000000000000233,-13.019735983435577253
0.451000000000000234,-12.918498501690995894
0.452000000000000235,-12.817270011952691888
0.453000000000000236,-12.716073888076223852
0.454000000000000237,-12.614932970284058911
0.455000000000000238,-12.513869570179807056
0.456000000000000238,-12.412905475797781918
0.457000000000000239,-12.312061956687680109
0.458000000000000240,-12.211359769034583422
0.459000000000000241,-12.110819160813704798
0.460000000000000242,-12.010459876979933114
0.461000000000000243,-11.910301164691395215
0.462000000000000244,-11.810361778566825564
0.463000000000000245,-11.710659985975606645
0.464000000000000246,-11.611213572360190582
0.465000000000000246,-11.512039846589768644
0.466000000000000247,-11.413155646344218752
0.467000000000000248,-11.314577343527325581
0.468000000000000249,-11.216320849708212748
0.469000000000000250,-11.118401621589596218
0.470000000000000251,-11.020834666501722054
0.471000000000000252,-10.923634547920446636
0.472000000000000253,-10.826815391008283385
0.473000000000000254,-10.730390888176634334
0.474000000000000254,-10.634374304667906230
0.475000000000000255,-10.538778484155715276
0.476000000000000256,-10.443615854361691930
0.477000000000000257,-10.348898432687169802
0.478000000000000258,-10.254637831857900565
0.479000000000000259,-10.160845265580277896
0.480000000000000260,-10.067531554207103994
0.481000000000000261,-9.974707130411156086
0.482000000000000262,-9.882382044864746362
0.483000000000000262,-9.790565971923479438
0.484000000000000263,-9.699268215312191188
0.485000000000000264,-9.608497713811479102
0.486000000000000265,-9.518263046942713856
0.487000000000000266,-9.428572440649798381
0.488000000000000267,-9.339433772975819892
0.489000000000000268,-9.250854579732727956
0.490000000000000269,-9.162842060162137869
0.491000000000000270,-9.075403082585571823
0.492000000000000270,-8.988544190042135895
0.493000000000000271,-8.902271605912011054
0.494000000000000272,-8.816591239523919654
0.495000000000000273,-8.731508691744675588
0.496000000000000274,-8.647029260549388141
0.497000000000000275,-8.563157946570303380
0.498000000000000276,-8.479899458622790931
0.499000000000000277,-8.397258219206815255
0.500000000000000222,-8.315238369982164812
0.501000000000000334,-8.233843777216014459
0.502000000000000224,-8.153078037201201056
0.503000000000000336,-8.072944481643592241
0.504000000000000226,-7.993446183017381301
0.505000000000000338,-7.914585959886430544
0.506000000000000227,-7.836366382190798063
0.507000000000000339,-7.758789776496530344
0.508000000000000229,-7.681858231207951526
0.509000000000000341,-7.605573601740634793
0.510000000000000231,-7.529937515654431479
0.511000000000000343,-7.454951377744714947
0.512000000000000233,-7.380616375091307191
0.513000000000000345,-7.306933482063435292
0.514000000000000234,-7.233903465280245193
0.515000000000000346,-7.161526888525186152
0.516000000000000236,-7.089804117613981660
0.517000000000000348,-7.018735325214647602
0.518000000000000238,-6.948320495619226378
0.519000000000000350,-6.878559429465863850
0.520000000000000240,-6.809451748410896066
0.521000000000000352,-6.740996899749890581
0.522000000000000242,-6.673194160987103274
0.523000000000000353,-6.606042644352514870
0.524000000000000243,-6.539541301266039497
0.525000000000000355,-6.473688926748083716
0.526000000000000245,-6.408484163776170917
0.527000000000000357,-6.343925507586814838
0.528000000000000247,-6.280011309922544527
0.529000000000000359,-6.216739783223279581
0.530000000000000249,-6.154109004762029933
0.531000000000000361,-6.092116920724249596
0.532000000000000250,-6.030761350230840812
0.533000000000000362,-5.970039989304235739
0.534000000000000252,-5.909950414777605410
0.535000000000000364,-5.850490088146729661
0.536000000000000254,-5.791656359364663054
0.537000000000000366,-5.733446470578667409
0.538000000000000256,-5.675857559809804442
0.539000000000000368,-5.618886664574596068
0.540000000000000258,-5.562530725449245317
0.541000000000000369,-5.506786589575867197
0.542000000000000259,-5.451651014111329019
0.543000000000000371,-5.397120669618209909
0.544000000000000261,-5.343192143398398208
0.545000000000000373,-5.289861942769124248
0.546000000000000263,-5.237126498281861942
0.547000000000000375,-5.184982166883835397
0.548000000000000265,-5.133425235022926358
0.549000000000000377,-5.082451921695502861
0.550000000000000266,-5.032058381438028860
0.551000000000000378,-4.982240707262249657
0.552000000000000268,-4.932994933534521564
0.553000000000000380,-4.884317038799414590
0.554000000000000270,-4.836202948548066871
0.555000000000000382,-4.788648537931385007
0.556000000000000272,-4.741649634418815928
0.557000000000000384,-4.695202020402609477
0.558000000000000274,-4.649301435748455447
0.559000000000000385,-4.603943580292417792
0.560000000000000275,-4.559124116285038220
0.561000000000000387,-4.514838670782688190
0.562000000000000277,-4.471082837986849690
0.563000000000000389,-4.427852181531667597
0.564000000000000279,-4.385142236720373177
0.565000000000000391,-4.342948512710886000
0.566000000000000281,-4.301266494651312833
0.567000000000000393,-4.260091645765644586
0.568000000000000282,-4.219419409390409825
0.569000000000000394,-4.179245210962516666
0.570000000000000284,-4.139564459959157894
0.571000000000000396,-4.100372551790019138
0.572000000000000286,-4.061664869642632070
0.573000000000000398,-4.023436786281117783
0.574000000000000288,-3.985683665799236053
0.575000000000000400,-3.948400865328015819
0.576000000000000290,-3.911583736698764024
0.577000000000000401,-3.875227628061864493
0.578000000000000291,-3.839327885462131995
0.579000000000000403,-3.803879854371122526
0.580000000000000293,-3.768878881177214257
0.581000000000000405,-3.734320314633797544
0.582000000000000295,-3.700199507266489718
0.583000000000000407,-3.666511816739640661
0.584000000000000297,-3.633252607183029337
0.585000000000000409,-3.600417250479139852
0.586000000000000298,-3.568001127511801318
0.587000000000000410,-3.535999629376619602
0.588000000000000300,-3.504408158554004782
0.589000000000000412,-3.473222130045181100
0.590000000000000302,-3.442436972471999646
0.591000000000000414,-3.412048129141022734
0.592000000000000304,-3.382051059072539889
0.593000000000000416,-3.352441237995042567
0.594000000000000306,-3.323214159305937443
0.595000000000000417,-3.294365334998837991
0.596000000000000307,-3.265890296558281225
0.597000000000000419,-3.237784595822267963
0.598000000000000309,-3.210043805813374007
0.599000000000000421,-3.182663521538855012
0.600000000000000311,-3.155639360760523537
0.601000000000000423,-3.128966964734751777
0.602000000000000313,-3.102641998923429068
0.603000000000000425,-3.076660153676149090
0.604000000000000314,-3.051017144884555332
0.605000000000000426,-3.025708714609005590
0.606000000000000316,-3.000730631678487637
0.607000000000000428,-2.976078692264041869
0.608000000000000318,-2.951748720426471628
0.609000000000000430,-2.927736568638684922
0.610000000000000320,-2.904038118283398084
0.611000000000000432,-2.880649280126542422
0.612000000000000322,-2.857565994767075512
0.613000000000000433,-2.834784233063592840
0.614000000000000323,-2.812299996538326408
0.615000000000000435,-2.790109317759006835
0.616000000000000325,-2.768208260699130285
0.617000000000000437,-2.746592921077051219
0.618000000000000327,-2.725259426674537799
0.619000000000000439,-2.704203937635076826
0.620000000000000329,-2.683422646742609441
0.621000000000000441,-2.662911779681039981
0.622000000000000330,-2.642667595275043357
0.623000000000000442,-2.622686385712599932
0.624000000000000332,-2.602964476749761058
0.625000000000000444,-2.583498227898043176
0.626000000000000334,-2.564284032594940754
0.627000000000000446,-2.545318318357937759
0.628000000000000336,-2.526597546922525250
0.629000000000000448,-2.508118214364568388
0.630000000000000338,-2.489876851207518005
0.631000000000000449,-2.471870022514797594
0.632000000000000339,-2.454094327967852873
0.633000000000000451,-2.436546401930187677
0.634000000000000341,-2.419222913497851124
0.635000000000000453,-2.402120566536690482
0.636000000000000343,-2.385236099706802726
0.637000000000000455,-2.368566286474534266
0.638000000000000345,-2.352107935112416115
0.639000000000000457,-2.335857888687331574
0.640000000000000346,-2.319813025037398724
0.641000000000000458,-2.303970256737749800
0.642000000000000348,-2.288326531055715485
0.643000000000000460,-2.272878829895598862
0.644000000000000350,-2.257624169733506658
0.645000000000000462,-2.242559601542443382
0.646000000000000352,-2.227682210708082700
0.647000000000000464,-2.212989116935420775
0.648000000000000353,-2.198477474146776522
0.649000000000000465,-2.184144470371230273
0.650000000000000355,-2.169987327626007101
0.651000000000000467,-2.156003301789907844
0.652000000000000357,-2.142189682469227030
0.653000000000000469,-2.128543792856304684
0.654000000000000359,-2.115062989581088182
0.655000000000000471,-2.101744662555868892
0.656000000000000361,-2.088586234813572862
0.657000000000000473,-2.075585162339722345
0.658000000000000362,-2.062738933898452753
0.659000000000000474,-2.050045070852714257
