# C-amorph-2_CS-6332-AC
# h[nm],U(h)[kJ/mol]
0.200000000000000011,54.731514158832638373
0.201000000000000012,54.145162531517840421
0.202000000000000013,53.002259464442410319
0.203000000000000014,51.620150329196746952
0.204000000000000015,50.173824955275279081
0.205000000000000016,48.749739446496334949
0.206000000000000016,47.381873818148406485
0.207000000000000017,46.075290680731782800
0.208000000000000018,44.821026475382744536
0.209000000000000019,43.605078331477557185
0.210000000000000020,42.413458099741767171
0.211000000000000021,41.234702684586395094
0.212000000000000022,40.060804536460281611
0.213000000000000023,38.887218446801156801
0.214000000000000024,37.712380480818126216
0.215000000000000024,36.537019155534224524
0.216000000000000025,35.363430596953634222
0.217000000000000026,34.194815456990298230
0.218000000000000027,33.034726178632865867
0.219000000000000028,31.886641597491706790
0.220000000000000029,30.753666576060727067
0.221000000000000030,29.638343522463355129
0.222000000000000031,28.542557453753765628
0.223000000000000032,27.467514726457192609
0.224000000000000032,26.413776265122709930
0.225000000000000033,25.381328098032479801
0.226000000000000034,24.369674598643108254
0.227000000000000035,23.377942600370658965
0.228000000000000036,22.404987231503991296
0.229000000000000037,21.449492750217583392
0.230000000000000038,20.510063768339442447
0.231000000000000039,19.585304009841628670
0.232000000000000040,18.673881162087347718
0.233000000000000040,17.774577470605468221
0.234000000000000041,16.886326538106136042
0.235000000000000042,16.008237356537872387
0.236000000000000043,15.139606968476504889
0.237000000000000044,14.279923360082500849
0.238000000000000045,13.428860267640578385
0.239000000000000046,12.586265564312494547
0.240000000000000047,11.752144809602452113
0.241000000000000048,10.926641413118789004
0.242000000000000048,10.110014704317631384
0.243000000000000049,9.302617025122593475
0.244000000000000050,8.504870783470371620
0.245000000000000051,7.717246230989067257
0.246000000000000052,6.940240562933061241
0.247000000000000053,6.174358787015958860
0.248000000000000054,5.420096672238700286
0.249000000000000055,4.677925970340285566
0.250000000000000056,3.948282001332915403
0.251000000000000056,3.231553610275839983
0.252000000000000057,2.528075434069013916
0.253000000000000058,1.838122363365379597
0.254000000000000059,1.161906044268890437
0.255000000000000060,0.499573235774277979
0.256000000000000061,-0.148794179640345081
0.257000000000000062,-0.783177744750171767
0.258000000000000063,-1.403619750813299039
0.259000000000000064,-2.010219547262477313
0.260000000000000064,-2.603129041974701519
0.261000000000000065,-3.182547584808092633
0.262000000000000066,-3.748716413057116004
0.263000000000000067,-4.301912821651479035
0.264000000000000068,-4.842444204020443621
0.265000000000000069,-5.370642092153580904
0.266000000000000070,-5.886856306995042587
0.267000000000000071,-6.391449313304946145
0.268000000000000071,-6.884790856810670157
0.269000000000000072,-7.367252946085594445
0.270000000000000073,-7.839205227297855849
0.271000000000000074,-8.301010786877592196
0.272000000000000075,-8.753022405322571586
0.273000000000000076,-9.195579274822559768
0.274000000000000077,-9.629004184127612831
0.275000000000000078,-10.053601166081856277
0.276000000000000079,-10.469653596441190757
0.277000000000000079,-10.877422726926450736
0.278000000000000080,-11.277146630853511766
0.279000000000000081,-11.669039536049657713
0.280000000000000082,-12.053291517019951939
0.281000000000000083,-12.430068516383542487
0.282000000000000084,-12.799512664366551107
0.283000000000000085,-13.161742864531692732
0.284000000000000086,-13.516855613862588825
0.285000000000000087,-13.864926025721638680
0.286000000000000087,-14.206009024995193357
0.287000000000000088,-14.540140685857171121
0.288000000000000089,-14.867339683960745234
0.289000000000000090,-15.187608836451982341
0.290000000000000091,-15.500936704934932919
0.291000000000000092,-15.807299238363544447
0.292000000000000093,-16.106661434747643113
0.293000000000000094,-16.398979002505630120
0.294000000000000095,-16.684200004244175375
0.295000000000000095,-16.962266467669984138
0.296000000000000096,-17.233115950218198975
0.297000000000000097,-17.496683045799137801
0.298000000000000098,-17.752900823805163100
0.299000000000000099,-18.001702192171585182
0.300000000000000100,-18.243021177840265779
0.301000000000000101,-18.476794119427928820
0.302000000000000102,-18.702960768246231993
0.303000000000000103,-18.921465295059238798
0.304000000000000103,-19.132257201091611876
0.305000000000000104,-19.335292132822317512
0.306000000000000105,-19.530532601013348426
0.307000000000000106,-19.717948605235616100
0.308000000000000107,-19.897518165867751350
0.309000000000000108,-20.069227766163141524
0.310000000000000109,-20.233072707510977750
0.311000000000000110,-20.389057381462379226
0.312000000000000111,-20.537195462461522055
0.313000000000000111,-20.677510025515175585
0.314000000000000112,-20.810033593262200924
0.315000000000000113,-20.934808117070033973
0.316000000000000114,-21.051884896894943466
0.317000000000000115,-21.161324444701762104
0.318000000000000116,-21.263196296252374395
0.319000000000000117,-21.357578776045293978
0.320000000000000118,-21.444558720125922235
0.321000000000000119,-21.524231161393498013
0.322000000000000119,-21.596698981910215309
0.323000000000000120,-21.662072536573795389
0.324000000000000121,-21.720469252353098000
0.325000000000000122,-21.772013207106990507
0.326000000000000123,-21.816834691816044511
0.327000000000000124,-21.855069759855791034
0.328000000000000125,-21.886859766732516874
0.329000000000000126,-21.912350903489802079
0.330000000000000127,-21.931693726779261766
0.331000000000000127,-21.945042688372833339
0.332000000000000128,-21.952555666679764101
0.333000000000000129,-21.954393502618835043
0.334000000000000130,-21.950719541988132022
0.335000000000000131,-21.941699186271758748
0.336000000000000132,-21.927499453624463399
0.337000000000000133,-21.908288551585165749
0.338000000000000134,-21.884235462886486800
0.339000000000000135,-21.855509545551488060
0.340000000000000135,-21.822280148302002800
0.341000000000000136,-21.784716242143495890
0.342000000000000137,-21.742986068841648972
0.343000000000000138,-21.697256806864434253
0.344000000000000139,-21.647694255231257898
0.345000000000000140,-21.594462535587201302
0.346000000000000141,-21.537723812705859672
0.347000000000000142,-21.477638033518033467
0.348000000000000143,-21.414362684666478742
0.349000000000000143,-21.348052568497134729
0.350000000000000144,-21.278859597316476027
0.351000000000000145,-21.206932605670665737
0.352000000000000146,-21.132417180336553031
0.353000000000000147,-21.055455507655075564
0.354000000000000148,-20.976186237785935162
0.355000000000000149,-20.894744365416112686
0.356000000000000150,-20.811261126415612210
0.357000000000000151,-20.725863909899555182
0.358000000000000151,-20.638676185127501128
0.359000000000000152,-20.549817442647203336
0.360000000000000153,-20.459403149071540895
0.361000000000000154,-20.367544714863011990
0.362000000000000155,-20.274349474489781642
0.363000000000000156,-20.179920678311070503
0.364000000000000157,-20.084357495546512951
0.365000000000000158,-19.987755027684318776
0.366000000000000159,-19.890204331686121009
0.367000000000000159,-19.791792452352026999
0.368000000000000160,-19.692602463217369291
0.369000000000000161,-19.592713515362845556
0.370000000000000162,-19.492200893531471451
0.371000000000000163,-19.391136078959846145
0.372000000000000164,-19.289586818345611618
0.373000000000000165,-19.187617198390093165
0.374000000000000166,-19.085287725371703260
0.375000000000000167,-18.982655409224626908
0.376000000000000167,-18.879773851615723856
0.377000000000000168,-18.776693337532584849
0.378000000000000169,-18.673460929915457029
0.379000000000000170,-18.570120566886277658
0.380000000000000171,-18.466713161148298639
0.381000000000000172,-18.363276701150887504
0.382000000000000173,-18.259846353634166860
0.383000000000000174,-18.156454567189399540
0.384000000000000175,-18.053131176490701648
0.385000000000000175,-17.949903506874338888
0.386000000000000176,-17.846796478961582721
0.387000000000000177,-17.743832713040379900
0.388000000000000178,-17.641032632940675029
0.389000000000000179,-17.538414569156223877
0.390000000000000180,-17.435994860984486365
0.391000000000000181,-17.333787957473489882
0.392000000000000182,-17.231806516981745148
0.393000000000000183,-17.130061505173745928
0.394000000000000183,-17.028562291289716768
0.395000000000000184,-16.927316742543361272
0.396000000000000185,-16.826331316516267123
0.397000000000000186,-16.725611151431703405
0.398000000000000187,-16.625160154203982188
0.399000000000000188,-16.524981086172520151
0.400000000000000189,-16.425075646441953836
0.401000000000000190,-16.325444552761222639
0.402000000000000191,-16.226087619885834812
0.403000000000000191,-16.127003835377657026
0.404000000000000192,-16.028191432806593753
0.405000000000000193,-15.929647962327866395
0.406000000000000194,-15.831370358617025573
0.407000000000000195,-15.733355006153496802
0.408000000000000196,-15.635597801850469324
0.409000000000000197,-15.538094215036526435
0.410000000000000198,-15.440839344800897592
0.411000000000000199,-15.343827974720104734
0.412000000000000199,-15.247054624989724303
0.413000000000000200,-15.150513601990008183
0.414000000000000201,-15.054199045318991779
0.415000000000000202,-14.958104972330691140
0.416000000000000203,-14.862225320220588287
0.417000000000000204,-14.766553985703414043
0.418000000000000205,-14.671084862331957410
0.419000000000000206,-14.575811875508303928
0.420000000000000207,-14.480729015241243118
0.421000000000000207,-14.385830366706139571
0.422000000000000208,-14.291110138664993912
0.423000000000000209,-14.196562689806555113
0.424000000000000210,-14.102182553067233783
0.425000000000000211,-14.007964457994891205
0.426000000000000212,-13.913903351218499083
0.427000000000000213,-13.819994415087046846
0.428000000000000214,-13.726233084541849649
0.429000000000000214,-13.632615062286337348
0.430000000000000215,-13.539136332317619704
0.431000000000000216,-13.445793171884153239
0.432000000000000217,-13.352582161933208127
0.433000000000000218,-13.259500196111767778
0.434000000000000219,-13.166544488383872036
0.435000000000000220,-13.073712579326661753
0.436000000000000221,-12.981002341166739456
0.437000000000000222,-12.888411981617485580
0.438000000000000222,-12.795940046577143789
0.439000000000000223,-12.703585421746382167
0.440000000000000224,-12.611347333222866496
0.441000000000000225,-12.519225347129282255
0.442000000000000226,-12.427219368330105098
0.443000000000000227,-12.335329638290829735
0.444000000000000228,-12.243556732132418574
0.445000000000000229,-12.151901554932084792
0.446000000000000230,-12.060365337320188672
0.447000000000000230,-11.968949630421773733
0.448000000000000231,-11.877656300189592287
0.449000000000000232,-11.786487521174093374
0.450000000000000233,-11.695445769774529765
0.451000000000000234,-11.604533817013560792
0.452000000000000235,-11.513754720876637094
0.453000000000000236,-11.423111818255524241
0.454000000000000237,-11.332608716534373627
0.455000000000000238,-11.242249284854759495
0.456000000000000238,-11.152037645095104423
0.457000000000000239,-11.061978162598126829
0.458000000000000240,-10.972075436678853322
0.459000000000000241,-10.882334290943918020
0.460000000000000242,-10.792759763452046684
0.461000000000000243,-10.703357096743619792
0.462000000000000244,-10.614131727766567437
0.463000000000000245,-10.525089277723777670
0.464000000000000246,-10.436235541866725640
0.465000000000000246,-10.347576479258083992
0.466000000000000247,-10.259118202525277397
0.467000000000000248,-10.170866967625538990
0.468000000000000249,-10.082829163642022863
0.469000000000000250,-9.995011302629212224
0.470000000000000251,-9.907420009524907201
0.471000000000000252,-9.820062012144861185
0.472000000000000253,-9.732944131275370836
0.473000000000000254,-9.646073270877675299
0.474000000000000254,-9.559456408417529971
0.475000000000000255,-9.473100585331987844
0.476000000000000256,-9.387012897644734011
0.477000000000000257,-9.301200486740430762
0.478000000000000258,-9.215670530307457753
0.479000000000000259,-9.130430233458026734
0.480000000000000260,-9.045486820033444175
0.481000000000000261,-8.960847524101739126
0.482000000000000262,-8.876519581654264357
0.483000000000000262,-8.792510222506956907
0.484000000000000263,-8.708826662411350839
0.485000000000000264,-8.625476095379955410
0.486000000000000265,-8.542465686229773425
0.487000000000000266,-8.459802563347313509
0.488000000000000267,-8.377493811677817703
0.489000000000000268,-8.295546465941004755
0.490000000000000269,-8.213967504074940251
0.491000000000000270,-8.132763840909454700
0.492000000000000270,-8.051942322069695734
0.493000000000000271,-7.971509718110432630
0.494000000000000272,-7.891472718880955028
0.495000000000000273,-7.811837928120118235
0.496000000000000274,-7.732611858280985295
0.497000000000000275,-7.653800925583735371
0.498000000000000276,-7.575411445295584301
0.499000000000000277,-7.497449627236006719
0.500000000000000222,-7.419921571505142310
0.501000000000000334,-7.342833264433346940
0.502000000000000224,-7.266190574749323616
0.503000000000000336,-7.189999249963991979
0.504000000000000226,-7.114264912967560583
0.505000000000000338,-7.038993058836188865
0.506000000000000227,-6.964189051845581346
0.507000000000000339,-6.889858122687445352
0.508000000000000229,-6.816005365885847489
0.509000000000000341,-6.742635737409186092
0.510000000000000231,-6.669754052474582195
0.511000000000000343,-6.597364983540065175
0.512000000000000233,-6.525473058481220612
0.513000000000000345,-6.454082658947555728
0.514000000000000234,-6.383198018895027914
0.515000000000000346,-6.312823223289852237
0.516000000000000236,-6.242962206979927764
0.517000000000000348,-6.173618753728986164
0.518000000000000238,-6.104796495409577695
0.519000000000000350,-6.036498911350059338
0.520000000000000240,-5.968729327831592713
0.521000000000000352,-5.901490917730360053
0.522000000000000242,-5.834786700300905515
0.523000000000000353,-5.768619541095852732
0.524000000000000243,-5.702992152017927197
0.525000000000000355,-5.637907091499569034
0.526000000000000245,-5.573366764806101159
0.527000000000000357,-5.509373424457702839
0.528000000000000247,-5.445929170766362404
0.529000000000000359,-5.383035952483052000
0.530000000000000249,-5.320695567551291916
0.531000000000000361,-5.258909663962588965
0.532000000000000250,-5.197679740709943985
0.533000000000000362,-5.137007148834957349
0.534000000000000252,-5.076893092564896293
0.535000000000000364,-5.017338630535367550
0.536000000000000254,-4.958344677095082531
0.537000000000000366,-4.899912003688397633
0.538000000000000256,-4.842041240312359385
0.539000000000000368,-4.784732877044016064
0.540000000000000258,-4.727987265634853387
0.541000000000000369,-4.671804621168246463
0.542000000000000259,-4.616185023776969487
0.543000000000000371,-4.561128420416805440
0.544000000000000261,-4.506634626693310608
0.545000000000000373,-4.452703328738143007
0.546000000000000263,-4.399334085132015737
0.547000000000000375,-4.346526328870764289
0.548000000000000265,-4.294279369371996502
0.549000000000000377,-4.242592394518720944
0.550000000000000266,-4.191464472737624014
0.551000000000000378,-4.140894555108710406
0.552000000000000268,-4.090881477503878649
0.553000000000000380,-4.041423962751506949
0.554000000000000270,-3.992520622824669907
0.555000000000000382,-3.944169961050209672
0.556000000000000272,-3.896370374336509457
0.557000000000000384,-3.849120155417236955
0.558000000000000274,-3.802417495109169376
0.559000000000000385,-3.756260484581409376
0.560000000000000275,-3.710647117634297665
0.561000000000000387,-3.665575292985550071
0.562000000000000277,-3.621042816561873767
0.563000000000000389,-3.577047403793932823
0.564000000000000279,-3.533586681912977756
0.565000000000000391,-3.490658192247122482
0.566000000000000281,-3.448259392515728994
0.567000000000000393,-3.406387659120043487
0.568000000000000282,-3.365040289428709031
0.569000000000000394,-3.324214504056297592
0.570000000000000284,-3.283907449133740108
0.571000000000000396,-3.244116198568908427
0.572000000000000286,-3.204837756296286866
0.573000000000000398,-3.166069058514129786
0.574000000000000288,-3.127806975908174358
0.575000000000000400,-3.090048315860490113
0.576000000000000290,-3.052789824642485605
0.577000000000000401,-3.016028189590884701
0.578000000000000291,-2.979760041265804738
0.579000000000000403,-2.943981955589766386
0.580000000000000293,-2.908690455966973953
0.581000000000000405,-2.873882015381705735
0.582000000000000295,-2.839553058475329461
0.583000000000000407,-2.805699963600827740
0.584000000000000297,-2.772319064854426252
0.585000000000000409,-2.739406654083384129
0.586000000000000298,-2.706958982869537955
0.587000000000000410,-2.674972264487792906
0.588000000000000300,-2.643442675839212885
0.589000000000000412,-2.612366359358003542
0.590000000000000302,-2.581739424892083967
0.591000000000000414,-2.551557951556707948
0.592000000000000304,-2.521817989560780404
0.593000000000000416,-2.492515562005451990
0.594000000000000306,-2.463646666654776052
0.595000000000000417,-2.435207277677986504
0.596000000000000307,-2.407193347363252300
0.597000000000000419,-2.379600807802591422
0.598000000000000309,-2.352425572547834243
0.599000000000000421,-2.325663538237327188
0.600000000000000311,-2.299310586193397565
0.601000000000000423,-2.273362583990277574
0.602000000000000313,-2.247815386992611852
0.603000000000000425,-2.222664839864189723
0.604000000000000314,-2.197906778047227672
0.605000000000000426,-2.173537029211774385
0.606000000000000316,-2.149551414675625605
0.607000000000000428,-2.125945750794430822
0.608000000000000318,-2.102715850322330660
0.609000000000000430,-2.079857523742927761
0.610000000000000320,-2.057366580570904269
0.611000000000000432,-2.035238830624169104
0.612000000000000322,-2.013470085266845011
0.613000000000000433,-1.992056158623076501
0.614000000000000323,-1.970992868761899386
0.615000000000000435,-1.950276038853293814
0.616000000000000325,-1.929901498295617301
0.617000000000000437,-1.909865083814577202
0.618000000000000327,-1.890162640534005067
0.619000000000000439,-1.870790023018560344
0.620000000000000329,-1.851743096288691159
0.621000000000000441,-1.833017736808000508
0.622000000000000330,-1.814609833443343145
0.623000000000000442,-1.796515288397820598
0.624000000000000332,-1.778730018117048006
0.625000000000000444,-1.761249954168875975
0.626000000000000334,-1.744071044096902723
0.627000000000000446,-1.727189252248046758
0.628000000000000336,-1.710600560574489393
0.629000000000000448,-1.694300969410264868
0.630000000000000338,-1.678286498222871348
0.631000000000000449,-1.662553186340112177
0.632000000000000339,-1.647097093652613919
0.633000000000000451,-1.631914301292231473
0.634000000000000341,-1.617000912286759018
0.635000000000000453,-1.602353052191223259
0.636000000000000343,-1.587966869696106453
0.637000000000000455,-1.573838537212873812
0.638000000000000345,-1.559964251437105931
0.639000000000000457,-1.546340233889574645
0.640000000000000346,-1.532962731435684400
0.641000000000000458,-1.519828016783511870
0.642000000000000348,-1.506932388960907421
0.643000000000000460,-1.494272173771907131
0.644000000000000350,-1.481843724232918103
0.645000000000000462,-1.469643420988901106
0.646000000000000352,-1.457667672710034834
0.647000000000000464,-1.445912916469078713
0.648000000000000353,-1.434375618099940297
0.649000000000000465,-1.423052272537624008
0.650000000000000355,-1.411939404140094778
0.651000000000000467,-1.401033566992231583
0.652000000000000357,-1.390331345192373336
0.653000000000000469,-1.379829353121676760
0.654000000000000359,-1.369524235696746528
0.655000000000000471,-1.359412668605765928
0.656000000000000361,-1.349491358528588592
0.657000000000000473,-1.339757043341021525
0.658000000000000362,-1.330206492303735777
