# C-amorph-2_CS-8898-AC
# h[nm],U(h)[kJ/mol]
0.149999999999999994,94.545926214550746636
0.150999999999999995,91.853232251357241012
0.151999999999999996,89.579699602282261139
0.152999999999999997,87.436257163455024966
0.153999999999999998,85.313508937276012034
0.154999999999999999,83.186995149362445545
0.156000000000000000,81.066089248092623620
0.157000000000000001,78.968498631708072821
0.158000000000000002,76.909171968946182574
0.159000000000000002,74.896831722339669568
0.160000000000000003,72.934158109534195091
0.161000000000000004,71.019400805059675008
0.162000000000000005,69.148258112198135450
0.163000000000000006,67.315487861202427666
0.164000000000000007,65.516063697870791316
0.165000000000000008,63.745871671453393503
0.166000000000000009,62.002023920245434851
0.167000000000000010,60.282892229594622791
0.168000000000000010,58.587961072442780619
0.169000000000000011,56.917583406026679427
0.170000000000000012,55.272702080766350718
0.171000000000000013,53.654580028140841819
0.172000000000000014,52.064565657810533139
0.173000000000000015,50.503906839485345870
0.174000000000000016,48.973617391958924827
0.175000000000000017,47.474393681075085283
0.176000000000000018,46.006575129249867473
0.177000000000000018,44.570140546588937980
0.178000000000000019,43.164731657972566836
0.179000000000000020,41.789695565685931911
0.180000000000000021,40.444138795690314225
0.181000000000000022,39.126986760781498731
0.182000000000000023,37.837043746744193129
0.183000000000000024,36.573049762192759715
0.184000000000000025,35.333731711830189681
0.185000000000000026,34.117847315268157615
0.186000000000000026,32.924220983934382900
0.187000000000000027,31.751771488875562000
0.188000000000000028,30.599531715238345697
0.189000000000000029,29.466661123761831220
0.190000000000000030,28.352451747282337635
0.191000000000000031,27.256328662898333448
0.192000000000000032,26.177845918745628495
0.193000000000000033,25.116678876889462657
0.194000000000000034,24.072613876745773354
0.195000000000000034,23.045536040142479806
0.196000000000000035,22.035415940517030009
0.197000000000000036,21.042295753343601916
0.198000000000000037,20.066275399137062152
0.199000000000000038,19.107499088946376276
0.200000000000000039,18.166142588299301508
0.201000000000000040,17.242401431061043837
0.202000000000000041,16.336480240647745177
0.203000000000000042,15.448583252797039478
0.204000000000000042,14.578906081417850160
0.205000000000000043,13.727628726330616260
0.206000000000000044,12.894909788130913597
0.207000000000000045,12.080881829994996934
0.208000000000000046,11.285647807959321653
0.209000000000000047,10.509278479011989305
0.210000000000000048,9.751810689234005736
0.211000000000000049,9.013246441291959954
0.212000000000000050,8.293552640961499023
0.213000000000000050,7.592661425304088496
0.214000000000000051,6.910470979966182092
0.215000000000000052,6.246846759262562720
0.216000000000000053,5.601623029771644724
0.217000000000000054,4.974604665722865526
0.218000000000000055,4.365569132183876100
0.219000000000000056,3.774268599715184358
0.220000000000000057,3.200432141562366439
0.221000000000000058,2.643767971473205858
0.222000000000000058,2.103965686755374875
0.223000000000000059,1.580698487181551481
0.224000000000000060,1.073625345764589012
0.225000000000000061,0.582393112261817558
0.226000000000000062,0.106638534533200463
0.227000000000000063,-0.354009813406127249
0.228000000000000064,-0.799929704598556168
0.229000000000000065,-1.231503538863274461
0.230000000000000066,-1.649116731981192130
0.231000000000000066,-2.053156215419488895
0.232000000000000067,-2.444009046134770102
0.233000000000000068,-2.822061124769243090
0.234000000000000069,-3.187696019598354802
0.235000000000000070,-3.541293892863659920
0.236000000000000071,-3.883230525595711580
0.237000000000000072,-4.213876436668174463
0.238000000000000073,-4.533596091595736510
0.239000000000000073,-4.842747196469820992
0.240000000000000074,-5.141680072397631918
0.241000000000000075,-5.430737105848431057
0.242000000000000076,-5.710252270402991215
0.243000000000000077,-5.980550715532910289
0.244000000000000078,-6.241948418193603132
0.245000000000000079,-6.494751893189850023
0.246000000000000080,-6.739257958457035791
0.247000000000000081,-6.975753551589920498
0.248000000000000081,-7.204515594137555823
0.249000000000000082,-7.425810900365334533
0.250000000000000111,-7.639896127360790601
0.251000000000000112,-7.847017763525596656
0.252000000000000113,-8.047412152653642181
0.253000000000000114,-8.241305550939772573
0.254000000000000115,-8.428914214400791138
0.255000000000000115,-8.610444514314758990
0.256000000000000116,-8.786093078401057355
0.257000000000000117,-8.956046955570501567
0.258000000000000118,-9.120483802173286136
0.259000000000000119,-9.279572087764259791
0.260000000000000120,-9.433471318490463275
0.261000000000000121,-9.582332276284777350
0.262000000000000122,-9.726297272125441040
0.263000000000000123,-9.865500411691453309
0.264000000000000123,-10.000067871812609255
0.265000000000000124,-10.130118186177773154
0.266000000000000125,-10.255762538829078068
0.267000000000000126,-10.377105064031306725
0.268000000000000127,-10.494243151167321315
0.269000000000000128,-10.607267753370171803
0.270000000000000129,-10.716263698662759296
0.271000000000000130,-10.821310002435362563
0.272000000000000131,-10.922480180150788698
0.273000000000000131,-11.019842559226306733
0.274000000000000132,-11.113460589100620624
0.275000000000000133,-11.203393148553709935
0.276000000000000134,-11.289694849406176402
0.277000000000000135,-11.372416335783613661
0.278000000000000136,-11.451604578190247352
0.279000000000000137,-11.527303161694140599
0.280000000000000138,-11.599552567583618412
0.281000000000000139,-11.668390447911663799
0.282000000000000139,-11.733851892400702255
0.283000000000000140,-11.795969687235277945
0.284000000000000141,-11.854774565323651814
0.285000000000000142,-11.910295447662004875
0.286000000000000143,-11.962559675485673338
0.287000000000000144,-12.011593232941148557
0.288000000000000145,-12.057420960060676762
0.289000000000000146,-12.100066755866460966
0.290000000000000147,-12.139553771476135680
0.291000000000000147,-12.175904593122613306
0.292000000000000148,-12.209141415041768752
0.293000000000000149,-12.239286202219039623
0.294000000000000150,-12.266360843021683280
0.295000000000000151,-12.290387291777328471
0.296000000000000152,-12.311387701390378524
0.297000000000000153,-12.329384546117386989
0.298000000000000154,-12.344400734649271456
0.299000000000000155,-12.356459713673288547
0.300000000000000155,-12.365585562110318563
0.301000000000000156,-12.371803076243516273
0.302000000000000157,-12.375137845973316786
0.303000000000000158,-12.375616322449891626
0.304000000000000159,-12.373265877349252762
0.305000000000000160,-12.368114854071553310
0.306000000000000161,-12.360192611151386899
0.307000000000000162,-12.349529558178957700
0.308000000000000163,-12.336157184538516063
0.309000000000000163,-12.320108081276524459
0.310000000000000164,-12.301415956416438036
0.311000000000000165,-12.280115644039920397
0.312000000000000166,-12.256243107456258556
0.313000000000000167,-12.229835436781939961
0.314000000000000168,-12.200930841251800274
0.315000000000000169,-12.169568636581182375
0.316000000000000170,-12.135789227695989112
0.317000000000000171,-12.099634087143398276
0.318000000000000171,-12.061145729491700607
0.319000000000000172,-12.020367682022213174
0.320000000000000173,-11.977344452010173725
0.321000000000000174,-11.932121490884750159
0.322000000000000175,-11.884745155551119211
0.323000000000000176,-11.835262667149759608
0.324000000000000177,-11.783722067519914134
0.325000000000000178,-11.730172173625529553
0.326000000000000179,-11.674662530193320009
0.327000000000000179,-11.617243360803223950
0.328000000000000180,-11.557965517662193378
0.329000000000000181,-11.496880430283134444
0.330000000000000182,-11.434040053280499549
0.331000000000000183,-11.369496813485117315
0.332000000000000184,-11.303303556570504895
0.333000000000000185,-11.235513493373614935
0.334000000000000186,-11.166180146083075186
0.335000000000000187,-11.095357294458406017
0.336000000000000187,-11.023098922234387587
0.337000000000000188,-10.949459163855008725
0.338000000000000189,-10.874492251672640108
0.339000000000000190,-10.798252463738700513
0.340000000000000191,-10.720794072303233335
0.341000000000000192,-10.642171293132495435
0.342000000000000193,-10.562438235744671999
0.343000000000000194,-10.481648854656150149
0.344000000000000195,-10.399856901722435154
0.345000000000000195,-10.317115879650353705
0.346000000000000196,-10.233478996750557499
0.347000000000000197,-10.148999122992261590
0.348000000000000198,-10.063728747415193965
0.349000000000000199,-9.977719936947137214
0.350000000000000200,-9.891024296669092664
0.351000000000000201,-9.803692931563881885
0.352000000000000202,-9.715776409778428047
0.353000000000000203,-9.627324727424289463
0.354000000000000203,-9.538387274935718807
0.355000000000000204,-9.449012804999691539
0.356000000000000205,-9.359249402067508328
0.357000000000000206,-9.269144453453272092
0.358000000000000207,-9.178744622020097665
0.359000000000000208,-9.088095820451311369
0.360000000000000209,-8.997243187099963180
0.361000000000000210,-8.906231063406625736
0.362000000000000210,-8.815102972872240983
0.363000000000000211,-8.723901601569782116
0.364000000000000212,-8.632668780175837497
0.365000000000000213,-8.541445467500484057
0.366000000000000214,-8.450271735491710956
0.367000000000000215,-8.359186755688376991
0.368000000000000216,-8.268228787093816479
0.369000000000000217,-8.177435165440405385
0.370000000000000218,-8.086842293813928606
0.371000000000000218,-7.996485634605013715
0.372000000000000219,-7.906399702753833303
0.373000000000000220,-7.816618060253077260
0.374000000000000221,-7.727173311873376527
0.375000000000000222,-7.638097102074318911
0.376000000000000223,-7.549420113063911586
0.377000000000000224,-7.461172063968435353
0.378000000000000225,-7.373381711074477707
0.379000000000000226,-7.286076849104453856
0.380000000000000226,-7.199284313486932874
0.381000000000000227,-7.113029983582666027
0.382000000000000228,-7.027338786827611372
0.383000000000000229,-6.942234703754012415
0.384000000000000230,-6.857740773850788507
0.385000000000000231,-6.773879102225040860
0.386000000000000232,-6.690670867026318192
0.387000000000000233,-6.608136327596038306
0.388000000000000234,-6.526294833304683962
0.389000000000000234,-6.445164833040055719
0.390000000000000235,-6.364763885310161129
0.391000000000000236,-6.285108668925222908
0.392000000000000237,-6.206214994223538284
0.393000000000000238,-6.128097814807042631
0.394000000000000239,-6.050771239752626762
0.395000000000000240,-5.974248546266418991
0.396000000000000241,-5.898542192748759128
0.397000000000000242,-5.823663832238375804
0.398000000000000242,-5.749624326205237779
0.399000000000000243,-5.676433758662186690
0.400000000000000244,-5.604101450566277620
0.401000000000000245,-5.532635974481888930
0.402000000000000246,-5.462045169478073170
0.403000000000000247,-5.392336156233759503
0.404000000000000248,-5.323515352325275174
0.405000000000000249,-5.255588487671377429
0.406000000000000250,-5.188560620111915433
0.407000000000000250,-5.122436151097137902
0.408000000000000251,-5.057218841465417114
0.409000000000000252,-4.992911827288169846
0.410000000000000253,-4.929517635761346384
0.411000000000000254,-4.867038201123998320
0.412000000000000255,-4.805474880584981179
0.413000000000000256,-4.744828470239883522
0.414000000000000257,-4.685099220960874611
0.415000000000000258,-4.626286854243170765
0.416000000000000258,-4.568390577992384571
0.417000000000000259,-4.511409102237957214
0.418000000000000260,-4.455340654758524366
0.419000000000000261,-4.400182996605803254
0.420000000000000262,-4.345933437514366560
0.421000000000000263,-4.292588851185364263
0.422000000000000264,-4.240145690432803427
0.423000000000000265,-4.188600002181871673
0.424000000000000266,-4.137947442309336310
0.425000000000000266,-4.088183290316634633
0.426000000000000267,-4.039302463826987655
0.427000000000000268,-3.991299532898433089
0.428000000000000269,-3.944168734145202304
0.429000000000000270,-3.897903984660550325
0.430000000000000271,-3.852498895734530748
0.431000000000000272,-3.807946786360913993
0.432000000000000273,-3.764240696527791918
0.433000000000000274,-3.721373400287041111
0.434000000000000274,-3.679337418598194631
0.435000000000000275,-3.638125031942800458
0.436000000000000276,-3.597728292705744568
0.437000000000000277,-3.558139037320434461
0.438000000000000278,-3.519348898175204798
0.439000000000000279,-3.481349315278650547
0.440000000000000280,-3.444131547681949179
0.441000000000000281,-3.407686684656653142
0.442000000000000282,-3.372005656626781533
0.443000000000000282,-3.337079245854229548
0.444000000000000283,-3.302898096877084022
0.445000000000000284,-3.269452726700477374
0.446000000000000285,-3.236733534740007023
0.447000000000000286,-3.204730812518137295
0.448000000000000287,-3.173434753113967943
0.449000000000000288,-3.142835460367331191
0.450000000000000289,-3.112922957838144100
0.451000000000000290,-3.083687197522319678
0.452000000000000290,-3.055118068325696878
0.453000000000000291,-3.027205404297617086
0.454000000000000292,-2.999938992626044687
0.455000000000000293,-2.973308581396168826
0.456000000000000294,-2.947303887114734344
0.457000000000000295,-2.921914602002394723
0.458000000000000296,-2.897130401056549065
0.459000000000000297,-2.872940948887291679
0.460000000000000298,-2.849335906329176993
0.461000000000000298,-2.826304936831629533
0.462000000000000299,-2.803837712630982359
0.463000000000000300,-2.781923920707103814
0.464000000000000301,-2.760553268527820681
0.465000000000000302,-2.739715489584281904
0.466000000000000303,-2.719400348720572680
0.467000000000000304,-2.699597647260872257
0.468000000000000305,-2.680297227937630034
0.469000000000000306,-2.661488979624131002
0.470000000000000306,-2.643162841875012159
0.471000000000000307,-2.625308809278188882
0.472000000000000308,-2.607916935621844789
0.473000000000000309,-2.590977337880008058
0.474000000000000310,-2.574480200020356158
0.475000000000000311,-2.558415776637879890
0.476000000000000312,-2.542774396418079341
0.477000000000000313,-2.527546465433274214
0.478000000000000314,-2.512722470275744691
0.479000000000000314,-2.498292981031359439
0.480000000000000315,-2.484248654097265696
0.481000000000000316,-2.470580234847402856
0.482000000000000317,-2.457278560149330549
0.483000000000000318,-2.444334560736101114
0.484000000000000319,-2.431739263436688336
0.485000000000000320,-2.419483793268599747
0.486000000000000321,-2.407559375396187473
0.487000000000000322,-2.395957336958189021
0.488000000000000322,-2.384669108767970336
0.489000000000000323,-2.373686226889975437
0.490000000000000324,-2.363000334095763044
0.491000000000000325,-2.352603181203043015
0.492000000000000326,-2.342486628301043261
0.493000000000000327,-2.332642645865548481
0.494000000000000328,-2.323063315766859205
0.495000000000000329,-2.313740832173912576
0.496000000000000330,-2.304667502357734321
0.497000000000000330,-2.295835747397389603
0.498000000000000331,-2.287238102791487648
0.499000000000000332,-2.278867218978330556
0.500000000000000333,-2.270715861767676369
0.501000000000000334,-2.262776912687071373
0.502000000000000335,-2.255043369245661289
0.503000000000000336,-2.247508345118337747
0.504000000000000337,-2.240165070252991608
0.505000000000000338,-2.233006890903669994
0.506000000000000338,-2.226027269592291358
0.507000000000000339,-2.219219785001595557
0.508000000000000340,-2.212578131801908210
0.509000000000000341,-2.206096120414285711
0.510000000000000342,-2.199767676712500730
0.511000000000000343,-2.193586841666343989
0.512000000000000344,-2.187547770928595980
0.513000000000000345,-2.181644734368034744
0.514000000000000346,-2.175872115550769870
0.515000000000000346,-2.170224411172090306
0.516000000000000347,-2.164696230441051750
0.517000000000000348,-2.159282294419957449
0.518000000000000349,-2.153977435320725498
0.519000000000000350,-2.148776595760268471
0.520000000000000351,-2.143674827976830066
0.521000000000000352,-2.138667293009187453
0.522000000000000353,-2.133749259840648449
0.523000000000000353,-2.128916104509638973
0.524000000000000354,-2.124163309188700666
0.525000000000000355,-2.119486461233615948
0.526000000000000356,-2.114881252204353412
0.527000000000000357,-2.110343476859512180
0.528000000000000358,-2.105869032125816442
0.529000000000000359,-2.101453916044260239
0.530000000000000360,-2.097094226694390606
0.531000000000000361,-2.092786161098204811
0.532000000000000361,-2.088526014105091200
0.533000000000000362,-2.084310177259182773
0.534000000000000363,-2.080135137650482857
0.535000000000000364,-2.075997476751047177
0.536000000000000365,-2.071893869237486197
0.537000000000000366,-2.067821081801024530
0.538000000000000367,-2.063775971946253396
0.539000000000000368,-2.059755486779789813
0.540000000000000369,-2.055756661789865269
0.541000000000000369,-2.051776619617989628
0.542000000000000370,-2.047812568823663248
0.543000000000000371,-2.043861802643162306
0.544000000000000372,-2.039921697743367179
0.545000000000000373,-2.035989712971534082
0.546000000000000374,-2.032063388101929213
0.547000000000000375,-2.028140342580165179
0.548000000000000376,-2.024218274266112338
0.549000000000000377,-2.020294958176129807
0.550000000000000377,-2.016368245225411027
0.551000000000000378,-2.012436060971202423
0.552000000000000379,-2.008496404357560827
0.553000000000000380,-2.004547346462379309
0.554000000000000381,-2.000587029247280491
0.555000000000000382,-1.996613664311073677
0.556000000000000383,-1.992625531647297166
0.557000000000000384,-1.988620978406488549
0.558000000000000385,-1.984598417663680392
0.559000000000000385,-1.980556327191699051
0.560000000000000386,-1.976493248240699829
0.561000000000000387,-1.972407784324484936
0.562000000000000388,-1.968298600014008581
0.563000000000000389,-1.964164419738538836
0.564000000000000390,-1.960004026594849069
0.565000000000000391,-1.955816261164872616
0.566000000000000392,-1.951600020342156183
0.567000000000000393,-1.947354256167486142
0.568000000000000393,-1.943077974673996788
0.569000000000000394,-1.938770234742105192
0.570000000000000395,-1.934430146964536190
0.571000000000000396,-1.930056872521723976
0.572000000000000397,-1.925649622067878708
0.573000000000000398,-1.921207654627909545
0.574000000000000399,-1.916730276505487440
0.575000000000000400,-1.912216840202415113
0.576000000000000401,-1.907666743349529570
0.577000000000000401,-1.903079427649322586
0.578000000000000402,-1.898454377830420370
0.579000000000000403,-1.893791120614100265
0.580000000000000404,-1.889089223692997477
0.581000000000000405,-1.884348294722098860
0.582000000000000406,-1.879567980322168763
0.583000000000000407,-1.874747965095697522
0.584000000000000408,-1.869887970655482068
0.585000000000000409,-1.864987754665895947
0.586000000000000409,-1.860047109896950657
0.587000000000000410,-1.855065863291198269
0.588000000000000411,-1.850043875043511532
0.589000000000000412,-1.844981037693821602
0.590000000000000413,-1.839877275232799203
0.591000000000000414,-1.834732542220550044
0.592000000000000415,-1.829546822918314941
0.593000000000000416,-1.824320130433176868
0.594000000000000417,-1.819052505875800474
0.595000000000000417,-1.813744017531179198
0.596000000000000418,-1.808394760042368432
0.597000000000000419,-1.803004853607214075
0.598000000000000420,-1.797574443188004523
0.599000000000000421,-1.792103697734051426
0.600000000000000422,-1.786592809417139716
0.601000000000000423,-1.781041992879798475
0.602000000000000424,-1.775451484496343380
0.603000000000000425,-1.769821541646657170
0.604000000000000425,-1.764152442002590915
0.605000000000000426,-1.758444482826976962
0.606000000000000427,-1.752697980285164103
0.607000000000000428,-1.746913268768950145
0.608000000000000429,-1.741090700232943433
0.609000000000000430,-1.735230643543119955
0.610000000000000431,-1.729333483837648178
0.611000000000000432,-1.723399621899748269
