# C-amorph-2_CS-311940-AC
# h[nm],U(h)[kJ/mol]
0.149999999999999994,96.222650627420449609
0.150999999999999995,93.475548798611924894
0.151999999999999996,91.030811419241530302
0.152999999999999997,88.700797186831991326
0.153999999999999998,86.408822167171834394
0.154999999999999999,84.133363212145425791
0.156000000000000000,81.876793307782733677
0.157000000000000001,79.648951711872982173
0.158000000000000002,77.459379287152060556
0.159000000000000002,75.314373749088815657
0.160000000000000003,73.216531166472478276
0.161000000000000004,71.165407508145690940
0.162000000000000005,69.158540858478588120
0.163000000000000006,67.192445708156441242
0.164000000000000007,65.263409343803431284
0.165000000000000008,63.368042743201009159
0.166000000000000009,61.503601402113176277
0.167000000000000010,59.668119135843049605
0.168000000000000010,57.860405412635920186
0.169000000000000011,56.079953733441392671
0.170000000000000012,54.326800749064872775
0.171000000000000013,52.601366544772098166
0.172000000000000014,50.904297630497488569
0.173000000000000015,49.236326513679728123
0.174000000000000016,47.598155604260782070
0.175000000000000017,45.990368598485041218
0.176000000000000018,44.413369243166883393
0.177000000000000018,42.867345264144809391
0.178000000000000019,41.352254010310971921
0.179000000000000020,39.867825794711421850
0.180000000000000021,38.413580814994801926
0.181000000000000022,36.988855750588086835
0.182000000000000023,35.592836541301593911
0.183000000000000024,34.224594360022535966
0.184000000000000025,32.883122334865234393
0.185000000000000026,31.567371108519001410
0.186000000000000026,30.276281815696005850
0.187000000000000027,29.008815496899728714
0.188000000000000028,27.763978340487120988
0.189000000000000029,26.540842453715136173
0.190000000000000030,25.338562109820209400
0.191000000000000031,24.156385607426642537
0.192000000000000032,22.993663017359118328
0.193000000000000033,21.849850187444395999
0.194000000000000034,20.724509435321614603
0.195000000000000034,19.617307389434291309
0.196000000000000035,18.528010445446284393
0.197000000000000036,17.456478294772747262
0.198000000000000037,16.402655958449098961
0.199000000000000038,15.366564727130713308
0.200000000000000039,14.348292369874943830
0.201000000000000040,13.347982933116103510
0.202000000000000041,12.365826408954585958
0.203000000000000042,11.402048510106634893
0.204000000000000042,10.456900748751301933
0.205000000000000043,9.530650978880306212
0.206000000000000044,8.623574527131342649
0.207000000000000045,7.735946005781128676
0.208000000000000046,6.868031873721820446
0.209000000000000047,6.020083786847964191
0.210000000000000048,5.192332758242453217
0.211000000000000049,4.384984130703762695
0.212000000000000050,3.598213349284065998
0.213000000000000050,2.832162509370015790
0.214000000000000051,2.086937646169087834
0.215000000000000052,1.362606724005628767
0.216000000000000053,0.659198278320045850
0.217000000000000054,-0.023299340547435987
0.218000000000000055,-0.684938175055909149
0.219000000000000056,-1.325810374016547888
0.220000000000000057,-1.946047466432826001
0.221000000000000058,-2.545819249258241879
0.222000000000000058,-3.125332341205373066
0.223000000000000059,-3.684828452684615563
0.224000000000000060,-4.224582419472223904
0.225000000000000061,-4.744900044911521952
0.226000000000000062,-5.246115792435275260
0.227000000000000063,-5.728590367043195464
0.228000000000000064,-6.192708221144255454
0.229000000000000065,-6.638875016938972529
0.230000000000000066,-7.067515074315859458
0.231000000000000066,-7.479068830111843980
0.232000000000000067,-7.873990331565254408
0.233000000000000068,-8.252744783899046865
0.234000000000000069,-8.615806169226829070
0.235000000000000070,-8.963654951389617764
0.236000000000000071,-9.296775878913416946
0.237000000000000072,-9.615655896034605021
0.238000000000000073,-9.920782169670085082
0.239000000000000073,-10.212640238312872043
0.240000000000000074,-10.491712287110120272
0.241000000000000075,-10.758475551821248928
0.242000000000000076,-11.013400852955863130
0.243000000000000077,-11.256951260147083360
0.244000000000000078,-11.489580885717213476
0.245000000000000079,-11.711733805432126942
0.246000000000000080,-11.923843103609101490
0.247000000000000081,-12.126330039032751529
0.248000000000000081,-12.319603327534661474
0.249000000000000082,-12.504058536596819096
0.250000000000000111,-12.680077586938955037
0.251000000000000112,-12.848028355735227279
0.252000000000000113,-13.008264375871528173
0.253000000000000114,-13.161124625489009077
0.254000000000000115,-13.306933401960151286
0.255000000000000115,-13.446000274398892671
0.256000000000000116,-13.578620108813529654
0.257000000000000117,-13.705073160061758131
0.258000000000000118,-13.825625224855949469
0.259000000000000119,-13.940527850189889492
0.260000000000000120,-14.050018591708703042
0.261000000000000121,-14.154321316718187163
0.262000000000000122,-14.253646546724487720
0.263000000000000123,-14.348191834604730133
0.264000000000000123,-14.438142171732513575
0.265000000000000124,-14.523670420613816745
0.266000000000000125,-14.604937768827891631
0.267000000000000126,-14.682094200310228160
0.268000000000000127,-14.755278980259740607
0.269000000000000128,-14.824621150196586328
0.270000000000000129,-14.890240029939928235
0.271000000000000130,-14.952245723514547393
0.272000000000000131,-15.010739626230014565
0.273000000000000131,-15.065814930405270644
0.274000000000000132,-15.117557127433920883
0.275000000000000133,-15.166044504100891999
0.276000000000000134,-15.211348631267886944
0.277000000000000135,-15.253534843243594210
0.278000000000000136,-15.292662706344355428
0.279000000000000137,-15.328786475331162009
0.280000000000000138,-15.361955536579788628
0.281000000000000139,-15.392214837002594408
0.282000000000000139,-15.419605297892250206
0.283000000000000140,-15.444164213000288299
0.284000000000000141,-15.465925630296666782
0.285000000000000142,-15.484920716980246524
0.286000000000000143,-15.501178107425534591
0.287000000000000144,-15.514724233856664881
0.288000000000000145,-15.525583639637977384
0.289000000000000146,-15.533779275159584898
0.290000000000000147,-15.539332776378140366
0.291000000000000147,-15.542264726146990839
0.292000000000000148,-15.542594898536805204
0.293000000000000149,-15.540342486407485723
0.294000000000000150,-15.535526312545442806
0.295000000000000151,-15.528165024727837107
0.296000000000000152,-15.518277275116000524
0.297000000000000153,-15.505881884416648830
0.298000000000000154,-15.490997991279504831
0.299000000000000155,-15.473645187426177117
0.300000000000000155,-15.453843639025942380
0.301000000000000156,-15.431614194851425381
0.302000000000000157,-15.406978481760173594
0.303000000000000158,-15.379958988057666147
0.304000000000000159,-15.350579135303885181
0.305000000000000160,-15.318863339128318657
0.306000000000000161,-15.284837059619269084
0.307000000000000162,-15.248526841851235858
0.308000000000000163,-15.209960347109594991
0.309000000000000163,-15.169166375365984223
0.310000000000000164,-15.126174879549441954
0.311000000000000165,-15.081016972148614030
0.312000000000000166,-15.033724924669400025
0.313000000000000167,-14.984332160459874927
0.314000000000000168,-14.932873241400969277
0.315000000000000169,-14.879383848946934776
0.316000000000000170,-14.823900759984667275
0.317000000000000171,-14.766461817964898984
0.318000000000000171,-14.707105899742265009
0.319000000000000172,-14.645872878544409446
0.320000000000000173,-14.582803583473349818
0.321000000000000174,-14.517939755925169720
0.322000000000000175,-14.451324003296813103
0.323000000000000176,-14.382999750331560307
0.324000000000000177,-14.313011188437346988
0.325000000000000178,-14.241403223295071356
0.326000000000000179,-14.168221421057202392
0.327000000000000179,-14.093511953420081895
0.328000000000000180,-14.017321541836807341
0.329000000000000181,-13.939697401122032261
0.330000000000000182,-13.860687182683330221
0.331000000000000183,-13.780338917599323167
0.332000000000000184,-13.698700959749128714
0.333000000000000185,-13.615821929183507422
0.334000000000000186,-13.531750655913956649
0.335000000000000187,-13.446536124282218339
0.336000000000000187,-13.360227418059906768
0.337000000000000188,-13.272873666414829685
0.338000000000000189,-13.184523990868957100
0.339000000000000190,-13.095227453360982039
0.340000000000000191,-13.005033005515382882
0.341000000000000192,-12.913989439209450083
0.342000000000000193,-12.822145338519169044
0.343000000000000194,-12.729549033115775458
0.344000000000000195,-12.636248553174988629
0.345000000000000195,-12.542291585852893832
0.346000000000000196,-12.447725433373706849
0.347000000000000197,-12.352596972767106109
0.348000000000000198,-12.256952617285696405
0.349000000000000199,-12.160838279525830075
0.350000000000000200,-12.064299336269129981
0.351000000000000201,-11.967380595055562509
0.352000000000000202,-11.870126262493517544
0.353000000000000203,-11.772579914307158333
0.354000000000000203,-11.674784467116250397
0.355000000000000204,-11.576782151939267962
0.356000000000000205,-11.478614489406533394
0.357000000000000206,-11.380322266666153652
0.358000000000000207,-11.281945515961997017
0.359000000000000208,-11.183523494859990421
0.360000000000000209,-11.085094668095873516
0.361000000000000210,-10.986696691014953942
0.362000000000000210,-10.888366394572162932
0.363000000000000211,-10.790139771858484607
0.364000000000000212,-10.692051966118057749
0.365000000000000213,-10.594137260218404961
0.366000000000000214,-10.496429067535153479
0.367000000000000215,-10.398959924210959826
0.368000000000000216,-10.301761482747744836
0.369000000000000217,-10.204864506890086062
0.370000000000000218,-10.108298867757294914
0.371000000000000218,-10.012093541180782097
0.372000000000000219,-9.916276606203329180
0.373000000000000220,-9.820875244696324557
0.374000000000000221,-9.725915742051084223
0.375000000000000222,-9.631423488900257013
0.376000000000000223,-9.537422983825546652
0.377000000000000224,-9.443937837008085978
0.378000000000000225,-9.350990774778185965
0.379000000000000226,-9.258603645021459272
0.380000000000000226,-9.166797423399053457
0.381000000000000227,-9.075592220339807170
0.382000000000000228,-8.985007288763334543
0.383000000000000229,-8.895061032493225994
0.384000000000000230,-8.805771015320438266
0.385000000000000231,-8.717153970677934183
0.386000000000000232,-8.629225811888037612
0.387000000000000233,-8.542001642945157514
0.388000000000000234,-8.455495769797181538
0.389000000000000234,-8.369721712090036903
0.390000000000000235,-8.284692215340395904
0.391000000000000236,-8.200419263503047063
0.392000000000000237,-8.116914091899758432
0.393000000000000238,-8.034187200478102753
0.394000000000000239,-7.952248367369132431
0.395000000000000240,-7.871106662714192126
0.396000000000000241,-7.790770462731932078
0.397000000000000242,-7.711247463997655593
0.398000000000000242,-7.632544697908184794
0.399000000000000243,-7.554668545306336469
0.400000000000000244,-7.477624751240030676
0.401000000000000245,-7.401418439832364804
0.402000000000000246,-7.326054129239470747
0.403000000000000247,-7.251535746674305116
0.404000000000000248,-7.177866643475321773
0.405000000000000249,-7.105049610199985821
0.406000000000000250,-7.033086891723843159
0.407000000000000250,-6.961980202327000100
0.408000000000000251,-6.891730740750526607
0.409000000000000252,-6.822339205206357171
0.410000000000000253,-6.753805808324943705
0.411000000000000254,-6.686130292025865174
0.412000000000000255,-6.619311942297382068
0.413000000000000256,-6.553349603871683193
0.414000000000000257,-6.488241694783328128
0.415000000000000258,-6.423986220799254632
0.416000000000000258,-6.360580789709278982
0.417000000000000259,-6.298022625466872526
0.418000000000000260,-6.236308582170601689
0.419000000000000261,-6.175435157877297243
0.420000000000000262,-6.115398508238672370
0.421000000000000263,-6.056194459953798237
0.422000000000000264,-5.997818524030251730
0.423000000000000265,-5.940265908847549348
0.424000000000000266,-5.883531533016986614
0.425000000000000266,-5.827610038032408291
0.426000000000000267,-5.772495800707090119
0.427000000000000268,-5.718182945392446648
0.428000000000000269,-5.664665355974562999
0.429000000000000270,-5.611936687645251887
0.430000000000000271,-5.559990378444569892
0.431000000000000272,-5.508819660572306987
0.432000000000000273,-5.458417571466241291
0.433000000000000274,-5.408776964645465313
0.434000000000000274,-5.359890520317298623
0.435000000000000275,-5.311750755746833086
0.436000000000000276,-5.264350035388353888
0.437000000000000277,-5.217680580778226940
0.438000000000000278,-5.171734480189206451
0.439000000000000279,-5.126503698046365187
0.440000000000000280,-5.081980084105039985
0.441000000000000281,-5.038155382391596326
0.442000000000000282,-4.995021239907980970
0.443000000000000282,-4.952569215101160438
0.444000000000000283,-4.910790786099004102
0.445000000000000284,-4.869677358714103121
0.446000000000000285,-4.829220274217354891
0.447000000000000286,-4.789410816883391320
0.448000000000000287,-4.750240221309813826
0.449000000000000288,-4.711699679512735273
0.450000000000000289,-4.673780347800924773
0.451000000000000290,-4.636473353431204814
0.452000000000000290,-4.599769801047799866
0.453000000000000291,-4.563660778908408489
0.454000000000000292,-4.528137364899984085
0.455000000000000293,-4.493190632347163316
0.456000000000000294,-4.458811655616510272
0.457000000000000295,-4.424991515519707264
0.458000000000000296,-4.391721304518958924
0.459000000000000297,-4.358992131737933207
0.460000000000000298,-4.326795127781563721
0.461000000000000298,-4.295121449368183519
0.462000000000000299,-4.263962283777418705
0.463000000000000300,-4.233308853117300430
0.464000000000000301,-4.203152418414196845
0.465000000000000302,-4.173484283529033334
0.466000000000000303,-4.144295798903435468
0.467000000000000304,-4.115578365139263006
0.468000000000000305,-4.087323436415280398
0.469000000000000306,-4.059522523744388600
0.470000000000000306,-4.032167198075145897
0.471000000000000307,-4.005249093241029179
0.472000000000000308,-3.978759908761161590
0.473000000000000309,-3.952691412495922041
0.474000000000000310,-3.927035443161075001
0.475000000000000311,-3.901783912703917334
0.476000000000000312,-3.876928808544991334
0.477000000000000313,-3.852462195688745705
0.478000000000000314,-3.828376218706690537
0.479000000000000314,-3.804663103596455986
0.480000000000000315,-3.781315159520083569
0.481000000000000316,-3.758324780424996625
0.482000000000000317,-3.735684446550877169
0.483000000000000318,-3.713386725825802870
0.484000000000000319,-3.691424275154826518
0.485000000000000320,-3.669789841604251368
0.486000000000000321,-3.648476263484719428
0.487000000000000322,-3.627476471336225305
0.488000000000000322,-3.606783488818115391
0.489000000000000323,-3.586390433507143705
0.490000000000000324,-3.566290517606469201
0.491000000000000325,-3.546477048568598356
0.492000000000000326,-3.526943429635057470
0.493000000000000327,-3.507683160295729241
0.494000000000000328,-3.488689836670508360
0.495000000000000329,-3.469957151816078778
0.496000000000000330,-3.451478895960462978
0.497000000000000330,-3.433248956667934948
0.498000000000000331,-3.415261318936887225
0.499000000000000332,-3.397510065233177556
0.500000000000000333,-3.379989375461396328
0.501000000000000334,-3.362693526876464833
0.502000000000000335,-3.345616893937933156
0.503000000000000336,-3.328753948109299365
0.504000000000000337,-3.312099257604573577
0.505000000000000338,-3.295647487084313099
0.506000000000000338,-3.279393397303275837
0.507000000000000339,-3.263331844711791607
0.508000000000000340,-3.247457781012907052
0.509000000000000341,-3.231766252677309659
0.510000000000000342,-3.216252400417975998
0.511000000000000343,-3.200911458626437334
0.512000000000000344,-3.185738754772546866
0.513000000000000345,-3.170729708769509436
0.514000000000000346,-3.155879832305991339
0.515000000000000346,-3.141184728146956040
0.516000000000000347,-3.126640089404923994
0.517000000000000348,-3.112241698783310362
0.518000000000000349,-3.097985427793306989
0.519000000000000350,-3.083867235945965568
0.520000000000000351,-3.069883169920872401
0.521000000000000352,-3.056029362712902930
0.522000000000000353,-3.042302032758424257
0.523000000000000353,-3.028697483042328997
0.524000000000000354,-3.015212100187201205
0.525000000000000355,-3.001842353525884022
0.526000000000000356,-2.988584794158687608
0.527000000000000357,-2.975436053996452390
0.528000000000000358,-2.962392844790576518
0.529000000000000359,-2.949451957151179471
0.530000000000000360,-2.936610259554446767
0.531000000000000361,-2.923864697340220697
0.532000000000000361,-2.911212291700835397
0.533000000000000362,-2.898650138662176357
0.534000000000000363,-2.886175408057918723
0.535000000000000364,-2.873785342497812589
0.536000000000000365,-2.861477256330945629
0.537000000000000366,-2.849248534604782446
0.538000000000000367,-2.837096632020794651
0.539000000000000368,-2.825019071887517441
0.540000000000000369,-2.813013445071690377
0.541000000000000369,-2.801077408948297265
0.542000000000000370,-2.789208686350147737
0.543000000000000371,-2.777405064517663114
0.544000000000000372,-2.765664394049550889
0.545000000000000373,-2.753984587854927835
0.546000000000000374,-2.742363620107513889
0.547000000000000375,-2.730799525202432410
0.548000000000000376,-2.719290396716206537
0.549000000000000377,-2.707834386370392643
0.550000000000000377,-2.696429702999385558
0.551000000000000378,-2.685074611522883181
0.552000000000000379,-2.673767431923393723
0.553000000000000380,-2.662506538229283848
0.554000000000000381,-2.651290357503702122
0.555000000000000382,-2.640117368839839607
0.556000000000000383,-2.628986102362798949
0.557000000000000384,-2.617895138238521380
0.558000000000000385,-2.606843105689998552
0.559000000000000385,-2.595828682021176004
0.560000000000000386,-2.584850591648740981
0.561000000000000387,-2.573907605142164545
0.562000000000000388,-2.562998538272184934
0.563000000000000389,-2.552122251068027925
0.564000000000000390,-2.541277646883538743
0.565000000000000391,-2.530463671472499509
0.566000000000000392,-2.519679312073281885
0.567000000000000393,-2.508923596503048525
0.568000000000000393,-2.498195592261653886
0.569000000000000394,-2.487494405645424678
0.570000000000000395,-2.476819180870958981
0.571000000000000396,-2.466169099209051918
0.572000000000000397,-2.455543378128931309
0.573000000000000398,-2.444941270452834381
0.574000000000000399,-2.434362063521107622
0.575000000000000400,-2.423805078367846200
0.576000000000000401,-2.413269668907199517
0.577000000000000401,-2.402755221130410845
0.578000000000000402,-2.392261152313617245
0.579000000000000403,-2.381786910236496357
0.580000000000000404,-2.371331972411787170
0.581000000000000405,-2.360895845325729159
0.582000000000000406,-2.350478063689420249
0.583000000000000407,-2.340078189701148670
0.584000000000000408,-2.329695812319686699
0.585000000000000409,-2.319330546548543648
0.586000000000000409,-2.308982032731204281
0.587000000000000410,-2.298649935857320692
0.588000000000000411,-2.288333944879833215
0.589000000000000412,-2.278033772043041250
0.590000000000000413,-2.267749152221537834
0.591000000000000414,-2.257479842270023518
0.592000000000000415,-2.247225620383949796
0.593000000000000416,-2.236986285470922819
0.594000000000000417,-2.226761656532849187
0.595000000000000417,-2.216551572058784281
0.596000000000000418,-2.206355889428357919
0.597000000000000419,-2.196174484325819520
0.598000000000000420,-2.186007250164537119
0.599000000000000421,-2.175854097521953801
0.600000000000000422,-2.165714953584892744
0.601000000000000423,-2.155589761605155807
0.602000000000000424,-2.145478480365316187
0.603000000000000425,-2.135381083654658063
0.604000000000000425,-2.125297559755136234
0.605000000000000426,-2.115227910937300670
0.606000000000000427,-2.105172152966113597
0.607000000000000428,-2.095130314616479694
0.608000000000000429,-2.085102437198549818
0.609000000000000430,-2.075088574092516680
0.610000000000000431,-2.065088790292992194
