# C-amorph-2_CS-283071-AC
# h[nm],U(h)[kJ/mol]
0.149999999999999994,100.023274365686162923
0.150999999999999995,97.197045904633270652
0.151999999999999996,94.525395391367979414
0.152999999999999997,91.927601423967928440
0.153999999999999998,89.369274663219286481
0.154999999999999999,86.840240407054579919
0.156000000000000000,84.341503487742016887
0.157000000000000001,81.877979393250356566
0.158000000000000002,79.454782030751900379
0.159000000000000002,77.075619959784575030
0.160000000000000003,74.742371661908293845
0.161000000000000004,72.455259566638261504
0.162000000000000005,70.213274061109899549
0.163000000000000006,68.014649321066329435
0.164000000000000007,65.857288373253609848
0.165000000000000008,63.739093417003196862
0.166000000000000009,61.658191644806869647
0.167000000000000010,59.613065237501096760
0.168000000000000010,57.602602737197571514
0.169000000000000011,55.626091555087214147
0.170000000000000012,53.683170543571520739
0.171000000000000013,51.773759020503099748
0.172000000000000014,49.897975416591989983
0.173000000000000015,48.056055442593830662
0.174000000000000016,46.248276680626354107
0.175000000000000017,44.474893955635437237
0.176000000000000018,42.736087789987280416
0.177000000000000018,41.031926672760846486
0.178000000000000019,39.362342736875781668
0.179000000000000020,37.727119667208029341
0.180000000000000021,36.125891192918011541
0.181000000000000022,34.558148281998420259
0.182000000000000023,33.023253097011192381
0.183000000000000024,31.520457838017449603
0.184000000000000025,30.048926750472787717
0.185000000000000026,28.607759779352115004
0.186000000000000026,27.196016580455488310
0.187000000000000027,25.812739836667510929
0.188000000000000028,24.456977057229355665
0.189000000000000029,23.127800252568771811
0.190000000000000030,21.824323070123853086
0.191000000000000031,20.545715144787720874
0.192000000000000032,19.291213559996080562
0.193000000000000033,18.060131432434527454
0.194000000000000034,16.851863726224490136
0.195000000000000034,15.665890473261754323
0.196000000000000035,14.501777627520022307
0.197000000000000036,13.359175815143810695
0.198000000000000037,12.237817261607446540
0.199000000000000038,11.137511184584763413
0.200000000000000039,10.058137938769721842
0.201000000000000040,8.999642188810337728
0.202000000000000041,7.962025370641437227
0.203000000000000042,6.945337681456249079
0.204000000000000042,5.949669815737260947
0.205000000000000043,4.975144640348586833
0.206000000000000044,4.021908976633287836
0.207000000000000045,3.090125632540188683
0.208000000000000046,2.179965803627522458
0.209000000000000047,1.291601938817286577
0.210000000000000048,0.425201145334910879
0.211000000000000049,-0.419080812408683223
0.212000000000000050,-1.241104883020746064
0.213000000000000050,-2.040753446269013782
0.214000000000000051,-2.817934371884096123
0.215000000000000052,-3.572584423694542100
0.216000000000000053,-4.304672023882210041
0.217000000000000054,-5.014199400529701478
0.218000000000000055,-5.701204148407400751
0.219000000000000056,-6.365760238248576286
0.220000000000000057,-7.007978513731910830
0.221000000000000058,-7.628006718165430300
0.222000000000000058,-8.226029094595464386
0.223000000000000059,-8.802265603873427935
0.224000000000000060,-9.356970805239413380
0.225000000000000061,-9.890432443342080049
0.226000000000000062,-10.402969784422175792
0.227000000000000063,-10.894931742746177150
0.228000000000000064,-11.366694836378920641
0.229000000000000065,-11.818661009115915661
0.230000000000000066,-12.251255352928007269
0.231000000000000066,-12.664923762673026886
0.232000000000000067,-13.060130552153486505
0.233000000000000068,-13.437356057898579564
0.234000000000000069,-13.797094254361542909
0.235000000000000070,-14.139850401585771777
0.236000000000000071,-14.466138743832161140
0.237000000000000072,-14.776480275200302827
0.238000000000000073,-15.071400585933242056
0.239000000000000073,-15.351427800883133301
0.240000000000000074,-15.617090619545422214
0.241000000000000075,-15.868916465143362515
0.242000000000000076,-16.107429748470437403
0.243000000000000077,-16.333150250573975626
0.244000000000000078,-16.546591626888115911
0.245000000000000079,-16.748260034095299176
0.246000000000000080,-16.938652879807982288
0.247000000000000081,-17.118257694111786549
0.248000000000000081,-17.287551121089645534
0.249000000000000082,-17.446998027648049856
0.250000000000000111,-17.597050726283917754
0.251000000000000112,-17.738148307854523011
0.252000000000000113,-17.870716079938517851
0.253000000000000114,-17.995165105990984955
0.254000000000000115,-18.111891840197415604
0.255000000000000115,-18.221277852707622458
0.256000000000000116,-18.323689639777391847
0.257000000000000117,-18.419478513254183838
0.258000000000000118,-18.508980563806069597
0.259000000000000119,-18.592516692306539028
0.260000000000000120,-18.670392703842729532
0.261000000000000121,-18.742899458907018584
0.262000000000000122,-18.810313076456935732
0.263000000000000123,-18.872895183678977560
0.264000000000000123,-18.930893207466766626
0.265000000000000124,-18.984540702815429825
0.266000000000000125,-19.034057713542118506
0.267000000000000126,-19.079651160959752332
0.268000000000000127,-19.121515256358570412
0.269000000000000128,-19.159831933381230584
0.270000000000000129,-19.194771296612408662
0.271000000000000130,-19.226492082939785178
0.272000000000000131,-19.255142132477693906
0.273000000000000131,-19.280858866077210223
0.274000000000000132,-19.303769766673887887
0.275000000000000133,-19.323992861947694166
0.276000000000000134,-19.341637205985517056
0.277000000000000135,-19.356803357846150249
0.278000000000000136,-19.369583855128883698
0.279000000000000137,-19.380063680840141416
0.280000000000000138,-19.388320722036493038
0.281000000000000139,-19.394426218897944381
0.282000000000000139,-19.398445203051231545
0.283000000000000140,-19.400436924119503601
0.284000000000000141,-19.400455263622113478
0.285000000000000142,-19.398549135486277351
0.286000000000000143,-19.394762872561155831
0.287000000000000144,-19.389136598644704179
0.288000000000000145,-19.381706585644913332
0.289000000000000146,-19.372505595599058381
0.290000000000000147,-19.361563207369417938
0.291000000000000147,-19.348906127919530462
0.292000000000000148,-19.334558488154179656
0.293000000000000149,-19.318542123377273612
0.294000000000000150,-19.300876838485955034
0.295000000000000151,-19.281580658077576373
0.296000000000000152,-19.260670061696721689
0.297000000000000153,-19.238160204495692085
0.298000000000000154,-19.214065123621434594
0.299000000000000155,-19.188397930676668324
0.300000000000000155,-19.161170990632903965
0.301000000000000156,-19.132396087598248613
0.302000000000000157,-19.102084577864005155
0.303000000000000158,-19.070247530671167624
0.304000000000000159,-19.036895857151819200
0.305000000000000160,-19.002040427909971498
0.306000000000000161,-18.965692179714430665
0.307000000000000162,-18.927862211780016821
0.308000000000000163,-18.888561872115701590
0.309000000000000163,-18.847802834417812790
0.310000000000000164,-18.805597165983897412
0.311000000000000165,-18.761957387118471274
0.312000000000000166,-18.716896522496320188
0.313000000000000167,-18.670428144941052295
0.314000000000000168,-18.622566412068380259
0.315000000000000169,-18.573326096233522264
0.316000000000000170,-18.522722608211545037
0.317000000000000171,-18.470772015027677071
0.318000000000000171,-18.417491052342462865
0.319000000000000172,-18.362897131783800120
0.320000000000000173,-18.307008343604490364
0.321000000000000174,-18.249843455030280381
0.322000000000000175,-18.191421904649576646
0.323000000000000176,-18.131763793181718825
0.324000000000000177,-18.070889870946665212
0.325000000000000178,-18.008821522344550914
0.326000000000000179,-17.945580747639656494
0.327000000000000179,-17.881190142328826198
0.328000000000000180,-17.815672874360764411
0.329000000000000181,-17.749052659458847359
0.330000000000000182,-17.681353734786178222
0.331000000000000183,-17.612600831178919947
0.332000000000000184,-17.542819144160354483
0.333000000000000185,-17.472034303936013089
0.334000000000000186,-17.400272344557414783
0.335000000000000187,-17.327559672430222548
0.336000000000000187,-17.253923034331187125
0.337000000000000188,-17.179389485086488776
0.338000000000000189,-17.103986355054026092
0.339000000000000190,-17.027741217541102259
0.340000000000000191,-16.950681856279302906
0.341000000000000192,-16.872836233068763789
0.342000000000000193,-16.794232455694576345
0.343000000000000194,-16.714898746209694735
0.344000000000000195,-16.634863409669630840
0.345000000000000195,-16.554154803397210571
0.346000000000000196,-16.472801306847010494
0.347000000000000197,-16.390831292132624242
0.348000000000000198,-16.308273095272724618
0.349000000000000199,-16.225154988205446216
0.350000000000000200,-16.141505151614616409
0.351000000000000201,-16.057351648605404648
0.352000000000000202,-15.972722399261680692
0.353000000000000203,-15.887645156112274236
0.354000000000000203,-15.802147480528423884
0.355000000000000204,-15.716256720070299835
0.356000000000000205,-15.629999986796429212
0.357000000000000206,-15.543404136545799332
0.358000000000000207,-15.456495749198719381
0.359000000000000208,-15.369301109919565107
0.360000000000000209,-15.281846191380981992
0.361000000000000210,-15.194156636966525298
0.362000000000000210,-15.106257744946034904
0.363000000000000211,-15.018174453615547037
0.364000000000000212,-14.929931327391576801
0.365000000000000213,-14.841552543847281953
0.366000000000000214,-14.753061881676506673
0.367000000000000215,-14.664482709569876207
0.368000000000000216,-14.575837975985786343
0.369000000000000217,-14.487150199797685701
0.370000000000000218,-14.398441461798080709
0.371000000000000218,-14.309733397038499447
0.372000000000000219,-14.221047187983879567
0.373000000000000220,-14.132403558459113668
0.374000000000000221,-14.043822768364787379
0.375000000000000222,-13.955324609138642700
0.376000000000000223,-13.866928399938876382
0.377000000000000224,-13.778652984525180614
0.378000000000000225,-13.690516728812923475
0.379000000000000226,-13.602537519075983852
0.380000000000000226,-13.514732760773643605
0.381000000000000227,-13.427119377976666215
0.382000000000000228,-13.339713813368186734
0.383000000000000229,-13.252532028794806962
0.384000000000000230,-13.165589506343525983
0.385000000000000231,-13.078901249920651395
0.386000000000000232,-12.992481787308616248
0.387000000000000233,-12.906345172677401223
0.388000000000000234,-12.820504989527247375
0.389000000000000234,-12.734974354040142330
0.390000000000000235,-12.649765918817378108
0.391000000000000236,-12.564891876981667096
0.392000000000000237,-12.480363966621984773
0.393000000000000238,-12.396193475560545849
0.394000000000000239,-12.312391246421096724
0.395000000000000240,-12.228967681978872406
0.396000000000000241,-12.145932750772626463
0.397000000000000242,-12.063295992959870873
0.398000000000000242,-11.981066526397132321
0.399000000000000243,-11.899253052927232233
0.400000000000000244,-11.817863864856510858
0.401000000000000245,-11.736906851605308333
0.402000000000000246,-11.656389506515598242
0.403000000000000247,-11.576318933800152422
0.404000000000000248,-11.496701855618340460
0.405000000000000249,-11.417544619264141659
0.406000000000000250,-11.338853204452394863
0.407000000000000250,-11.260633230690000772
0.408000000000000251,-11.182889964719299414
0.409000000000000252,-11.105628328021326823
0.410000000000000253,-11.028852904367189680
0.411000000000000254,-10.952567947406386395
0.412000000000000255,-10.876777388281279713
0.413000000000000256,-10.801484843257604496
0.414000000000000257,-10.726693621361118147
0.415000000000000258,-10.652406732011289847
0.416000000000000258,-10.578626892643157476
0.417000000000000259,-10.505356536308982029
0.418000000000000260,-10.432597819251927973
0.419000000000000261,-10.360352628444093881
0.420000000000000262,-10.288622589082114800
0.421000000000000263,-10.217409072033493800
0.422000000000000264,-10.146713201227493428
0.423000000000000265,-10.076535860984735749
0.424000000000000266,-10.006877703280100178
0.425000000000000266,-9.937739154933629138
0.426000000000000267,-9.869120424724853180
0.427000000000000268,-9.801021510425991679
0.428000000000000269,-9.733442205749947007
0.429000000000000270,-9.666382107209354757
0.430000000000000271,-9.599840620883110631
0.431000000000000272,-9.533816969087229864
0.432000000000000273,-9.468310196947118840
0.433000000000000274,-9.403319178868626338
0.434000000000000274,-9.338842624905421275
0.435000000000000275,-9.274879087020611479
0.436000000000000276,-9.211426965240734788
0.437000000000000277,-9.148484513700305243
0.438000000000000278,-9.086049846575622979
0.439000000000000279,-9.024120943906501324
0.440000000000000280,-8.962695657304873720
0.441000000000000281,-8.901771715549390507
0.442000000000000282,-8.841346730065438919
0.443000000000000282,-8.781418200289893505
0.444000000000000283,-8.721983518920410461
0.445000000000000284,-8.663039977048972773
0.446000000000000285,-8.604584769179639991
0.447000000000000286,-8.546614998130714014
0.448000000000000287,-8.489127679821324435
0.449000000000000288,-8.432119747942993015
0.450000000000000289,-8.375588058516523660
0.451000000000000290,-8.319529394334759687
0.452000000000000290,-8.263940469292025526
0.453000000000000291,-8.208817932600833700
0.454000000000000292,-8.154158372896898044
0.455000000000000293,-8.099958322233231200
0.456000000000000294,-8.046214259964505899
0.457000000000000295,-7.992922616522667667
0.458000000000000296,-7.940079777084987356
0.459000000000000297,-7.887682085135819143
0.460000000000000298,-7.835725845923311894
0.461000000000000298,-7.784207329812422138
0.462000000000000299,-7.733122775535610671
0.463000000000000300,-7.682468393342675839
0.464000000000000301,-7.632240368051149915
0.465000000000000302,-7.582434861998839537
0.466000000000000303,-7.533048017899974802
0.467000000000000304,-7.484075961606559524
0.468000000000000305,-7.435514804776557796
0.469000000000000306,-7.387360647450465834
0.470000000000000306,-7.339609580537993061
0.471000000000000307,-7.292257688216366773
0.472000000000000308,-7.245301050242102470
0.473000000000000309,-7.198735744177755969
0.474000000000000310,-7.152557847535445212
0.475000000000000311,-7.106763439838736929
0.476000000000000312,-7.061348604604755330
0.477000000000000313,-7.016309431247970352
0.478000000000000314,-6.971642016907544814
0.479000000000000314,-6.927342468199908510
0.480000000000000315,-6.883406902898109081
0.481000000000000316,-6.839831451539805762
0.482000000000000317,-6.796612258965429199
0.483000000000000318,-6.753745485788246405
0.484000000000000319,-6.711227309797946461
0.485000000000000320,-6.669053927299413154
0.486000000000000321,-6.627221554388289526
0.487000000000000322,-6.585726428164944579
0.488000000000000322,-6.544564807888427538
0.489000000000000323,-6.503732976072025274
0.490000000000000324,-6.463227239521953216
0.491000000000000325,-6.423043930320735839
0.492000000000000326,-6.383179406756751106
0.493000000000000327,-6.343630054201549129
0.494000000000000328,-6.304392285936303963
0.495000000000000329,-6.265462543928969730
0.496000000000000330,-6.226837299563491968
0.497000000000000330,-6.188513054322572593
0.498000000000000331,-6.150486340425297627
0.499000000000000332,-6.112753721421106512
0.500000000000000333,-6.075311792741361572
0.501000000000000334,-6.038157182209893392
0.502000000000000335,-6.001286550513801998
0.503000000000000336,-5.964696591635847867
0.504000000000000337,-5.928384033249598950
0.505000000000000338,-5.892345637078648224
0.506000000000000338,-5.856578199221080361
0.507000000000000339,-5.821078550440361710
0.508000000000000340,-5.785843556423815315
0.509000000000000341,-5.750870118009858700
0.510000000000000342,-5.716155171385064016
0.511000000000000343,-5.681695688252166754
0.512000000000000344,-5.647488675970041783
0.513000000000000345,-5.613531177666751582
0.514000000000000346,-5.579820272326654340
0.515000000000000346,-5.546353074852544474
0.516000000000000347,-5.513126736103813208
0.517000000000000348,-5.480138442911630214
0.518000000000000349,-5.447385418071948315
0.519000000000000350,-5.414864920317364216
0.520000000000000351,-5.382574244268637287
0.521000000000000352,-5.350510720366765227
0.522000000000000353,-5.318671714786407989
0.523000000000000353,-5.287054629331492173
0.524000000000000354,-5.255656901313866314
0.525000000000000355,-5.224476003415615466
0.526000000000000356,-5.193509443535940129
0.527000000000000357,-5.162754764623272763
0.528000000000000358,-5.132209544493302467
0.529000000000000359,-5.101871395633667206
0.530000000000000360,-5.071737964995945092
0.531000000000000361,-5.041806933775607291
0.532000000000000361,-5.012076017180551624
0.533000000000000362,-4.982542964188855450
0.534000000000000363,-4.953205557296337602
0.535000000000000364,-4.924061612254478248
0.536000000000000365,-4.895108977799284666
0.537000000000000366,-4.866345535371678466
0.538000000000000367,-4.837769198829812822
0.539000000000000368,-4.809377914154016942
0.540000000000000369,-4.781169659144638651
0.541000000000000369,-4.753142443113476112
0.542000000000000370,-4.725294306569104208
0.543000000000000371,-4.697623320896598287
0.544000000000000372,-4.670127588032128685
0.545000000000000373,-4.642805240132763522
0.546000000000000374,-4.615654439241934526
0.547000000000000375,-4.588673376950923810
0.548000000000000376,-4.561860274056801501
0.549000000000000377,-4.535213380217113510
0.550000000000000377,-4.508730973601664971
0.551000000000000378,-4.482411360541808776
0.552000000000000379,-4.456252875177488804
0.553000000000000380,-4.430253879102386882
0.554000000000000381,-4.404412761007431065
0.555000000000000382,-4.378727936323050685
0.556000000000000383,-4.353197846860294540
0.557000000000000384,-4.327820960451258081
0.558000000000000385,-4.302595770588930613
0.559000000000000385,-4.277520796066785813
0.560000000000000386,-4.252594580618326958
0.561000000000000387,-4.227815692556802674
0.562000000000000388,-4.203182724415336580
0.563000000000000389,-4.178694292587634251
0.564000000000000390,-4.154349036969506415
0.565000000000000391,-4.130145620601373579
0.566000000000000392,-4.106082729311919088
0.567000000000000393,-4.082159071363124170
0.568000000000000393,-4.058373377096734735
0.569000000000000394,-4.034724398582438809
0.570000000000000395,-4.011210909267830971
0.571000000000000396,-3.987831703630293934
0.572000000000000397,-3.964585596830998870
0.573000000000000398,-3.941471424371061349
0.574000000000000399,-3.918488041750067818
0.575000000000000400,-3.895634324126985515
0.576000000000000401,-3.872909165983642765
0.577000000000000401,-3.850311480790854723
0.578000000000000402,-3.827840200677266047
0.579000000000000403,-3.805494276101017537
0.580000000000000404,-3.783272675524349982
0.581000000000000405,-3.761174385091162087
0.582000000000000406,-3.739198408307639276
0.583000000000000407,-3.717343765726011551
0.584000000000000408,-3.695609494631501235
0.585000000000000409,-3.673994648732514356
0.586000000000000409,-3.652498297854131160
0.587000000000000410,-3.631119527634969479
0.588000000000000411,-3.609857439227411646
0.589000000000000412,-3.588711149001309941
0.590000000000000413,-3.567679788251120421
0.591000000000000414,-3.546762502906589898
0.592000000000000415,-3.525958453246970770
0.593000000000000416,-3.505266813618778343
0.594000000000000417,-3.484686772157160384
0.595000000000000417,-3.464217530510897980
0.596000000000000418,-3.443858303570964008
0.597000000000000419,-3.423608319202814609
0.598000000000000420,-3.403466817982246706
0.599000000000000421,-3.383433052934978313
0.600000000000000422,-3.363506289279860173
0.601000000000000423,-3.343685804175776433
0.602000000000000424,-3.323970886472198849
0.603000000000000425,-3.304360836463438922
0.604000000000000425,-3.284854965646524683
0.605000000000000426,-3.265452596482774972
0.606000000000000427,-3.246153062163028125
0.607000000000000428,-3.226955706376455346
0.608000000000000429,-3.207859883083099106
