# C-amorph-2_FURAN-AC
# h[nm],U(h)[kJ/mol]
0.200000000000000011,37.431679602663642470
0.201000000000000012,36.872110012344855079
0.202000000000000013,35.911871839474322599
0.203000000000000014,34.794064210634914502
0.204000000000000015,33.647826256111883936
0.205000000000000016,32.533049068965418371
0.206000000000000016,31.469862120331857369
0.207000000000000017,30.457526757296136566
0.208000000000000018,29.486079871929156582
0.209000000000000019,28.543116000640083030
0.210000000000000020,27.617393733791878674
0.211000000000000021,26.700439506694170433
0.212000000000000022,25.786950683544365148
0.213000000000000023,24.874533937469074374
0.214000000000000024,23.963126729946250038
0.215000000000000024,23.054318447244448009
0.216000000000000025,22.150697894532264343
0.217000000000000026,21.255293768120687048
0.218000000000000027,20.371135813027557049
0.219000000000000028,19.500940287317622079
0.220000000000000029,18.646909466709178815
0.221000000000000030,17.810627883881444689
0.222000000000000031,16.993035412105150783
0.223000000000000032,16.194457483796124819
0.224000000000000032,15.414674511577041827
0.225000000000000033,14.653015160201812606
0.226000000000000034,13.908460981915714783
0.227000000000000035,13.179752748436168730
0.228000000000000036,12.465491397852085598
0.229000000000000037,11.764228765056325088
0.230000000000000038,11.074545142227302463
0.231000000000000039,10.395112223255051020
0.232000000000000040,9.724741148596875107
0.233000000000000040,9.062416223539871751
0.234000000000000041,8.407315477527546932
0.235000000000000042,7.758819610126399979
0.236000000000000043,7.116511073170312507
0.237000000000000044,6.480165107456430817
0.238000000000000045,5.849734520073928579
0.239000000000000046,5.225329883944271003
0.240000000000000047,4.607196688379390892
0.241000000000000048,3.995690787761118745
0.242000000000000048,3.391253300003069349
0.243000000000000049,2.794385908869323920
0.244000000000000050,2.205627333025803161
0.245000000000000051,1.625531545864323579
0.246000000000000052,1.054648167580824580
0.247000000000000053,0.493505306953958445
0.248000000000000054,-0.057404994268771145
0.249000000000000055,-0.597638666518505168
0.250000000000000056,-1.126808905497751478
0.251000000000000056,-1.644592960329811504
0.252000000000000057,-2.150736576533197386
0.253000000000000058,-2.645056291911987323
0.254000000000000059,-3.127439809229344281
0.255000000000000060,-3.597844684540717708
0.256000000000000061,-4.056295576025716443
0.257000000000000062,-4.502880296686951667
0.258000000000000063,-4.937744906864958594
0.259000000000000064,-5.361088070488357005
0.260000000000000064,-5.773154883523579528
0.261000000000000065,-6.174230365240388707
0.262000000000000066,-6.564632783554566586
0.263000000000000067,-6.944706965589394265
0.264000000000000068,-7.314817724329678583
0.265000000000000069,-7.675343512322285733
0.266000000000000070,-8.026670394195150493
0.267000000000000071,-8.369186411622411725
0.268000000000000071,-8.703276397470506964
0.269000000000000072,-9.029317280367639142
0.270000000000000073,-9.347673906933181343
0.271000000000000074,-9.658695396424082702
0.272000000000000075,-9.962712031600819529
0.273000000000000076,-10.260032680152145090
0.274000000000000077,-10.550942732988655592
0.275000000000000078,-10.835702539042170400
0.276000000000000079,-11.114546310801147300
0.277000000000000079,-11.387681470572788456
0.278000000000000080,-11.655288404283997039
0.279000000000000081,-11.917520587411400967
0.280000000000000082,-12.174505046256573593
0.281000000000000083,-12.426343117154415197
0.282000000000000084,-12.673111466218587751
0.283000000000000085,-12.914863332794695339
0.284000000000000086,-13.151629960820219623
0.285000000000000087,-13.383422183696549013
0.286000000000000087,-13.610232129990043504
0.287000000000000088,-13.832035019224559136
0.288000000000000089,-14.048791019148106685
0.289000000000000090,-14.260447138095514674
0.290000000000000091,-14.466939128379189938
0.291000000000000092,-14.668193378980205921
0.292000000000000093,-14.864128778145479615
0.293000000000000094,-15.054658528793376959
0.294000000000000095,-15.239691901864631518
0.295000000000000095,-15.419135914907553087
0.296000000000000096,-15.592896925238511230
0.297000000000000097,-15.760882128959277537
0.298000000000000098,-15.923000958931293525
0.299000000000000099,-16.079166376498001512
0.300000000000000100,-16.229296053304988590
0.301000000000000101,-16.373313440993531032
0.302000000000000102,-16.511148727834800809
0.303000000000000103,-16.642739682533637335
0.304000000000000103,-16.768032386463069372
0.305000000000000104,-16.886981856500121069
0.306000000000000105,-16.999552561424081887
0.307000000000000106,-17.105718835516423582
0.308000000000000107,-17.205465193573054705
0.309000000000000108,-17.298786552012209938
0.310000000000000109,-17.385688361140932301
0.311000000000000110,-17.466186653937150197
0.312000000000000111,-17.540308016920771905
0.313000000000000111,-17.608089488831446090
0.314000000000000112,-17.669578392910686659
0.315000000000000113,-17.724832108608428172
0.316000000000000114,-17.773917788504380866
0.317000000000000115,-17.816912026159958060
0.318000000000000116,-17.853900480502041148
0.319000000000000117,-17.884977462191134379
0.320000000000000118,-17.910245487248904084
0.321000000000000119,-17.929814803017826819
0.322000000000000119,-17.943802891304045488
0.323000000000000120,-17.952333953316124138
0.324000000000000121,-17.955538380762970263
0.325000000000000122,-17.953552217214880926
0.326000000000000123,-17.946516613567261800
0.327000000000000124,-17.934577281178757602
0.328000000000000125,-17.917883945987501448
0.329000000000000126,-17.896589806642154485
0.330000000000000127,-17.870850999421470817
0.331000000000000127,-17.840826072457552698
0.332000000000000128,-17.806675471526574484
0.333000000000000129,-17.768561039426479908
0.334000000000000130,-17.726645530725857469
0.335000000000000131,-17.681092143442349141
0.336000000000000132,-17.632064068993166472
0.337000000000000133,-17.579724061554944825
0.338000000000000134,-17.524234027776383726
0.339000000000000135,-17.465754637603886579
0.340000000000000135,-17.404444956808720946
0.341000000000000136,-17.340462101644430248
0.342000000000000137,-17.273960915913665559
0.343000000000000138,-17.205093670586311561
0.344000000000000139,-17.134009785983735696
0.345000000000000140,-17.060855576428011204
0.346000000000000141,-16.985774017149275039
0.347000000000000142,-16.908904533148565008
0.348000000000000143,-16.830382809628076757
0.349000000000000143,-16.750340623523523931
0.350000000000000144,-16.668905695606138551
0.351000000000000145,-16.586201562562134626
0.352000000000000146,-16.502347468406451725
0.353000000000000147,-16.417458274543669461
0.354000000000000148,-16.331644387752483283
0.355000000000000149,-16.245011705340072439
0.356000000000000150,-16.157661576688919780
0.357000000000000151,-16.069690780400698316
0.358000000000000151,-15.981191516229163341
0.359000000000000152,-15.892251410986139248
0.360000000000000153,-15.802953537601695189
0.361000000000000154,-15.713376446520376462
0.362000000000000155,-15.623594208620110280
0.363000000000000156,-15.533676468848408803
0.364000000000000157,-15.443688509781736684
0.365000000000000158,-15.353691324327707335
0.366000000000000159,-15.263741696806178538
0.367000000000000159,-15.173892291663364063
0.368000000000000160,-15.084191749093951884
0.369000000000000161,-14.994684786867434667
0.370000000000000162,-14.905412307678428618
0.371000000000000163,-14.816411511365098264
0.372000000000000164,-14.727716011364631044
0.373000000000000165,-14.639355954801223092
0.374000000000000166,-14.551358145627935059
0.375000000000000167,-14.463746170271075897
0.376000000000000167,-14.376540525252465841
0.377000000000000168,-14.289758746292296365
0.378000000000000169,-14.203415538422200726
0.379000000000000170,-14.117522906665225690
0.380000000000000171,-14.032090286865791740
0.381000000000000172,-13.947124676279312183
0.382000000000000173,-13.862630763556529345
0.383000000000000174,-13.778611057783479055
0.384000000000000175,-13.695066016262193997
0.385000000000000175,-13.611994170741677834
0.386000000000000176,-13.529392251832017990
0.387000000000000177,-13.447255311357022123
0.388000000000000178,-13.365576842423019244
0.389000000000000179,-13.284348897002235645
0.390000000000000180,-13.203562200849821906
0.391000000000000181,-13.123206265592850528
0.392000000000000182,-13.043269497848601901
0.393000000000000183,-12.963739305247003131
0.394000000000000183,-12.884602199249318488
0.395000000000000184,-12.805843894671351535
0.396000000000000185,-12.727449405834624585
0.397000000000000186,-12.649403139283794673
0.398000000000000187,-12.571688983022019315
0.399000000000000188,-12.494290392229135733
0.400000000000000189,-12.417190471439466748
0.401000000000000190,-12.340372053167627087
0.402000000000000191,-12.263817772981234100
0.403000000000000191,-12.187510141029282096
0.404000000000000192,-12.111431610044286700
0.405000000000000193,-12.035564639844686496
0.406000000000000194,-11.959891758371906434
0.407000000000000195,-11.884395619303717240
0.408000000000000196,-11.809059056292053214
0.409000000000000197,-11.733865133879543663
0.410000000000000198,-11.658797195154503967
0.411000000000000199,-11.583838906208828945
0.412000000000000199,-11.508974297467876369
0.413000000000000200,-11.434187801965201459
0.414000000000000201,-11.359464290638470629
0.415000000000000202,-11.284789104725797770
0.416000000000000203,-11.210148085344451729
0.417000000000000204,-11.135527600335947795
0.418000000000000205,-11.060914568463338981
0.419000000000000206,-10.986296481048078988
0.420000000000000207,-10.911661421134699168
0.421000000000000207,-10.836998080272701728
0.422000000000000208,-10.762295773005124744
0.423000000000000209,-10.687544449153936199
0.424000000000000210,-10.612734703992050100
0.425000000000000211,-10.537857786391672477
0.426000000000000212,-10.462905605038184120
0.427000000000000213,-10.387870732798059947
0.428000000000000214,-10.312746409328573449
0.429000000000000214,-10.237526542015897846
0.430000000000000215,-10.162205705327052030
0.431000000000000216,-10.086779138660000754
0.432000000000000217,-10.011242742774509651
0.433000000000000218,-9.935593074884986109
0.434000000000000219,-9.859827342494835278
0.435000000000000220,-9.783943396050156949
0.436000000000000221,-9.707939720488662161
0.437000000000000222,-9.631815425757949356
0.438000000000000222,-9.555570236375244164
0.439000000000000223,-9.479204480098758268
0.440000000000000224,-9.402719075778694702
0.441000000000000225,-9.326115520453992502
0.442000000000000226,-9.249395875758693819
0.443000000000000227,-9.172562753699756044
0.444000000000000228,-9.095619301866019413
0.445000000000000229,-9.018569188125839631
0.446000000000000230,-8.941416584868852269
0.447000000000000230,-8.864166152845173841
0.448000000000000231,-8.786823024653253711
0.449000000000000232,-8.709392787925377633
0.450000000000000233,-8.631881468258018941
0.451000000000000234,-8.554295511931776730
0.452000000000000235,-8.476641768464116211
0.453000000000000236,-8.398927473035524116
0.454000000000000237,-8.321160228828407668
0.455000000000000238,-8.243347989315452651
0.456000000000000238,-8.165499040532832709
0.457000000000000239,-8.087621983371414913
0.458000000000000240,-8.009725715917557665
0.459000000000000241,-7.931819415873071932
0.460000000000000242,-7.853912523082493991
0.461000000000000243,-7.776014722193787421
0.462000000000000244,-7.698135925477350483
0.463000000000000245,-7.620286255826128397
0.464000000000000246,-7.542476029958615769
0.465000000000000246,-7.464715741844618613
0.466000000000000247,-7.387016046372416156
0.467000000000000248,-7.309387743274436744
0.468000000000000249,-7.231841761327371110
0.469000000000000250,-7.154389142841137250
0.470000000000000251,-7.077041028450035576
0.471000000000000252,-6.999808642218011023
0.472000000000000253,-6.922703277069080841
0.473000000000000254,-6.845736280552503494
0.474000000000000254,-6.768919040951497657
0.475000000000000255,-6.692262973743078547
0.476000000000000256,-6.615779508415703170
0.477000000000000257,-6.539480075650514479
0.478000000000000258,-6.463376094870857180
0.479000000000000259,-6.387478962164186314
0.480000000000000260,-6.311800038579442607
0.481000000000000261,-6.236350638802225177
0.482000000000000262,-6.161142020209496195
0.483000000000000262,-6.086185372304682595
0.484000000000000263,-6.011491806533449278
0.485000000000000264,-5.937072346479824070
0.486000000000000265,-5.862937918441692986
0.487000000000000266,-5.789099342384188773
0.488000000000000267,-5.715567323268913924
0.489000000000000268,-5.642352442756548569
0.490000000000000269,-5.569465151279755055
0.491000000000000270,-5.496915760483117808
0.492000000000000270,-5.424714436026132347
0.493000000000000271,-5.352871190745236873
0.494000000000000272,-5.281395878170266123
0.495000000000000273,-5.210298186390410535
0.496000000000000274,-5.139587632264757566
0.497000000000000275,-5.069273555971738787
0.498000000000000276,-4.999365115892014266
0.499000000000000277,-4.929871283818855865
0.500000000000000222,-4.860800840489860164
0.501000000000000334,-4.792162371433859036
0.502000000000000224,-4.723964263126523733
0.503000000000000336,-4.656214699447990490
0.504000000000000226,-4.588921658436071027
0.505000000000000338,-4.522092909327824373
0.506000000000000227,-4.455736009883091597
0.507000000000000339,-4.389858303982452803
0.508000000000000229,-4.324466919493081818
0.509000000000000341,-4.259568766394933093
0.510000000000000231,-4.195170535160589687
0.511000000000000343,-4.131278695381127797
0.512000000000000233,-4.067899494631305402
0.513000000000000345,-4.005038957566453561
0.514000000000000234,-3.942702885244405486
0.515000000000000346,-3.880896854664753981
0.516000000000000236,-3.819626218518929139
0.517000000000000348,-3.758896105143488597
0.518000000000000238,-3.698711418670055817
0.519000000000000350,-3.639076839364526528
0.520000000000000240,-3.579996824149012546
0.521000000000000352,-3.521475607299378030
0.522000000000000242,-3.463517201311863580
0.523000000000000353,-3.406125397931851317
0.524000000000000243,-3.349303769338464853
0.525000000000000355,-3.293055669478199832
0.526000000000000245,-3.237384235541485911
0.527000000000000357,-3.182292389575516189
0.528000000000000247,-3.127782840227529171
0.529000000000000359,-3.073858084612043573
0.530000000000000249,-3.020520410296404279
0.531000000000000361,-2.967771897398450598
0.532000000000000250,-2.915614420790847205
0.533000000000000362,-2.864049652406079005
0.534000000000000252,-2.813079063636938049
0.535000000000000364,-2.762703927826745343
0.536000000000000254,-2.712925322844356835
0.537000000000000366,-2.663744133738382480
0.538000000000000256,-2.615161055466034945
0.539000000000000368,-2.567176595691182950
0.540000000000000258,-2.519791077647312694
0.541000000000000369,-2.473004643060202401
0.542000000000000259,-2.426817255126256789
0.543000000000000371,-2.381228701541632908
0.544000000000000261,-2.336238597578170761
0.545000000000000373,-2.291846389201716239
0.546000000000000263,-2.248051356228983888
0.547000000000000375,-2.204852615518717140
0.548000000000000265,-2.162249124193738492
0.549000000000000377,-2.120239682889713428
0.550000000000000266,-2.078822939027471506
0.551000000000000378,-2.037997390105082296
0.552000000000000268,-1.997761387006580236
0.553000000000000380,-1.958113137323888253
0.554000000000000270,-1.919050708689034934
0.555000000000000382,-1.880572032113390080
0.556000000000000272,-1.842674905331314061
0.557000000000000384,-1.805356996145096149
0.558000000000000274,-1.768615845768817252
0.559000000000000385,-1.732448872168240950
0.560000000000000275,-1.696853373394531461
0.561000000000000387,-1.661826530909168653
0.562000000000000277,-1.627365412897969765
0.563000000000000389,-1.593466977571878385
0.564000000000000279,-1.560128076452566459
0.565000000000000391,-1.527345457640711945
0.566000000000000281,-1.495115769065167299
0.567000000000000393,-1.463435561711085686
0.568000000000000282,-1.432301292825416850
0.569000000000000394,-1.401709329097921231
0.570000000000000284,-1.371655949816382059
0.571000000000000396,-1.342137349994291018
0.572000000000000286,-1.313149643469844641
0.573000000000000398,-1.284688865974664918
0.574000000000000288,-1.256750978171243593
0.575000000000000400,-1.229331868657751237
0.576000000000000290,-1.202427356939211434
0.577000000000000401,-1.176033196363919675
0.578000000000000291,-1.150145077024239848
0.579000000000000403,-1.124758628620741829
0.580000000000000293,-1.099869423288992731
0.581000000000000405,-1.075472978388055001
0.582000000000000295,-1.051564759250154246
0.583000000000000407,-1.028140181890663474
0.584000000000000297,-1.005194615677980519
0.585000000000000409,-0.982723385962591456
0.586000000000000298,-0.960721776664959171
0.587000000000000410,-0.939185032821657773
0.588000000000000300,-0.918108363089488955
0.589000000000000412,-0.897486942207086691
0.590000000000000302,-0.877315913413844628
0.591000000000000414,-0.857590390825803239
0.592000000000000304,-0.838305461768336202
0.593000000000000416,-0.819456189065406959
0.594000000000000306,-0.801037613285341621
0.595000000000000417,-0.783044754942916366
0.596000000000000307,-0.765472616657775662
0.597000000000000419,-0.748316185269104928
0.598000000000000309,-0.731570433906618911
0.599000000000000421,-0.715230324017809727
0.600000000000000311,-0.699290807351647503
0.601000000000000423,-0.683746827898698006
0.602000000000000313,-0.668593323787940230
0.603000000000000425,-0.653825229140228892
0.604000000000000314,-0.639437475878844919
0.605000000000000426,-0.625424995497063319
0.606000000000000316,-0.611782720783211054
0.607000000000000428,-0.598505587503260439
0.608000000000000318,-0.585588536041401153
0.609000000000000430,-0.573026512998744963
0.610000000000000320,-0.560814472750579052
0.611000000000000432,-0.548947378962413302
0.612000000000000322,-0.537420206065241768
0.613000000000000433,-0.526227940690308760
0.614000000000000323,-0.515365583063826516
0.615000000000000435,-0.504828148361975204
0.616000000000000325,-0.494610668026641442
0.617000000000000437,-0.484708191042264591
0.618000000000000327,-0.475115785174272776
0.619000000000000439,-0.465828538169489270
0.620000000000000329,-0.456841558919022450
0.621000000000000441,-0.448149978584047759
0.622000000000000330,-0.439748951684986455
0.623000000000000442,-0.431633657154522954
0.624000000000000332,-0.423799299354984282
0.625000000000000444,-0.416241109060543013
0.626000000000000334,-0.408954344404745485
0.627000000000000446,-0.401934291793882292
0.628000000000000336,-0.395176266786687658
0.629000000000000448,-0.388675614940884262
0.630000000000000338,-0.382427712627114169
0.631000000000000449,-0.376427967810719466
0.632000000000000339,-0.370671820801955654
0.633000000000000451,-0.365154744975106360
0.634000000000000341,-0.359872247457065364
0.635000000000000453,-0.354819869785891751
0.636000000000000343,-0.349993188539845623
0.637000000000000455,-0.345387815937491904
0.638000000000000345,-0.340999400409330911
0.639000000000000457,-0.336823627141518422
0.640000000000000346,-0.332856218592203046
0.641000000000000458,-0.329092934980996676
0.642000000000000348,-0.325529574752091544
0.643000000000000460,-0.322161975011568014
0.644000000000000350,-0.318986011939406455
0.645000000000000462,-0.315997601176704002
0.646000000000000352,-0.313192698188634600
0.647000000000000464,-0.310567298603646236
0.648000000000000353,-0.308117438529420251
0.649000000000000465,-0.305839194846082463
0.650000000000000355,-0.303728685477187510
0.651000000000000467,-0.301782069638951767
0.652000000000000357,-0.299995548068252127
0.653000000000000469,-0.298365363229865010
0.654000000000000359,-0.296887799503450733
0.655000000000000471,-0.295559183350727062
0.656000000000000361,-0.294375883463364296
0.657000000000000473,-0.293334310892025885
0.658000000000000362,-0.292430919157051161
0.659000000000000474,-0.291662204341219589
