# C-amorph-2_THEOBROMINE-AC
# h[nm],U(h)[kJ/mol]
0.149999999999999994,127.530091452142727348
0.150999999999999995,123.251282886746054146
0.151999999999999996,119.813448670880461577
0.152999999999999997,116.588837912568877186
0.153999999999999998,113.353307460856086664
0.154999999999999999,110.068652642441094258
0.156000000000000000,106.766718959020678881
0.157000000000000001,103.492854874733524184
0.158000000000000002,100.282415537447477050
0.159000000000000002,97.154461970334352827
0.160000000000000003,94.113429543201888805
0.161000000000000004,91.153663081037237248
0.162000000000000005,88.264211625606122880
0.163000000000000006,85.432731241012831447
0.164000000000000007,82.648148512065588989
0.165000000000000008,79.902144981410970104
0.166000000000000009,77.189697483303760350
0.167000000000000010,74.508954498082985651
0.168000000000000010,71.860707813416212275
0.169000000000000011,69.247669653166965986
0.170000000000000012,66.673709289264394329
0.171000000000000013,64.143151022811338180
0.172000000000000014,61.660192185466243586
0.173000000000000015,59.228466809848782759
0.174000000000000016,56.850757299025133307
0.175000000000000017,54.528841362025787021
0.176000000000000018,52.263452960951340742
0.177000000000000018,50.054332362641858367
0.178000000000000019,47.900340133620019856
0.179000000000000020,45.799611854944537015
0.180000000000000021,43.749733527394973009
0.181000000000000022,41.747921396174248798
0.182000000000000023,39.791193765357888878
0.183000000000000024,37.876525980460485243
0.184000000000000025,36.000982946565066811
0.185000000000000026,34.161826228497162106
0.186000000000000026,32.356594924623536258
0.187000000000000027,30.583161137740592750
0.188000000000000028,28.839762033289993326
0.189000000000000029,27.125011239485548487
0.190000000000000030,25.437892774001753082
0.191000000000000031,23.777740845072592890
0.192000000000000032,22.144208833906787959
0.193000000000000033,20.537230576010642835
0.194000000000000034,18.956976769090836399
0.195000000000000034,17.403808984218720468
0.196000000000000035,15.878233376540048738
0.197000000000000036,14.380855806468536784
0.198000000000000037,12.912339710133915460
0.199000000000000038,11.473367711591786033
0.200000000000000039,10.064607657193844759
0.201000000000000040,8.686683479206498859
0.202000000000000041,7.340151063084649152
0.203000000000000042,6.025479100456678339
0.204000000000000042,4.743034756013843278
0.205000000000000043,3.493073858234576612
0.206000000000000044,2.275735237654461507
0.207000000000000045,1.091038778327316550
0.208000000000000046,-0.061113285792812985
0.209000000000000047,-1.180932311508030796
0.210000000000000048,-2.268736903218056433
0.211000000000000049,-3.324944749214486794
0.212000000000000050,-4.350063074852634770
0.213000000000000050,-5.344678116946495194
0.214000000000000051,-6.309443985788832698
0.215000000000000052,-7.245071240388862854
0.216000000000000053,-8.152315460509958811
0.217000000000000054,-9.031966057226625821
0.218000000000000055,-9.884835523067014407
0.219000000000000056,-10.711749284172430663
0.220000000000000057,-11.513536280886388141
0.221000000000000058,-12.291020370172319076
0.222000000000000058,-13.045012613510664323
0.223000000000000059,-13.776304487539135835
0.224000000000000060,-14.485662031693204099
0.225000000000000061,-15.173820927394100266
0.226000000000000062,-15.841482486778986072
0.227000000000000063,-16.489310515386346623
0.228000000000000064,-17.117929002374680181
0.229000000000000065,-17.727920583528451459
0.230000000000000066,-18.319825716233530954
0.231000000000000066,-18.894142501537679379
0.232000000000000067,-19.451327086093812113
0.233000000000000068,-19.991794575977092308
0.234000000000000069,-20.515920394840520657
0.235000000000000070,-21.024042020413606480
0.236000000000000071,-21.516461035757544096
0.237000000000000072,-21.993445434789560267
0.238000000000000073,-22.455232125215523808
0.239000000000000073,-22.902029576019693025
0.240000000000000074,-23.334020560930873955
0.241000000000000075,-23.751364953700392135
0.242000000000000076,-24.154202535499688764
0.243000000000000077,-24.542655779193911059
0.244000000000000078,-24.916832579605667775
0.245000000000000079,-25.276828903098692791
0.246000000000000080,-25.622731333840512491
0.247000000000000081,-25.954619497916166182
0.248000000000000081,-26.272568350035289342
0.249000000000000082,-26.576650310887366402
0.250000000000000111,-26.866937246246425985
0.251000000000000112,-27.143502281699397827
0.252000000000000113,-27.406421449377244670
0.253000000000000114,-27.655775165302390661
0.254000000000000115,-27.891649537946499038
0.255000000000000115,-28.114137510319988422
0.256000000000000116,-28.323339839408667729
0.257000000000000117,-28.519365918042336006
0.258000000000000118,-28.702334445341030289
0.259000000000000119,-28.872373952752532489
0.260000000000000120,-29.029623193385070579
0.261000000000000121,-29.174231402865512308
0.262000000000000122,-29.306358440334150828
0.263000000000000123,-29.426174818434496672
0.264000000000000123,-29.533861631286875138
0.265000000000000124,-29.629610389459617892
0.266000000000000125,-29.713622770887418767
0.267000000000000126,-29.786110296541160380
0.268000000000000127,-29.847293939443609645
0.269000000000000128,-29.897403675356326147
0.270000000000000129,-29.936677983149223792
0.271000000000000130,-29.965363302511519805
0.272000000000000131,-29.983713456280838727
0.273000000000000131,-29.991989044262965081
0.274000000000000132,-29.990456814994548296
0.275000000000000133,-29.979389021471810395
0.276000000000000134,-29.959062766433884661
0.277000000000000135,-29.929759342354969931
0.278000000000000136,-29.891763570869677835
0.279000000000000137,-29.845363145932743976
0.280000000000000138,-29.790847984601686704
0.281000000000000139,-29.728509588930979390
0.282000000000000139,-29.658640422080672749
0.283000000000000140,-29.581533301373365674
0.284000000000000141,-29.497480810681178554
0.285000000000000142,-29.406774734191166942
0.286000000000000143,-29.309705513282484191
0.287000000000000144,-29.206561727953392449
0.288000000000000145,-29.097629603960552203
0.289000000000000146,-28.983192546575764936
0.290000000000000147,-28.863530701628938857
0.291000000000000147,-28.738920544286894909
0.292000000000000148,-28.609634495817989119
0.293000000000000149,-28.475940568410663900
0.294000000000000150,-28.338102037948555534
0.295000000000000151,-28.196377144497414946
0.296000000000000152,-28.051018820125637632
0.297000000000000153,-27.902274443563992889
0.298000000000000154,-27.750385621105728262
0.299000000000000155,-27.595587993059432108
0.300000000000000155,-27.438111064989605836
0.301000000000000156,-27.278178062914271607
0.302000000000000157,-27.116005811574844131
0.303000000000000158,-26.951804634849217734
0.304000000000000159,-26.785778277344132192
0.305000000000000160,-26.618123846176381164
0.306000000000000161,-26.449031771934727431
0.307000000000000162,-26.278685787802562146
0.308000000000000163,-26.107262925817149579
0.309000000000000163,-25.934933529242432115
0.310000000000000164,-25.761861280038953481
0.311000000000000165,-25.588203240425521301
0.312000000000000166,-25.414109907542883349
0.313000000000000167,-25.239725280248528350
0.314000000000000168,-25.065186937093962172
0.315000000000000169,-24.890626124560650823
0.316000000000000170,-24.716167854658404934
0.317000000000000171,-24.541931011018739639
0.318000000000000171,-24.368028462646584842
0.319000000000000172,-24.194567184526135861
0.320000000000000173,-24.021648384309067126
0.321000000000000174,-23.849367634347348854
0.322000000000000175,-23.677815008366906113
0.323000000000000176,-23.507075222112920443
0.324000000000000177,-23.337227777331598588
0.325000000000000178,-23.168347108487839847
0.326000000000000179,-23.000502731651994992
0.327000000000000179,-22.833759395022504179
0.328000000000000180,-22.668177230583758330
0.329000000000000181,-22.503811906431742784
0.330000000000000182,-22.340714779330063777
0.331000000000000183,-22.178933047091113906
0.332000000000000184,-22.018509900405710766
0.333000000000000185,-21.859484673774055352
0.334000000000000186,-21.701892995218226901
0.335000000000000187,-21.545766934483300048
0.336000000000000187,-21.391135149460033915
0.337000000000000188,-21.238023030586070661
0.338000000000000189,-21.086452843007020164
0.339000000000000190,-20.936443866300315619
0.340000000000000191,-20.788012531586353759
0.341000000000000192,-20.641172555872213223
0.342000000000000193,-20.495935073491217793
0.343000000000000194,-20.352308764521108486
0.344000000000000195,-20.210299980079355464
0.345000000000000195,-20.069912864411243447
0.346000000000000196,-19.931149473700749297
0.347000000000000197,-19.794009891548654423
0.348000000000000198,-19.658492341075465504
0.349000000000000199,-19.524593293618831780
0.350000000000000200,-19.392307574006842685
0.351000000000000201,-19.261628462398817874
0.352000000000000202,-19.132547792695206113
0.353000000000000203,-19.005056047527148166
0.354000000000000203,-18.879142449844316332
0.355000000000000204,-18.754795051127516103
0.356000000000000205,-18.632000816259026266
0.357000000000000206,-18.510745705090368318
0.358000000000000207,-18.391014750752098905
0.359000000000000208,-18.272792134756134175
0.360000000000000209,-18.156061258944884429
0.361000000000000210,-18.040804814345932527
0.362000000000000210,-17.927004846994169185
0.363000000000000211,-17.814642820786673383
0.364000000000000212,-17.703699677437999327
0.365000000000000213,-17.594155893605844199
0.366000000000000214,-17.485991535259003626
0.367000000000000215,-17.379186309360783014
0.368000000000000216,-17.273719612942738166
0.369000000000000217,-17.169570579643675501
0.370000000000000218,-17.066718123790366235
0.371000000000000218,-16.965140982096077238
0.372000000000000219,-16.864817753053472416
0.373000000000000220,-16.765726934098246659
0.374000000000000221,-16.667846956619644772
0.375000000000000222,-16.571156218893214884
0.376000000000000223,-16.475633117011057038
0.377000000000000224,-16.381256073883399438
0.378000000000000225,-16.288003566384919196
0.379000000000000226,-16.195854150717771347
0.380000000000000226,-16.104786486062586448
0.381000000000000227,-16.014779356586743120
0.382000000000000228,-15.925811691878791976
0.383000000000000229,-15.837862585875651433
0.384000000000000230,-15.750911314348162051
0.385000000000000231,-15.664937351009161404
0.386000000000000232,-15.579920382306170268
0.387000000000000233,-15.495840320959763048
0.388000000000000234,-15.412677318306535312
0.389000000000000234,-15.330411775504439120
0.390000000000000235,-15.249024353655968866
0.391000000000000236,-15.168495982903673180
0.392000000000000237,-15.088807870550121848
0.393000000000000238,-15.009941508253390907
0.394000000000000239,-14.931878678346828693
0.395000000000000240,-14.854601459330742941
0.396000000000000241,-14.778092230581677313
0.397000000000000242,-14.702333676323274148
0.398000000000000242,-14.627308788901412839
0.399000000000000243,-14.553000871404270455
0.400000000000000244,-14.479393539666721935
0.401000000000000245,-14.406470723696918057
0.402000000000000246,-14.334216668561094110
0.403000000000000247,-14.262615934761470271
0.404000000000000248,-14.191653398140497089
0.405000000000000249,-14.121314249343409841
0.406000000000000250,-14.051583992869419504
0.407000000000000250,-13.982448445740789822
0.408000000000000251,-13.913893735817570274
0.409000000000000252,-13.845906299784568105
0.410000000000000253,-13.778472880835755277
0.411000000000000254,-13.711580526080311415
0.412000000000000255,-13.645216583693089873
0.413000000000000256,-13.579368699831480427
0.414000000000000257,-13.514024815339103824
0.415000000000000258,-13.449173162256201408
0.416000000000000258,-13.384802260155193920
0.417000000000000259,-13.320900912319055820
0.418000000000000260,-13.257458201779209972
0.419000000000000261,-13.194463487228626164
0.420000000000000262,-13.131906398825057281
0.421000000000000263,-13.069776833898478330
0.422000000000000264,-13.008064952575761453
0.423000000000000265,-12.946761173335195494
0.424000000000000266,-12.885856168502488828
0.425000000000000266,-12.825340859699153384
0.426000000000000267,-12.765206413253576301
0.427000000000000268,-12.705444235584437251
0.428000000000000269,-12.646045968565370998
0.429000000000000270,-12.587003484879328852
0.430000000000000271,-12.528308883370439020
0.431000000000000272,-12.469954484400556538
0.432000000000000273,-12.411932825217361298
0.433000000000000274,-12.354236655340146811
0.434000000000000274,-12.296858931969092410
0.435000000000000275,-12.239792815423401251
0.436000000000000276,-12.183031664613107381
0.437000000000000277,-12.126569032549085136
0.438000000000000278,-12.070398661895362480
0.439000000000000279,-12.014514480567502375
0.440000000000000280,-11.958910597380363328
0.441000000000000281,-11.903581297748401013
0.442000000000000282,-11.848521039441227032
0.443000000000000282,-11.793724448396892157
0.444000000000000283,-11.739186314595100313
0.445000000000000284,-11.684901587992289507
0.446000000000000285,-11.630865374520222844
0.447000000000000286,-11.577072932149715001
0.448000000000000287,-11.523519667020476476
0.449000000000000288,-11.470201129638436299
0.450000000000000289,-11.417113011141116985
0.451000000000000290,-11.364251139631955212
0.452000000000000290,-11.311611476583998126
0.453000000000000291,-11.259190113313328752
0.454000000000000292,-11.206983267522517167
0.455000000000000293,-11.154987279914077902
0.456000000000000294,-11.103198610874047247
0.457000000000000295,-11.051613837225396253
0.458000000000000296,-11.000229649051100012
0.459000000000000297,-10.949042846586532818
0.460000000000000298,-10.898050337180688274
0.461000000000000298,-10.847249132325730514
0.462000000000000299,-10.796636344754361403
0.463000000000000300,-10.746209185604174152
0.464000000000000301,-10.695964961648410707
0.465000000000000302,-10.645901072592334202
0.466000000000000303,-10.596015008434289228
0.467000000000000304,-10.546304346890636339
0.468000000000000305,-10.496766750883672614
0.469000000000000306,-10.447399966091506229
0.470000000000000306,-10.398201818559021703
0.471000000000000307,-10.349170212368720811
0.472000000000000308,-10.300303127370684209
0.473000000000000309,-10.251598616970312605
0.474000000000000310,-10.203054805973010843
0.475000000000000311,-10.154669888484530560
0.476000000000000312,-10.106442125866099246
0.477000000000000313,-10.058369844743005217
0.478000000000000314,-10.010451435065663262
0.479000000000000314,-9.962685348222088066
0.480000000000000315,-9.915070095200480438
0.481000000000000316,-9.867604244801086111
0.482000000000000317,-9.820286421895950468
0.483000000000000318,-9.773115305735663227
0.484000000000000319,-9.726089628301886947
0.485000000000000320,-9.679208172704687030
0.486000000000000321,-9.632469771623474841
0.487000000000000322,-9.585873305790595822
0.488000000000000322,-9.539417702516404418
0.489000000000000323,-9.493101934254921659
0.490000000000000324,-9.446925017208947395
0.491000000000000325,-9.400886009973648427
0.492000000000000326,-9.354984012217590461
0.493000000000000327,-9.309218163400345247
0.494000000000000328,-9.263587641525514726
0.495000000000000329,-9.218091661928491831
0.496000000000000330,-9.172729476097703838
0.497000000000000330,-9.127500370528773388
0.498000000000000331,-9.082403665610359056
0.499000000000000332,-9.037438714541117690
0.500000000000000333,-8.992604902276710277
0.501000000000000334,-8.947901644506082164
0.502000000000000335,-8.903328386656202298
0.503000000000000336,-8.858884602924495866
0.504000000000000337,-8.814569795338119462
0.505000000000000338,-8.770383492839329165
0.506000000000000338,-8.726325250396243405
0.507000000000000339,-8.682394648138226145
0.508000000000000340,-8.638591290515169163
0.509000000000000341,-8.594914805480069475
0.510000000000000342,-8.551364843694097218
0.511000000000000343,-8.507941077753628178
0.512000000000000344,-8.464643201438494913
0.513000000000000345,-8.421470928980905768
0.514000000000000346,-8.378423994354434967
0.515000000000000346,-8.335502150582424719
0.516000000000000347,-8.292705169065261117
0.517000000000000348,-8.250032838926102841
0.518000000000000349,-8.207484966374231306
0.519000000000000350,-8.165061374085818002
0.520000000000000351,-8.122761900601368268
0.521000000000000352,-8.080586399739534187
0.522000000000000353,-8.038534740026630487
0.523000000000000353,-7.996606804141525693
0.524000000000000354,-7.954802488375490199
0.525000000000000355,-7.913121702106389321
0.526000000000000356,-7.871564367286980612
0.527000000000000357,-7.830130417946845611
0.528000000000000358,-7.788819799707519920
0.529000000000000359,-7.747632469310502756
0.530000000000000360,-7.706568394157734758
0.531000000000000361,-7.665627551864216294
0.532000000000000361,-7.624809929822393251
0.533000000000000362,-7.584115524777979900
0.534000000000000363,-7.543544342416938164
0.535000000000000364,-7.503096396963206516
0.536000000000000365,-7.462771710786981316
0.537000000000000366,-7.422570314023195337
0.538000000000000367,-7.382492244199882592
0.539000000000000368,-7.342537545876277605
0.540000000000000369,-7.302706270290210355
0.541000000000000369,-7.262998475014711630
0.542000000000000370,-7.223414223623448649
0.543000000000000371,-7.183953585364827532
0.544000000000000372,-7.144616634844503267
0.545000000000000373,-7.105403451716102659
0.546000000000000374,-7.066314120379884045
0.547000000000000375,-7.027348729689165907
0.548000000000000376,-6.988507372664360062
0.549000000000000377,-6.949790146214350095
0.550000000000000377,-6.911197150865032945
0.551000000000000378,-6.872728490494871778
0.552000000000000379,-6.834384272077291378
0.553000000000000380,-6.796164605429704686
0.554000000000000381,-6.758069602969014156
0.555000000000000382,-6.720099379473515100
0.556000000000000383,-6.682254051850851972
0.557000000000000384,-6.644533738912128840
0.558000000000000385,-6.606938561151828537
0.559000000000000385,-6.569468640533491666
0.560000000000000386,-6.532124100281018642
0.561000000000000387,-6.494905064675457140
0.562000000000000388,-6.457811658857105286
0.563000000000000389,-6.420844008632907496
0.564000000000000390,-6.384002240288919161
0.565000000000000391,-6.347286480407782427
0.566000000000000392,-6.310696855691110940
0.567000000000000393,-6.274233492786652988
0.568000000000000393,-6.237896518120113143
0.569000000000000394,-6.201686057731548019
0.570000000000000395,-6.165602237116333484
0.571000000000000396,-6.129645181070361382
0.572000000000000397,-6.093815013539688685
0.573000000000000398,-6.058111857474281159
0.574000000000000399,-6.022535834685951883
0.575000000000000400,-5.987087065710278821
0.576000000000000401,-5.951765669672501424
0.577000000000000401,-5.916571764157309232
0.578000000000000402,-5.881505465082403461
0.579000000000000403,-5.846566886575764066
0.580000000000000404,-5.811756140856631170
0.581000000000000405,-5.777073338119990353
0.582000000000000406,-5.742518586424627536
0.583000000000000407,-5.708091991584565150
0.584000000000000408,-5.673793657063951557
0.585000000000000409,-5.639623683875184312
0.586000000000000409,-5.605582170480326809
0.587000000000000410,-5.571669212695720574
0.588000000000000411,-5.537884903599682218
0.589000000000000412,-5.504229333443334760
0.590000000000000413,-5.470702589564378826
0.591000000000000414,-5.437304756303885434
0.592000000000000415,-5.404035914925970907
0.593000000000000416,-5.370896143540301537
0.594000000000000417,-5.337885517027407545
0.595000000000000417,-5.305004106966801913
0.596000000000000418,-5.272251981567668722
0.597000000000000419,-5.239629205602351014
0.598000000000000420,-5.207135840342314914
0.599000000000000421,-5.174771943496742743
0.600000000000000422,-5.142537569153596166
0.601000000000000423,-5.110432767723161795
0.602000000000000424,-5.078457585883997538
0.603000000000000425,-5.046612066531269036
0.604000000000000425,-5.014896248727390926
0.605000000000000426,-4.983310167654975587
0.606000000000000427,-4.951853854572066282
