# C-amorph-2_BGALNA-JS
# h[nm],U(h)[kJ/mol]
0.149999999999999994,137.209925482881033076
0.150999999999999995,137.077230754316445882
0.151999999999999996,133.740165230361981230
0.152999999999999997,129.740854273750841230
0.153999999999999998,126.000596346567164119
0.154999999999999999,122.688457615052087135
0.156000000000000000,119.685505545196932076
0.157000000000000001,116.812884576031933648
0.158000000000000002,113.927966810002800457
0.159000000000000002,110.951497905694651536
0.160000000000000003,107.862417933211489185
0.161000000000000004,104.680712597175244127
0.162000000000000005,101.448763426631700213
0.163000000000000006,98.215890471296944497
0.164000000000000007,95.027579030171509089
0.165000000000000008,91.919247882777753489
0.166000000000000009,88.913704034696294798
0.167000000000000010,86.021230538611050065
0.168000000000000010,83.241318957108632048
0.169000000000000011,80.565237719300313302
0.170000000000000012,77.978837977894613687
0.171000000000000013,75.465195825406198082
0.172000000000000014,73.006854320260544000
0.173000000000000015,70.587555061936924972
0.174000000000000016,68.193438831605135420
0.175000000000000017,65.813753352496320304
0.176000000000000018,63.441139951860051838
0.177000000000000018,61.071586132089393573
0.178000000000000019,58.704133337735321163
0.179000000000000020,56.340423095812127485
0.180000000000000021,53.984153746456698286
0.181000000000000022,51.640506777861119758
0.182000000000000023,49.315588154533472220
0.183000000000000024,47.015917169943833187
0.184000000000000025,44.747983966170174597
0.185000000000000026,42.517887289379750371
0.186000000000000026,40.331056384903106959
0.187000000000000027,38.192055106933523234
0.188000000000000028,36.104462151647901180
0.189000000000000029,34.070818591320787050
0.190000000000000030,32.092632343657925276
0.191000000000000031,30.170428611261719709
0.192000000000000032,28.303835444779345210
0.193000000000000033,26.491694219748467276
0.194000000000000034,24.732185800982399826
0.195000000000000034,23.022964359285612801
0.196000000000000035,21.361292091923907321
0.197000000000000036,19.744169395289873137
0.198000000000000037,18.168456283143619601
0.199000000000000038,16.630981993562674148
0.200000000000000039,15.128640755086626868
0.201000000000000040,13.658472572951637858
0.202000000000000041,12.217728645045832891
0.203000000000000042,10.803921626840278236
0.204000000000000042,9.414861442808392766
0.205000000000000043,8.048677699937428542
0.206000000000000044,6.703830010097125758
0.207000000000000045,5.379107686470336880
0.208000000000000046,4.073620359301308724
0.209000000000000047,2.786781071744901972
0.210000000000000048,1.518283380584369402
0.211000000000000049,0.268073910849454589
0.212000000000000050,-0.963678291577556911
0.213000000000000050,-2.176614390276574884
0.214000000000000051,-3.370219289702300891
0.215000000000000052,-4.543855128920535336
0.216000000000000053,-5.696793942457141213
0.217000000000000054,-6.828248832960897907
0.218000000000000055,-7.937403133464907334
0.219000000000000056,-9.023437160963933223
0.220000000000000057,-10.085552276236493086
0.221000000000000058,-11.122992066356363949
0.222000000000000058,-12.135060555733064191
0.223000000000000059,-13.121137428742335018
0.224000000000000060,-14.080690312363529415
0.225000000000000061,-15.013284221264649787
0.226000000000000062,-15.918588311189045825
0.227000000000000063,-16.796380120147198056
0.228000000000000064,-17.646547501718409023
0.229000000000000065,-18.469088471683221542
0.230000000000000066,-19.264109199191274513
0.231000000000000066,-20.031820377671980538
0.232000000000000067,-20.772532209613107312
0.233000000000000068,-21.486648234020840675
0.234000000000000069,-22.174658216622241014
0.235000000000000070,-22.837130311398478710
0.236000000000000071,-23.474702688495984404
0.237000000000000072,-24.088074808533782800
0.238000000000000073,-24.677998507314477195
0.239000000000000073,-25.245269038394603456
0.240000000000000074,-25.790716204258377076
0.241000000000000075,-26.315195690274187257
0.242000000000000076,-26.819580699463223539
0.243000000000000077,-27.304753970580559752
0.244000000000000078,-27.771600247264171202
0.245000000000000079,-28.220999252171498739
0.246000000000000080,-28.653819207182653628
0.247000000000000081,-29.070910928962639730
0.248000000000000081,-29.473102518469310951
0.249000000000000082,-29.861194653378966279
0.250000000000000111,-30.235956483865408018
0.251000000000000112,-30.598122124683754919
0.252000000000000113,-30.948387730040870736
0.253000000000000114,-31.287409132224887287
0.254000000000000115,-31.615800020371871426
0.255000000000000115,-31.934130631995166993
0.256000000000000116,-32.242926926938679344
0.257000000000000117,-32.542670211166935701
0.258000000000000118,-32.833797176207511370
0.259000000000000119,-33.116700319052050361
0.260000000000000120,-33.391728706833262663
0.261000000000000121,-33.659189050565899493
0.262000000000000122,-33.919347052613360916
0.263000000000000123,-34.172428993257184970
0.264000000000000123,-34.418623522757350486
0.265000000000000124,-34.658083626543962907
0.266000000000000125,-34.890928732633291531
0.267000000000000126,-35.117246931969702928
0.268000000000000127,-35.337097284125718488
0.269000000000000128,-35.550512182606922806
0.270000000000000129,-35.757499755881113401
0.271000000000000130,-35.958046282152508866
0.272000000000000131,-36.152118597809113965
0.273000000000000131,-36.339666481364467643
0.274000000000000132,-36.520624996576437127
0.275000000000000133,-36.694916780239921650
0.276000000000000134,-36.862454261906627551
0.277000000000000135,-37.023141804470036220
0.278000000000000136,-37.176877756163790423
0.279000000000000137,-37.323556406046535017
0.280000000000000138,-37.463069836483491315
0.281000000000000139,-37.595309667480947269
0.282000000000000139,-37.720168688983001459
0.283000000000000140,-37.837542378398779874
0.284000000000000141,-37.947330301693980914
0.285000000000000142,-38.049437397354637369
0.286000000000000143,-38.143775143413677142
0.287000000000000144,-38.230262608526459189
0.288000000000000145,-38.308827388792579427
0.289000000000000146,-38.379406432649737724
0.290000000000000147,-38.441946756718017753
0.291000000000000147,-38.496406055950210146
0.292000000000000148,-38.542753211853423068
0.293000000000000149,-38.580968702889364863
0.294000000000000150,-38.611044921443998135
0.295000000000000151,-38.632986401982648772
0.296000000000000152,-38.646809965179841129
0.297000000000000153,-38.652544782938981882
0.298000000000000154,-38.650232369297214063
0.299000000000000155,-38.639926502252905038
0.300000000000000155,-38.621693081557182836
0.301000000000000156,-38.595609927483664592
0.302000000000000157,-38.561766525533748506
0.303000000000000158,-38.520263721952446190
0.304000000000000159,-38.471213374824785092
0.305000000000000160,-38.414737965397932840
0.306000000000000161,-38.350970174133927060
0.307000000000000162,-38.280052425841347485
0.308000000000000163,-38.202136408067914886
0.309000000000000163,-38.117382566758784890
0.310000000000000164,-38.025959583001750275
0.311000000000000165,-37.928043834490082986
0.312000000000000166,-37.823818845140834810
0.313000000000000167,-37.713474726110185031
0.314000000000000168,-37.597207611250517800
0.315000000000000169,-37.475219089857645827
0.316000000000000170,-37.347715639361872775
0.317000000000000171,-37.214908060423404379
0.318000000000000171,-37.077010916704239207
0.319000000000000172,-36.934241981403253874
0.320000000000000173,-36.786821692461259659
0.321000000000000174,-36.634972618167516600
0.322000000000000175,-36.478918934730572232
0.323000000000000176,-36.318885917213279413
0.324000000000000177,-36.155099445075173037
0.325000000000000178,-35.987785523416242484
0.326000000000000179,-35.817169820873004937
0.327000000000000179,-35.643477224982369478
0.328000000000000180,-35.466931415699789909
0.329000000000000181,-35.287754457637468875
0.330000000000000182,-35.106166411472798927
0.331000000000000183,-34.922384964871255875
0.332000000000000184,-34.736625083166089212
0.333000000000000185,-34.549098679944826529
0.334000000000000186,-34.360014307604423323
0.335000000000000187,-34.169576867857450964
0.336000000000000187,-33.977987342096881207
0.337000000000000188,-33.785442541458898802
0.338000000000000189,-33.592134876361775753
0.339000000000000190,-33.398252145241116295
0.340000000000000191,-33.203977342151674179
0.341000000000000192,-33.009488482859921987
0.342000000000000193,-32.814958449009694164
0.343000000000000194,-32.620554849908657502
0.344000000000000195,-32.426439901449917613
0.345000000000000195,-32.232770321656772694
0.346000000000000196,-32.039697242314588266
0.347000000000000197,-31.847366136134162673
0.348000000000000198,-31.655916758874674599
0.349000000000000199,-31.465483105841421718
0.350000000000000200,-31.276193382163899770
0.351000000000000201,-31.088169986252477628
0.352000000000000202,-30.901529505827873834
0.353000000000000203,-30.716382725915934770
0.354000000000000203,-30.532834648200189775
0.355000000000000204,-30.350984521127646332
0.356000000000000205,-30.170925880167441591
0.357000000000000206,-29.992746597628286764
0.358000000000000207,-29.816528941448105172
0.359000000000000208,-29.642349642378654551
0.360000000000000209,-29.470279968998358555
0.361000000000000210,-29.300385809997617770
0.362000000000000210,-29.132727763194317561
0.363000000000000211,-28.967361230749428813
0.364000000000000212,-28.804336520068044791
0.365000000000000213,-28.643698949884896621
0.366000000000000214,-28.485488961049561851
0.367000000000000215,-28.329742231541654718
0.368000000000000216,-28.176489795263286453
0.369000000000000217,-28.025758164171474363
0.370000000000000218,-27.877569453330835358
0.371000000000000218,-27.731941508482787384
0.372000000000000219,-27.588888035744908223
0.373000000000000220,-27.448418733070486297
0.374000000000000221,-27.310539423115454127
0.375000000000000222,-27.175252187175896523
0.376000000000000223,-27.042555499876765879
0.377000000000000224,-26.912444364307674505
0.378000000000000225,-26.784910447318697635
0.379000000000000226,-26.659942214703995944
0.380000000000000226,-26.537525066017515485
0.381000000000000227,-26.417641468779283542
0.382000000000000228,-26.300271091846525451
0.383000000000000229,-26.185390937737633266
0.384000000000000230,-26.072975473711494487
0.385000000000000231,-25.962996761418377645
0.386000000000000232,-25.855424584951766320
0.387000000000000233,-25.750226577143394024
0.388000000000000234,-25.647368343956408410
0.389000000000000234,-25.546813586843519772
0.390000000000000235,-25.448524222948339713
0.391000000000000236,-25.352460503039946360
0.392000000000000237,-25.258581127080557138
0.393000000000000238,-25.166843357337519649
0.394000000000000239,-25.077203128959620670
0.395000000000000240,-24.989615157948158242
0.396000000000000241,-24.904033046461524492
0.397000000000000242,-24.820409385401053015
0.398000000000000242,-24.738695854233903049
0.399000000000000243,-24.658843318016607782
0.400000000000000244,-24.580801921590321513
0.401000000000000245,-24.504521180925706858
0.402000000000000246,-24.429950071602235084
0.403000000000000247,-24.357037114412584344
0.404000000000000248,-24.285730458089126671
0.405000000000000249,-24.215977959154773913
0.406000000000000250,-24.147727258905597125
0.407000000000000250,-24.080925857537810231
0.408000000000000251,-24.015521185435908080
0.409000000000000252,-23.951460671643296507
0.410000000000000253,-23.888691809540411271
0.411000000000000254,-23.827162219759227213
0.412000000000000255,-23.766819710366242191
0.413000000000000256,-23.707612334349324357
0.414000000000000257,-23.649488444446397750
0.415000000000000258,-23.592396745356843724
0.416000000000000258,-23.536286343378613140
0.417000000000000259,-23.481106793516449471
0.418000000000000260,-23.426808144108189680
0.419000000000000261,-23.373340979018248476
0.420000000000000262,-23.320656457448599497
0.421000000000000263,-23.268706351419179867
0.422000000000000264,-23.217443080970355140
0.423000000000000265,-23.166819747141708774
0.424000000000000266,-23.116790162781835960
0.425000000000000266,-23.067308881244404262
0.426000000000000267,-23.018331223026752497
0.427000000000000268,-22.969813300407267320
0.428000000000000269,-22.921712040138316979
0.429000000000000270,-22.873985204251471970
0.430000000000000271,-22.826591409032040758
0.431000000000000272,-22.779490142219707138
0.432000000000000273,-22.732641778491945672
0.433000000000000274,-22.686007593286678485
0.434000000000000274,-22.639549775020292088
0.435000000000000275,-22.593231435756710113
0.436000000000000276,-22.547016620382727581
0.437000000000000277,-22.500870314344332712
0.438000000000000278,-22.454758449997946457
0.439000000000000279,-22.408647911630193761
0.440000000000000280,-22.362506539198570010
0.441000000000000281,-22.316303130845160041
0.442000000000000282,-22.270007444234323657
0.443000000000000282,-22.223590196764639870
0.444000000000000283,-22.177023064704446398
0.445000000000000284,-22.130278681299316190
0.446000000000000285,-22.083330633898995643
0.447000000000000286,-22.036153460150398331
0.448000000000000287,-21.988722643301855442
0.449000000000000288,-21.941014606663504338
0.450000000000000289,-21.893006707266955857
0.451000000000000290,-21.844677228766805399
0.452000000000000290,-21.796005373625458645
0.453000000000000291,-21.746971254621371372
0.454000000000000292,-21.697555885720177571
0.455000000000000293,-21.647741172346805172
0.456000000000000294,-21.597509901095790497
0.457000000000000295,-21.546845728915759111
0.458000000000000296,-21.495733171803269812
0.459000000000000297,-21.444157593039840037
0.460000000000000298,-21.392105191005153841
0.461000000000000298,-21.339562986598338057
0.462000000000000299,-21.286518810298158400
0.463000000000000300,-21.232961288891910812
0.464000000000000301,-21.178879831901955555
0.465000000000000302,-21.124264617737601668
0.466000000000000303,-21.069106579599271356
0.467000000000000304,-21.013397391160804517
0.468000000000000305,-20.957129452054722663
0.469000000000000306,-20.900295873184628448
0.470000000000000306,-20.842890461887670028
0.471000000000000307,-20.784907706969121932
0.472000000000000308,-20.726342763630608346
0.473000000000000309,-20.667191438312197960
0.474000000000000310,-20.607450173467732668
0.475000000000000311,-20.547116032292500165
0.476000000000000312,-20.486186683420729793
0.477000000000000313,-20.424660385610245328
0.478000000000000314,-20.362535972430372055
0.479000000000000314,-20.299812836968850860
0.480000000000000315,-20.236490916572300591
0.481000000000000316,-20.172570677634578118
0.482000000000000317,-20.108053100446095840
0.483000000000000318,-20.042939664116993015
0.484000000000000319,-19.977232331586034064
0.485000000000000320,-19.910933534726733996
0.486000000000000321,-19.844046159561241183
0.487000000000000322,-19.776573531592280375
0.488000000000000322,-19.708519401262456938
0.489000000000000323,-19.639887929550173595
0.490000000000000324,-19.570683673710242090
0.491000000000000325,-19.500911573167240221
0.492000000000000326,-19.430576935568801389
0.493000000000000327,-19.359685423005789318
0.494000000000000328,-19.288243038405578744
0.495000000000000329,-19.216256112104410647
0.496000000000000330,-19.143731288604065810
0.497000000000000330,-19.070675513518118294
0.498000000000000331,-18.997096020711882858
0.499000000000000332,-18.923000319640699729
0.500000000000000333,-18.848396182889914030
0.501000000000000334,-18.773291633920091925
0.502000000000000335,-18.697694935020471974
0.503000000000000336,-18.621614575473323328
0.504000000000000337,-18.545059259931534257
0.505000000000000338,-18.468037897011431170
0.506000000000000338,-18.390559588102508570
0.507000000000000339,-18.312633616395622482
0.508000000000000340,-18.234269436130549735
0.509000000000000341,-18.155476662064085502
0.510000000000000342,-18.076265059158959758
0.511000000000000343,-17.996644532494208590
0.512000000000000344,-17.916625117396989708
0.513000000000000345,-17.836216969795763987
0.514000000000000346,-17.755430356794711599
0.515000000000000346,-17.674275647468611794
0.516000000000000347,-17.592763303877706704
0.517000000000000348,-17.510903872301653905
0.518000000000000349,-17.428707974691459270
0.519000000000000350,-17.346186300338278130
0.520000000000000351,-17.263349597757638776
0.521000000000000352,-17.180208666787763150
0.522000000000000353,-17.096774350900140860
0.523000000000000353,-17.013057529720747141
0.524000000000000354,-16.929069111760064459
0.525000000000000355,-16.844820027349790337
0.526000000000000356,-16.760321221784224122
0.527000000000000357,-16.675583648664197511
0.528000000000000358,-16.590618263441136548
0.529000000000000359,-16.505436017159077267
0.530000000000000360,-16.420047850392016642
0.531000000000000361,-16.334464687374243397
0.532000000000000361,-16.248697430320994783
0.533000000000000362,-16.162756953936810334
0.534000000000000363,-16.076654100109003309
0.535000000000000364,-15.990399672783320639
0.536000000000000365,-15.904004433019219178
0.537000000000000366,-15.817479094221832625
0.538000000000000367,-15.730834317547726542
0.539000000000000368,-15.644080707481768044
0.540000000000000369,-15.557228807581930496
0.541000000000000369,-15.470289096389347350
0.542000000000000370,-15.383271983500481639
0.543000000000000371,-15.296187805798576065
0.544000000000000372,-15.209046823841362084
0.545000000000000373,-15.121859218402045499
0.546000000000000374,-15.034635087160555855
0.547000000000000375,-14.947384441542117983
0.548000000000000376,-14.860117203700209387
0.549000000000000377,-14.772843203640785958
0.550000000000000377,-14.685572176484885887
0.551000000000000378,-14.598313759866631045
0.552000000000000379,-14.511077491463723277
0.553000000000000380,-14.423872806657408674
0.554000000000000381,-14.336709036318946886
0.555000000000000382,-14.249595404719958225
0.556000000000000383,-14.162541027563284146
0.557000000000000384,-14.075554910132003883
0.558000000000000385,-13.988645945553344063
0.559000000000000385,-13.901822913174939345
0.560000000000000386,-13.815094477050513078
0.561000000000000387,-13.728469184532254843
0.562000000000000388,-13.641955464967105982
0.563000000000000389,-13.555561628494341875
0.564000000000000390,-13.469295864941638996
0.565000000000000391,-13.383166242817111424
0.566000000000000392,-13.297180708394567006
0.567000000000000393,-13.211347084889561998
0.568000000000000393,-13.125673071723515051
0.569000000000000394,-13.040166243873448693
0.570000000000000395,-12.954834051305073928
0.571000000000000396,-12.869683818486302940
0.572000000000000397,-12.784722743979305193
0.573000000000000398,-12.699957900108369557
0.574000000000000399,-12.615396232701421297
0.575000000000000400,-12.531044560902795837
0.576000000000000401,-12.446909577055055962
0.577000000000000401,-12.362997846647699518
0.578000000000000402,-12.279315808330384385
0.579000000000000403,-12.195869773988700757
0.580000000000000404,-12.112665928880346655
0.581000000000000405,-12.029710331829546632
0.582000000000000406,-11.947008915477825397
0.583000000000000407,-11.864567486588926570
0.584000000000000408,-11.782391726406251209
0.585000000000000409,-11.700487191060556569
0.586000000000000409,-11.618859312026195596
0.587000000000000410,-11.537513396624177631
0.588000000000000411,-11.456454628569920473
0.589000000000000412,-11.375688068564318911
0.590000000000000413,-11.295218654926042490
0.591000000000000414,-11.215051204263609463
0.592000000000000415,-11.135190412185570707
0.593000000000000416,-11.055640854046970389
0.594000000000000417,-10.976406985730729815
0.595000000000000417,-10.897493144462458758
0.596000000000000418,-10.818903549656734953
0.597000000000000419,-10.740642303794105672
0.598000000000000420,-10.662713393326583855
0.599000000000000421,-10.585120689610898026
0.600000000000000422,-10.507867949867645052
0.601000000000000423,-10.430958818165331436
0.602000000000000424,-10.354396826427800349
0.603000000000000425,-10.278185395463850682
0.604000000000000425,-10.202327836017804685
