# C-amorph-2_TANNIC-ARM-ANION-AC
# h[nm],U(h)[kJ/mol]
0.200000000000000011,85.404892825234085763
0.201000000000000012,84.021176821514202970
0.202000000000000013,82.324546598655246044
0.203000000000000014,80.519285164362301543
0.204000000000000015,78.717599123605538125
0.205000000000000016,76.973335506838992615
0.206000000000000016,75.305056053168897279
0.207000000000000017,73.711475115008767034
0.208000000000000018,72.181486989405584609
0.209000000000000019,70.700418033281437147
0.210000000000000020,69.253694383731755124
0.211000000000000021,67.828783301782465287
0.212000000000000022,66.416018600215593892
0.213000000000000023,65.008737825688982070
0.214000000000000024,63.603025055316322778
0.215000000000000024,62.197256204341996977
0.216000000000000025,60.791574330309707364
0.217000000000000026,59.387373468153647593
0.218000000000000027,57.986835651387067969
0.219000000000000028,56.592542892655913533
0.220000000000000029,55.207170948597976690
0.221000000000000030,53.833262389966535011
0.222000000000000031,52.473071140375353139
0.223000000000000032,51.128467987245898030
0.224000000000000032,49.800895697906142345
0.225000000000000033,48.491362639205220830
0.226000000000000034,47.200464738290321520
0.227000000000000035,45.928426914709774564
0.228000000000000036,44.675156543066357528
0.229000000000000037,43.440302929916775554
0.230000000000000038,42.223318121489079147
0.231000000000000039,41.023515551238446619
0.232000000000000040,39.840124065757585470
0.233000000000000040,38.672335729188134223
0.234000000000000041,37.519346506419672949
0.235000000000000042,36.380389477161301670
0.236000000000000043,35.254760653155543082
0.237000000000000044,34.141837777517793029
0.238000000000000045,33.041092696505486970
0.239000000000000046,31.952098027079266274
0.240000000000000047,30.874528914011143854
0.241000000000000048,29.808160691867506387
0.242000000000000048,28.752863251900389940
0.243000000000000049,27.708592871851902117
0.244000000000000050,26.675382206324467660
0.245000000000000051,25.653329063516121522
0.246000000000000052,24.642584516223529079
0.247000000000000053,23.643340815288667045
0.248000000000000054,22.655819495313657796
0.249000000000000055,21.680259987812412703
0.250000000000000056,20.716908987620108462
0.251000000000000056,19.766010755368078833
0.252000000000000057,18.827798482722247542
0.253000000000000058,17.902486798082229313
0.254000000000000059,16.990265448477561705
0.255000000000000060,16.091294158210235565
0.256000000000000061,15.205698635965509524
0.257000000000000062,14.333567679142324991
0.258000000000000063,13.474951306480061675
0.259000000000000064,12.629859837094926434
0.260000000000000064,11.798263825199351018
0.261000000000000065,10.980094754493405773
0.262000000000000066,10.175246393939200829
0.263000000000000067,9.383576716857835009
0.264000000000000068,8.604910287554210058
0.265000000000000069,7.839041023558388943
0.266000000000000070,7.085735246702087764
0.267000000000000071,6.344734942291503366
0.268000000000000071,5.615761152311280924
0.269000000000000072,4.898517435652540719
0.270000000000000073,4.192693335594233517
0.271000000000000074,3.497967802012357019
0.272000000000000075,2.814012522903477365
0.273000000000000076,2.140495126679471838
0.274000000000000077,1.477082223231502400
0.275000000000000078,0.823442257909176689
0.276000000000000079,0.179248158272339086
0.277000000000000079,-0.455820241284848549
0.278000000000000080,-1.082074007174741226
0.279000000000000081,-1.699813152385095005
0.280000000000000082,-2.309324922443599881
0.281000000000000083,-2.910882320320285377
0.282000000000000084,-3.504742866132282586
0.283000000000000085,-4.091147585065462167
0.284000000000000086,-4.670320214879128073
0.285000000000000087,-5.242466622680709953
0.286000000000000087,-5.807774419324600146
0.287000000000000088,-6.366412758766356816
0.288000000000000089,-6.918532308964056021
0.289000000000000090,-7.464265380432682839
0.290000000000000091,-8.003726198293639627
0.291000000000000092,-8.537011303597569878
0.292000000000000093,-9.064200069802875959
0.293000000000000094,-9.585355320544307389
0.294000000000000095,-10.100524035200830753
0.295000000000000095,-10.609738129250811056
0.296000000000000096,-11.113015296962682754
0.297000000000000097,-11.610359904597320480
0.298000000000000098,-12.101763922975205645
0.299000000000000099,-12.587207888975251890
0.300000000000000100,-13.066661886268528647
0.301000000000000101,-13.540086536340542267
0.302000000000000102,-14.007433991606456303
0.303000000000000103,-14.468648923172604981
0.304000000000000103,-14.923669496530148848
0.305000000000000104,-15.372428329184097962
0.306000000000000105,-15.814853424912962865
0.307000000000000106,-16.250869080020002855
0.308000000000000107,-16.680396757571660515
0.309000000000000108,-17.103355926220860539
0.310000000000000109,-17.519664860780700621
0.311000000000000110,-17.929241402244318948
0.312000000000000111,-18.332003675443878876
0.313000000000000111,-18.727870762998463761
0.314000000000000112,-19.116763334623762205
0.315000000000000113,-19.498604231262916642
0.316000000000000114,-19.873319003848827435
0.317000000000000115,-20.240836406825827964
0.318000000000000116,-20.601088846843360614
0.319000000000000117,-20.954012787287140895
0.320000000000000118,-21.299549109536666691
0.321000000000000119,-21.637643432033343061
0.322000000000000119,-21.968246388410925363
0.323000000000000120,-22.291313866083338979
0.324000000000000121,-22.606807206805193289
0.325000000000000122,-22.914693370817438733
0.326000000000000123,-23.214945066268885654
0.327000000000000124,-23.507540845663662310
0.328000000000000125,-23.792465171126995216
0.329000000000000126,-24.069708450308617387
0.330000000000000127,-24.339267044756400793
0.331000000000000127,-24.601143252592869715
0.332000000000000128,-24.855345267316870661
0.333000000000000129,-25.101887114531727718
0.334000000000000130,-25.340788568371337419
0.335000000000000131,-25.572075049359476395
0.336000000000000132,-25.795777505392020856
0.337000000000000133,-26.011932277483801101
0.338000000000000134,-26.220580951866924835
0.339000000000000135,-26.421770199968371173
0.340000000000000135,-26.615551607734865058
0.341000000000000136,-26.801981495707536851
0.342000000000000137,-26.981120731184141448
0.343000000000000138,-27.153034533739020873
0.344000000000000139,-27.317792275303908411
0.345000000000000140,-27.475467275944161827
0.346000000000000141,-27.626136596397365963
0.347000000000000142,-27.769880828374169823
0.348000000000000143,-27.906783883554595604
0.349000000000000143,-28.036932782148017651
0.350000000000000144,-28.160417441821085305
0.351000000000000145,-28.277330467735474429
0.352000000000000146,-28.387766944377524680
0.353000000000000147,-28.491824229802499957
0.354000000000000148,-28.589601752860868800
0.355000000000000149,-28.681200813918810155
0.356000000000000150,-28.766724389533891326
0.357000000000000151,-28.846276941497059454
0.358000000000000151,-28.919964230604431776
0.359000000000000152,-28.987893135478010720
0.360000000000000153,-29.050171476711483365
0.361000000000000154,-29.106907846576945076
0.362000000000000155,-29.158211444490955699
0.363000000000000156,-29.204191918402148787
0.364000000000000157,-29.244959212229606038
0.365000000000000158,-29.280623419450222400
0.366000000000000159,-29.311294642903543917
0.367000000000000159,-29.337082860856661171
0.368000000000000160,-29.358097799346001722
0.369000000000000161,-29.374448810790330100
0.370000000000000162,-29.386244758848146574
0.371000000000000163,-29.393593909473338499
0.372000000000000164,-29.396603828105405398
0.373000000000000165,-29.395381282914723187
0.374000000000000166,-29.390032154009123389
0.375000000000000167,-29.380661348494793828
0.376000000000000167,-29.367372721273675040
0.377000000000000168,-29.350269001449113659
0.378000000000000169,-29.329451724202584728
0.379000000000000170,-29.305021167997164611
0.380000000000000171,-29.277076296956437318
0.381000000000000172,-29.245714708262255499
0.382000000000000173,-29.211032584410361324
0.383000000000000174,-29.173124650159188320
0.384000000000000175,-29.132084134004468723
0.385000000000000175,-29.088002734010238726
0.386000000000000176,-29.040970587826034688
0.387000000000000177,-28.991076246718517240
0.388000000000000178,-28.938406653447394490
0.389000000000000179,-28.883047123814407087
0.390000000000000180,-28.825081331716507549
0.391000000000000181,-28.764591297535595515
0.392000000000000182,-28.701657379698879424
0.393000000000000183,-28.636358269246791508
0.394000000000000183,-28.568770987247784632
0.395000000000000184,-28.498970884902568912
0.396000000000000185,-28.427031646183525737
0.397000000000000186,-28.353025292858454520
0.398000000000000187,-28.277022191751893132
0.399000000000000188,-28.199091064100777260
0.400000000000000189,-28.119298996865161655
0.401000000000000190,-28.037711455859444243
0.402000000000000191,-27.954392300573214669
0.403000000000000191,-27.869403800555225814
0.404000000000000192,-27.782806653238662165
0.405000000000000193,-27.694660003090056932
0.406000000000000194,-27.605021461968533458
0.407000000000000195,-27.513947130586767997
0.408000000000000196,-27.421491620969021596
0.409000000000000197,-27.327708079806559027
0.410000000000000198,-27.232648212614542160
0.411000000000000199,-27.136362308598968696
0.412000000000000199,-27.038899266146721345
0.413000000000000200,-26.940306618855469623
0.414000000000000201,-26.840630562024720973
0.415000000000000202,-26.739915979532941748
0.416000000000000203,-26.638206471029825195
0.417000000000000204,-26.535544379376592161
0.418000000000000205,-26.431970818270752233
0.419000000000000206,-26.327525699995749875
0.420000000000000207,-26.222247763238875962
0.421000000000000207,-26.116174600925063487
0.422000000000000208,-26.009342688016523937
0.423000000000000209,-25.901787409232348125
0.424000000000000210,-25.793543086644614704
0.425000000000000211,-25.684643007110771862
0.426000000000000212,-25.575119449505173463
0.427000000000000213,-25.465003711714853551
0.428000000000000214,-25.354326137368026650
0.429000000000000214,-25.243116142265655810
0.430000000000000215,-25.131402240489283173
0.431000000000000216,-25.019212070160818939
0.432000000000000217,-24.906572418831576243
0.433000000000000218,-24.793509248480727791
0.434000000000000219,-24.680047720104880682
0.435000000000000220,-24.566212217882728908
0.436000000000000221,-24.452026372900384388
0.437000000000000222,-24.337513086424820585
0.438000000000000222,-24.222694552714532534
0.439000000000000223,-24.107592281358162012
0.440000000000000224,-23.992227119133197277
0.441000000000000225,-23.876619271378196174
0.442000000000000226,-23.760788322873828804
0.443000000000000227,-23.644753258228270454
0.444000000000000228,-23.528532481765036977
0.445000000000000229,-23.412143836910964012
0.446000000000000230,-23.295604625084163075
0.447000000000000230,-23.178931624082473206
0.448000000000000231,-23.062141105973417154
0.449000000000000232,-22.945248854487935830
0.450000000000000233,-22.828270181920991888
0.451000000000000234,-22.711219945542403309
0.452000000000000235,-22.594112563522440240
0.453000000000000236,-22.476962030376935076
0.454000000000000237,-22.359781931937551036
0.455000000000000238,-22.242585459852961094
0.456000000000000238,-22.125385425627662528
0.457000000000000239,-22.008194274205031604
0.458000000000000240,-21.891024097102057766
0.459000000000000241,-21.773886645103242898
0.460000000000000242,-21.656793340521620195
0.461000000000000243,-21.539755289034967944
0.462000000000000244,-21.422783291105794490
0.463000000000000245,-21.305887852993336651
0.464000000000000246,-21.189079197366854856
0.465000000000000246,-21.072367273528598730
0.466000000000000247,-20.955761767255896899
0.467000000000000248,-20.839272110271167548
0.468000000000000249,-20.722907489349339016
0.469000000000000250,-20.606676855071690113
0.470000000000000251,-20.490588930235503540
0.471000000000000252,-20.374652217928634457
0.472000000000000253,-20.258875009278590085
0.473000000000000254,-20.143265390884955934
0.474000000000000254,-20.027831251944665070
0.475000000000000255,-19.912580291079041928
0.476000000000000256,-19.797520022871843537
0.477000000000000257,-19.682657784127183476
0.478000000000000258,-19.568000739856231007
0.479000000000000259,-19.453555889001552970
0.480000000000000260,-19.339330069907653353
0.481000000000000261,-19.225329965546357869
0.482000000000000262,-19.111562108505367519
0.483000000000000262,-18.998032885748493470
0.484000000000000263,-18.884748543155303935
0.485000000000000264,-18.771715189848684702
0.486000000000000265,-18.658938802317756256
0.487000000000000266,-18.546425228344013192
0.488000000000000267,-18.434180190738210570
0.489000000000000268,-18.322209290895347777
0.490000000000000269,-18.210518012174908620
0.491000000000000270,-18.099111723113480821
0.492000000000000270,-17.987995680476508653
0.493000000000000271,-17.877175032155957268
0.494000000000000272,-17.766654819920447039
0.495000000000000273,-17.656439982023982793
0.496000000000000274,-17.546535355679829138
0.497000000000000275,-17.436945679405166487
0.498000000000000276,-17.327675595242617135
0.499000000000000277,-17.218729650864254666
0.500000000000000222,-17.110112301563432879
0.501000000000000334,-17.001827912140022647
0.502000000000000224,-16.893880758684179710
0.503000000000000336,-16.786275030263233532
0.504000000000000226,-16.679014830517363777
0.505000000000000338,-16.572104179167734372
0.506000000000000227,-16.465547013442577651
0.507000000000000339,-16.359347189424788382
0.508000000000000229,-16.253508483325919798
0.509000000000000341,-16.148034592689914035
0.510000000000000231,-16.042929137531412920
0.511000000000000343,-15.938195661411366899
0.512000000000000233,-15.833837632454555333
0.513000000000000345,-15.729858444311611620
0.514000000000000234,-15.626261417069873261
0.515000000000000346,-15.523049798115192033
0.516000000000000236,-15.420226762948852084
0.517000000000000348,-15.317795415961649397
0.518000000000000238,-15.215758791168770614
0.519000000000000350,-15.114119852907446528
0.520000000000000240,-15.012881496500630973
0.521000000000000352,-14.912046548888685749
0.522000000000000242,-14.811617769231849806
0.523000000000000353,-14.711597849485386291
0.524000000000000243,-14.611989414949917432
0.525000000000000355,-14.512795024798686327
0.526000000000000245,-14.414017172584072668
0.527000000000000357,-14.315658286724746162
0.528000000000000247,-14.217720730975736743
0.529000000000000359,-14.120206804882721840
0.530000000000000249,-14.023118744222340837
0.531000000000000361,-13.926458721429863630
0.532000000000000250,-13.830228846015922173
0.533000000000000362,-13.734431164973248229
0.534000000000000252,-13.639067663175163503
0.535000000000000364,-13.544140263766468735
0.536000000000000254,-13.449650828548561421
0.537000000000000366,-13.355601158358965108
0.538000000000000256,-13.261992993447222489
0.539000000000000368,-13.168828013847138081
0.540000000000000258,-13.076107839747162842
0.541000000000000369,-12.983834031858782154
0.542000000000000259,-12.892008091784614265
0.543000000000000371,-12.800631462386073522
0.544000000000000261,-12.709705528151868492
0.545000000000000373,-12.619231615567532145
0.546000000000000263,-12.529210993486904258
0.547000000000000375,-12.439644873505468325
0.548000000000000265,-12.350534410336937441
0.549000000000000377,-12.261880702192431869
0.550000000000000266,-12.173684791163584151
0.551000000000000378,-12.085947663609227121
0.552000000000000268,-11.998670250546391358
0.553000000000000380,-11.911853428045622749
0.554000000000000270,-11.825498017631151271
0.555000000000000382,-11.739604786685655213
0.556000000000000272,-11.654174448860455726
0.557000000000000384,-11.569207664490496867
0.558000000000000274,-11.484705041015118354
0.559000000000000385,-11.400667133403814546
0.560000000000000275,-11.317094444587906921
0.561000000000000387,-11.233987425897467460
0.562000000000000277,-11.151346477504045396
0.563000000000000389,-11.069171948868866906
0.564000000000000279,-10.987464139196763568
0.565000000000000391,-10.906223297895540014
0.566000000000000281,-10.825449625041027701
0.567000000000000393,-10.745143271847421573
0.568000000000000282,-10.665304341143329481
0.569000000000000394,-10.585932887852736783
0.570000000000000284,-10.507028919481637530
0.571000000000000396,-10.428592396609404958
0.572000000000000286,-10.350623233385487509
0.573000000000000398,-10.273121298030655879
0.574000000000000288,-10.196086413343298460
0.575000000000000400,-10.119518357210019133
0.576000000000000290,-10.043416863120931737
0.577000000000000401,-9.967781620688963784
0.578000000000000291,-9.892612276173499808
0.579000000000000403,-9.817908433007740854
0.580000000000000293,-9.743669652330067876
0.581000000000000405,-9.669895453518623896
0.582000000000000295,-9.596585314729690452
0.583000000000000407,-9.523738673438874258
0.584000000000000297,-9.451354926985580107
0.585000000000000409,-9.379433433120064834
0.586000000000000298,-9.307973510553315677
0.587000000000000410,-9.236974439509092250
0.588000000000000300,-9.166435462278439417
0.589000000000000412,-9.096355783775939230
0.590000000000000302,-9.026734572097975473
0.591000000000000414,-8.957570959082485018
0.592000000000000304,-8.888864040870210204
0.593000000000000416,-8.820612878466977946
0.594000000000000306,-8.752816498307229409
0.595000000000000417,-8.685473892818112773
0.596000000000000307,-8.618584020984378924
0.597000000000000419,-8.552145808913515168
0.598000000000000309,-8.486158150401276856
0.599000000000000421,-8.420619907497073342
0.600000000000000311,-8.355529911069366378
0.601000000000000423,-8.290886961370514285
0.602000000000000313,-8.226689828601349674
0.603000000000000425,-8.162937253474730426
0.604000000000000314,-8.099627947778543557
0.605000000000000426,-8.036760594937302216
0.606000000000000316,-7.974333850572810078
0.607000000000000428,-7.912346343063160425
0.608000000000000318,-7.850796674100399386
0.609000000000000430,-7.789683419246213880
0.610000000000000320,-7.729005128485991527
0.611000000000000432,-7.668760326780559744
0.612000000000000322,-7.608947514615965524
0.613000000000000433,-7.549565168550751437
0.614000000000000323,-7.490611741760825559
0.615000000000000435,-7.432085664581634887
0.616000000000000325,-7.373985345047681328
0.617000000000000437,-7.316309169428985903
0.618000000000000327,-7.259055502764714340
0.619000000000000439,-7.202222689393451560
0.620000000000000329,-7.145809053480372874
0.621000000000000441,-7.089812899540928193
0.622000000000000330,-7.034232512961094308
0.623000000000000442,-6.979066160513925254
0.624000000000000332,-6.924312090872501990
0.625000000000000444,-6.869968535118958997
0.626000000000000334,-6.816033707249701479
0.627000000000000446,-6.762505804676503196
0.628000000000000336,-6.709383008723625252
0.629000000000000448,-6.656663485120622781
0.630000000000000338,-6.604345384491054460
0.631000000000000449,-6.552426842836640120
0.632000000000000339,-6.500905982017203044
0.633000000000000451,-6.449780910225958230
0.634000000000000341,-6.399049722460373957
0.635000000000000453,-6.348710500988284267
0.636000000000000343,-6.298761315809456640
0.637000000000000455,-6.249200225112242713
0.638000000000000345,-6.200025275725664642
0.639000000000000457,-6.151234503566365142
0.640000000000000346,-6.102825934080985171
0.641000000000000458,-6.054797582683286272
0.642000000000000348,-6.007147455186571783
0.643000000000000460,-5.959873548230849138
0.644000000000000350,-5.912973849705148055
0.645000000000000462,-5.866446339164555823
0.646000000000000352,-5.820288988242344530
0.647000000000000464,-5.774499761056700819
0.648000000000000353,-5.729076614612593765
0.649000000000000465,-5.684017499198132484
0.650000000000000355,-5.639320358776010345
0.651000000000000467,-5.594983131369490437
0.652000000000000357,-5.551003749443339963
0.653000000000000469,-5.507380140279354741
0.654000000000000359,-5.464110226346787336
0.655000000000000471,-5.421191925667351086
0.656000000000000361,-5.378623152175141087
