# C-amorph-2_GUANINEKETO
# h[nm],U(h)[kJ/mol]
0.149999999999999994,125.020111505579876621
0.150999999999999995,121.619427105526980881
0.151999999999999996,118.237005922172187411
0.152999999999999997,114.903899556406756233
0.153999999999999998,111.623571031977775192
0.154999999999999999,108.391646695681473034
0.156000000000000000,105.204057975767568678
0.157000000000000001,102.059383715215361121
0.158000000000000002,98.958643664645904892
0.159000000000000002,95.904253561672192063
0.160000000000000003,92.898956660524078188
0.161000000000000004,89.945050025943629635
0.162000000000000005,87.043967844106077791
0.163000000000000006,84.196167770779752004
0.164000000000000007,81.401227323021629445
0.165000000000000008,78.658057613534154484
0.166000000000000009,75.965159193062632426
0.167000000000000010,73.320867152540287748
0.168000000000000010,70.723553716665946922
0.169000000000000011,68.171773655483974608
0.170000000000000012,65.664350254040286359
0.171000000000000013,63.200407634376666977
0.172000000000000014,60.779359685242624778
0.173000000000000015,58.400867607580323693
0.174000000000000016,56.064777960119315026
0.175000000000000017,53.771051791261285757
0.176000000000000018,51.519693519246587243
0.177000000000000018,49.310686073004418972
0.178000000000000019,47.143936703652556730
0.179000000000000020,45.019235990414948390
0.180000000000000021,42.936230984995297888
0.181000000000000022,40.894412198417505522
0.182000000000000023,38.893113228619078825
0.183000000000000024,36.931521226023612314
0.184000000000000025,35.008696055005977144
0.185000000000000026,33.123595883249585370
0.186000000000000026,31.275106970088160097
0.187000000000000027,29.462075584035630982
0.188000000000000028,27.683340219200708532
0.189000000000000029,25.937762566803304054
0.190000000000000030,24.224256004637162221
0.191000000000000031,22.541810673275882948
0.192000000000000032,20.889514497849877017
0.193000000000000033,19.266569777871161762
0.194000000000000034,17.672305198396756509
0.195000000000000034,16.106183310551944743
0.196000000000000035,14.567803687344342833
0.197000000000000036,13.056902082901956419
0.198000000000000037,11.573346012189208665
0.199000000000000038,10.117127227176597515
0.200000000000000039,8.688351598129345987
0.201000000000000040,7.287226919103145129
0.202000000000000041,5.914049148837613679
0.203000000000000042,4.569187575792059697
0.204000000000000042,3.253069362554137367
0.205000000000000043,1.966163883410174673
0.206000000000000044,0.708967222235093786
0.207000000000000045,-0.518012851602987490
0.208000000000000046,-1.714271161969299628
0.209000000000000047,-2.879318441591235178
0.210000000000000048,-4.012693514522167604
0.211000000000000049,-5.113974220123827408
0.212000000000000050,-6.182786994420437665
0.213000000000000050,-7.218815061816147072
0.214000000000000051,-8.221805223034511556
0.215000000000000052,-9.191573253643809949
0.216000000000000053,-10.128007951721764712
0.217000000000000054,-11.031073893234886185
0.218000000000000055,-11.900812969784464457
0.219000000000000056,-12.737344795780938256
0.220000000000000057,-13.540866081173183133
0.221000000000000058,-14.311649071905730324
0.222000000000000058,-15.050039163666316000
0.223000000000000059,-15.756451795547667061
0.224000000000000060,-16.431368729329300038
0.225000000000000061,-17.075333817498737687
0.226000000000000062,-17.688948359180773906
0.227000000000000063,-18.272866138103498912
0.228000000000000064,-18.827788230852053886
0.229000000000000065,-19.354457667174685298
0.230000000000000066,-19.853654017205567328
0.231000000000000066,-20.326187973337273007
0.232000000000000067,-20.772895987256877248
0.233000000000000068,-21.194635015486952057
0.234000000000000069,-21.592277419749486000
0.235000000000000070,-21.966706061685719931
0.236000000000000071,-22.318809624986396756
0.237000000000000072,-22.649478191870020538
0.238000000000000073,-22.959599095127963153
0.239000000000000073,-23.250053061662868004
0.240000000000000074,-23.521710658597076105
0.241000000000000075,-23.775429048625582595
0.242000000000000076,-24.012049057333026525
0.243000000000000077,-24.232392551679247106
0.244000000000000078,-24.437260125768808905
0.245000000000000079,-24.627429087340036773
0.246000000000000080,-24.803651736117632964
0.247000000000000081,-24.966653923248138369
0.248000000000000081,-25.117133879452797629
0.249000000000000082,-25.255761298263909254
0.250000000000000111,-25.383176659732239244
0.251000000000000112,-25.499990779276931363
0.252000000000000113,-25.606784565873017101
0.253000000000000114,-25.704108973505242375
0.254000000000000115,-25.792485129741908878
0.255000000000000115,-25.872404625370837294
0.256000000000000116,-25.944329949272532332
0.257000000000000117,-26.008695053061650526
0.258000000000000118,-26.065906030487461464
0.259000000000000119,-26.116341897129984773
0.260000000000000120,-26.160355456545488551
0.261000000000000121,-26.198274239685446219
0.262000000000000122,-26.230401505127240114
0.263000000000000123,-26.257017288397541677
0.264000000000000123,-26.278379489431767269
0.265000000000000124,-26.294724987984363196
0.266000000000000125,-26.306270777578124154
0.267000000000000126,-26.313215109346778320
0.268000000000000127,-26.315738637880365047
0.269000000000000128,-26.314005561919014298
0.270000000000000129,-26.308164753456129148
0.271000000000000130,-26.298350869500591642
0.272000000000000131,-26.284685441408448980
0.273000000000000131,-26.267277937323889603
0.274000000000000132,-26.246226793866135552
0.275000000000000133,-26.221620413762451562
0.276000000000000134,-26.193538126655898424
0.277000000000000135,-26.162051110810324417
0.278000000000000136,-26.127223273894372824
0.279000000000000137,-26.089112091450793685
0.280000000000000138,-26.047769402048452037
0.281000000000000139,-26.003242158471756795
0.282000000000000139,-25.955573134628576071
0.283000000000000140,-25.904801588152235325
0.284000000000000141,-25.850963878938284068
0.285000000000000142,-25.794094044094208584
0.286000000000000143,-25.734224329989665137
0.287000000000000144,-25.671385682279680651
0.288000000000000145,-25.605608194934355026
0.289000000000000146,-25.536921519445844098
0.290000000000000147,-25.465355235501682785
0.291000000000000147,-25.390939184510394000
0.292000000000000148,-25.313703767445687731
0.293000000000000149,-25.233680208538142864
0.294000000000000150,-25.150900786391083841
0.295000000000000151,-25.065399034131608857
0.296000000000000152,-24.977209910228005185
0.297000000000000153,-24.886369941615477330
0.298000000000000154,-24.792917340770273427
0.299000000000000155,-24.696892098363466772
0.300000000000000155,-24.598336053106638843
0.301000000000000156,-24.497292940376762971
0.302000000000000157,-24.393808421175876333
0.303000000000000158,-24.287930092943689431
0.304000000000000159,-24.179707483699729664
0.305000000000000160,-24.069192030945458782
0.306000000000000161,-23.956437046707840466
0.307000000000000162,-23.841497670054103253
0.308000000000000163,-23.724430808353332623
0.309000000000000163,-23.605295068505171230
0.310000000000000164,-23.484150679299506947
0.311000000000000165,-23.361059406013289674
0.312000000000000166,-23.236084458293792210
0.313000000000000167,-23.109290392319252305
0.314000000000000168,-22.980743008171657493
0.315000000000000169,-22.850509243298951390
0.316000000000000170,-22.718657062889185738
0.317000000000000171,-22.585255347923947511
0.318000000000000171,-22.450373781625302172
0.319000000000000172,-22.314082734958734733
0.320000000000000173,-22.176453151803968922
0.321000000000000174,-22.037556434356922352
0.322000000000000175,-21.897464329279060280
0.323000000000000176,-21.756248815065355018
0.324000000000000177,-21.613981991058377474
0.325000000000000178,-21.470735968494949475
0.326000000000000179,-21.326582763932066200
0.327000000000000179,-21.181594195361178379
0.328000000000000180,-21.035841781284013052
0.329000000000000181,-20.889396642989922270
0.330000000000000182,-20.742329410241765686
0.331000000000000183,-20.594710130548460114
0.332000000000000184,-20.446608182172951729
0.333000000000000185,-20.298092190998666240
0.334000000000000186,-20.149229951352385370
0.335000000000000187,-20.000088350858455044
0.336000000000000187,-19.850733299377907315
0.337000000000000188,-19.701229662066083392
0.338000000000000189,-19.551641196564187197
0.339000000000000190,-19.402030494323213361
0.340000000000000191,-19.252458926042994136
0.341000000000000192,-19.102986591195747934
0.342000000000000193,-18.953672271589546483
0.343000000000000194,-18.804573388916566046
0.344000000000000195,-18.655745966219672738
0.345000000000000195,-18.507244593202216265
0.346000000000000196,-18.359122395296978425
0.347000000000000197,-18.211431006403280719
0.348000000000000198,-18.064220545194700662
0.349000000000000199,-17.917539594894179800
0.350000000000000200,-17.771435186408815810
0.351000000000000201,-17.625952784712414001
0.352000000000000202,-17.481136278360740022
0.353000000000000203,-17.337027972021779476
0.354000000000000203,-17.193668581901373926
0.355000000000000204,-17.051097233943043108
0.356000000000000205,-16.909351464680121069
0.357000000000000206,-16.768467224617872091
0.358000000000000207,-16.628478884023060402
0.359000000000000208,-16.489419240999346528
0.360000000000000209,-16.351319531727288137
0.361000000000000210,-16.214209442749165646
0.362000000000000210,-16.078117125180206415
0.363000000000000211,-15.943069210729467144
0.364000000000000212,-15.809090829415836765
0.365000000000000213,-15.676205628866574315
0.366000000000000214,-15.544435795088423546
0.367000000000000215,-15.413802074603662362
0.368000000000000216,-15.284323797846585791
0.369000000000000217,-15.156018903718159407
0.370000000000000218,-15.028903965200186121
0.371000000000000218,-14.902994215932793054
0.372000000000000219,-14.778303577662603274
0.373000000000000220,-14.654844688471715841
0.374000000000000221,-14.532628931701285779
0.375000000000000222,-14.411666465486172584
0.376000000000000223,-14.291966252820859751
0.377000000000000224,-14.173536092079814352
0.378000000000000225,-14.056382647918747253
0.379000000000000226,-13.940511482486465766
0.380000000000000226,-13.825927086880284378
0.381000000000000227,-13.712632912780858163
0.382000000000000228,-13.600631404205856256
0.383000000000000229,-13.489924029324480870
0.384000000000000230,-13.380511312278125402
0.385000000000000231,-13.272392864955543601
0.386000000000000232,-13.165567418673418842
0.387000000000000233,-13.060032855716448452
0.388000000000000234,-12.955786240693441869
0.389000000000000234,-12.852823851669160860
0.390000000000000235,-12.751141211033525380
0.391000000000000236,-12.650733116073094919
0.392000000000000237,-12.551593669211531079
0.393000000000000238,-12.453716307888797132
0.394000000000000239,-12.357093834050449033
0.395000000000000240,-12.261718443221250041
0.396000000000000241,-12.167581753139065981
0.397000000000000242,-12.074674831927209695
0.398000000000000242,-11.982988225785399905
0.399000000000000243,-11.892511986181453665
0.400000000000000244,-11.803235696527405452
0.401000000000000245,-11.715148498325993032
0.402000000000000246,-11.628239116774583550
0.403000000000000247,-11.542495885815496237
0.404000000000000248,-11.457906772623280389
0.405000000000000249,-11.374459401520789825
0.406000000000000250,-11.292141077317273457
0.407000000000000250,-11.210938808063199090
0.408000000000000251,-11.130839327217529444
0.409000000000000252,-11.051829115224620637
0.410000000000000253,-10.973894420498721658
0.411000000000000254,-10.897021279815401584
0.412000000000000255,-10.821195538109986245
0.413000000000000256,-10.746402867684228255
0.414000000000000257,-10.672628786823064928
0.415000000000000258,-10.599858677824382625
0.416000000000000258,-10.528077804445354460
0.417000000000000259,-10.457271328769550678
0.418000000000000260,-10.387424327499925170
0.419000000000000261,-10.318521807683071145
0.420000000000000262,-10.250548721871091118
0.421000000000000263,-10.183489982727618184
0.422000000000000264,-10.117330477085145546
0.423000000000000265,-10.052055079461300835
0.424000000000000266,-9.987648665042161866
0.425000000000000266,-9.924096122140765530
0.426000000000000267,-9.861382364139721801
0.427000000000000268,-9.799492340926827083
0.428000000000000269,-9.738411049832979671
0.429000000000000270,-9.678123546081897288
0.430000000000000271,-9.618614952761326720
0.431000000000000272,-9.559870470325680714
0.432000000000000273,-9.501875385640042637
0.433000000000000274,-9.444615080575843535
0.434000000000000274,-9.388075040168324392
0.435000000000000275,-9.332240860346244560
0.436000000000000276,-9.277098255244222713
0.437000000000000277,-9.222633064108048728
0.438000000000000278,-9.168831257803580215
0.439000000000000279,-9.115678944939618944
0.440000000000000280,-9.063162377615189058
0.441000000000000281,-9.011267956801690460
0.442000000000000282,-8.959982237370301306
0.443000000000000282,-8.909291932774930700
0.444000000000000283,-8.859183919400962282
0.445000000000000284,-8.809645240590066706
0.446000000000000285,-8.760663110350915161
0.447000000000000286,-8.712224916766155403
0.448000000000000287,-8.664318225105063220
0.449000000000000288,-8.616930780652030109
0.450000000000000289,-8.570050511260232540
0.451000000000000290,-8.523665529640052085
0.452000000000000290,-8.477764135391650413
0.453000000000000291,-8.432334816790783449
0.454000000000000292,-8.387366252337013606
0.455000000000000293,-8.342847312073093491
0.456000000000000294,-8.298767058684383358
0.457000000000000295,-8.255114748386729318
0.458000000000000296,-8.211879831611314629
0.459000000000000297,-8.169051953494644636
0.460000000000000298,-8.126620954181777989
0.461000000000000298,-8.084576868950598794
0.462000000000000299,-8.042909928164977629
0.463000000000000300,-8.001610557064205764
0.464000000000000301,-7.960669375396163261
0.465000000000000302,-7.920077196901385896
0.466000000000000303,-7.879825028654996899
0.467000000000000304,-7.839904070273339798
0.468000000000000305,-7.800305712992009255
0.469000000000000306,-7.761021538621699634
0.470000000000000306,-7.722043318388211119
0.471000000000000307,-7.683363011662686759
0.472000000000000308,-7.644972764588130687
0.473000000000000309,-7.606864908607882114
0.474000000000000310,-7.569031958901717871
0.475000000000000311,-7.531466612735028932
0.476000000000000312,-7.494161747726373335
0.477000000000000313,-7.457110420038458365
0.478000000000000314,-7.420305862497530214
0.479000000000000314,-7.383741482646081877
0.480000000000000315,-7.347410860733303295
0.481000000000000316,-7.311307747647987298
0.482000000000000317,-7.275426062798078242
0.483000000000000318,-7.239759891941112357
0.484000000000000319,-7.204303484969557303
0.485000000000000320,-7.169051253655021938
0.486000000000000321,-7.133997769355015173
0.487000000000000322,-7.099137760685894527
0.488000000000000322,-7.064466111165510931
0.489000000000000323,-7.029977856828890204
0.490000000000000324,-6.995668183820184183
0.491000000000000325,-6.961532425963985915
0.492000000000000326,-6.927566062318931017
0.493000000000000327,-6.893764714716562381
0.494000000000000328,-6.860124145288037489
0.495000000000000329,-6.826640253981459239
0.496000000000000330,-6.793309076072182151
0.497000000000000330,-6.760126779668650165
0.498000000000000331,-6.727089663215890525
0.499000000000000332,-6.694194152999036973
0.500000000000000333,-6.661436800648823819
0.501000000000000334,-6.628814280651106117
0.502000000000000335,-6.596323387862310206
0.503000000000000336,-6.563961035032585656
0.504000000000000337,-6.531724250338425186
0.505000000000000338,-6.499610174926298889
0.506000000000000338,-6.467616060468934336
0.507000000000000339,-6.435739266735645003
0.508000000000000340,-6.403977259178093462
0.509000000000000341,-6.372327606532847355
0.510000000000000342,-6.340787978441882800
0.511000000000000343,-6.309356143092243130
0.512000000000000344,-6.278029964875925018
0.513000000000000345,-6.246807402070996496
0.514000000000000346,-6.215686504544976287
0.515000000000000346,-6.184665411481260477
0.516000000000000347,-6.153742349129474931
0.517000000000000348,-6.122915628580608782
0.518000000000000349,-6.092183643567476103
0.519000000000000350,-6.061544868291322885
0.520000000000000351,-6.030997855275117558
0.521000000000000352,-6.000541233244095274
0.522000000000000353,-5.970173705034072853
0.523000000000000353,-5.939894045527969624
0.524000000000000354,-5.909701099621036846
0.525000000000000355,-5.879593780215050636
0.526000000000000356,-5.849571066241903594
0.527000000000000357,-5.819632000716852716
0.528000000000000358,-5.789775688821663380
0.529000000000000359,-5.760001296017899897
0.530000000000000360,-5.730308046190535798
0.531000000000000361,-5.700695219822026871
0.532000000000000361,-5.671162152196981054
0.533000000000000362,-5.641708231637506898
0.534000000000000363,-5.612332897769304552
0.535000000000000364,-5.583035639818511697
0.536000000000000365,-5.553815994939351519
0.537000000000000366,-5.524673546572524074
0.538000000000000367,-5.495607922834286008
0.539000000000000368,-5.466618794936229264
0.540000000000000369,-5.437705875635556296
0.541000000000000369,-5.408868917715849989
0.542000000000000370,-5.380107712498130468
0.543000000000000371,-5.351422088382079778
0.544000000000000372,-5.322811909417295873
0.545000000000000373,-5.294277073904351205
0.546000000000000374,-5.265817513025461416
0.547000000000000375,-5.237433189504573150
0.548000000000000376,-5.209124096296671169
0.549000000000000377,-5.180890255305988568
0.550000000000000377,-5.152731716132917583
0.551000000000000378,-5.124648554849356330
0.552000000000000379,-5.096640872802234767
0.553000000000000380,-5.068708795444880622
0.554000000000000381,-5.040852471195975681
0.555000000000000382,-5.013072070325828022
0.556000000000000383,-4.985367783869545377
0.557000000000000384,-4.957739822566936461
0.558000000000000385,-4.930188415828683723
0.559000000000000385,-4.902713810728574373
0.560000000000000386,-4.875316271021342018
0.561000000000000387,-4.847996076185884462
0.562000000000000388,-4.820753520493434863
0.563000000000000389,-4.793588912100389621
0.564000000000000390,-4.766502572165407514
0.565000000000000391,-4.739494833990434586
0.566000000000000392,-4.712566042185322601
0.567000000000000393,-4.685716551855647616
0.568000000000000393,-4.658946727813369826
0.569000000000000394,-4.632256943809996308
0.570000000000000395,-4.605647581791887823
0.571000000000000396,-4.579119031177269150
0.572000000000000397,-4.552671688154705798
0.573000000000000398,-4.526305955002552395
0.574000000000000399,-4.500022239429116944
0.575000000000000400,-4.473820953933076439
0.576000000000000401,-4.447702515183868499
0.577000000000000401,-4.421667343421654017
0.578000000000000402,-4.395715861876474229
0.579000000000000403,-4.369848496206268251
0.580000000000000404,-4.344065673953406481
0.581000000000000405,-4.318367824019338386
0.582000000000000406,-4.292755376157044722
0.583000000000000407,-4.267228760480894501
0.584000000000000408,-4.241788406993626026
0.585000000000000409,-4.216434745130028361
0.586000000000000409,-4.191168203317024776
0.587000000000000410,-4.165989208549829570
0.588000000000000411,-4.140898185983774127
0.589000000000000412,-4.115895558541560639
0.590000000000000413,-4.090981746535508279
0.591000000000000414,-4.066157167304550235
0.592000000000000415,-4.041422234865631680
0.593000000000000416,-4.016777359579130291
0.594000000000000417,-3.992222947828056867
0.595000000000000417,-3.967759401710731826
0.596000000000000418,-3.943387118746487285
0.597000000000000419,-3.919106491594310793
0.598000000000000420,-3.894917907783896460
0.599000000000000421,-3.870821749458996042
0.600000000000000422,-3.846818393132637848
0.601000000000000423,-3.822908209454018102
0.602000000000000424,-3.799091562986701920
0.603000000000000425,-3.775368811997918073
0.604000000000000425,-3.751740308258617151
0.605000000000000426,-3.728206396854040428
0.606000000000000427,-3.704767416004568936
0.607000000000000428,-3.681423696896447773
0.608000000000000429,-3.658175563522360285
