# C-amorph-2_BSAI4
# h[nm],U(h)[kJ/mol]
0.149999999999999994,93.607278880748424399
0.150999999999999995,90.958365696134350742
0.151999999999999996,88.285682536020232192
0.152999999999999997,85.646842600345536312
0.153999999999999998,83.060757079127540692
0.154999999999999999,80.529900556971369951
0.156000000000000000,78.051239309871832006
0.157000000000000001,75.620998170878891642
0.158000000000000002,73.236295935789613054
0.159000000000000002,70.895352881883454188
0.160000000000000003,68.597174650900086590
0.161000000000000004,66.341150900235177801
0.162000000000000005,64.126747930056595237
0.163000000000000006,61.953339986516866134
0.164000000000000007,59.820162023571086252
0.165000000000000008,57.726344943830213197
0.166000000000000009,55.670993078692468714
0.167000000000000010,53.653271429863401920
0.168000000000000010,51.672480621231237308
0.169000000000000011,49.728107371646231627
0.170000000000000012,47.819846206125305343
0.171000000000000013,45.947593714225718031
0.172000000000000014,44.111420105941718361
0.173000000000000015,42.311524502407884540
0.174000000000000016,40.548180785450135488
0.175000000000000017,38.821680342032827582
0.176000000000000018,37.132277033282420575
0.177000000000000018,35.480138468588464207
0.178000000000000019,33.865306371459169554
0.179000000000000020,32.287667616745011401
0.180000000000000021,30.746936476371153901
0.181000000000000022,29.242647770119226891
0.182000000000000023,27.774159987659732707
0.183000000000000024,26.340667017086474289
0.184000000000000025,24.941216861131291438
0.185000000000000026,23.574735616592089826
0.186000000000000026,22.240055004988050769
0.187000000000000027,20.935941843666860507
0.188000000000000028,19.661128009753859658
0.189000000000000029,18.414339651246788065
0.190000000000000030,17.194324620957239347
0.191000000000000031,15.999877334562537357
0.192000000000000032,14.829860472126608073
0.193000000000000033,13.683223144731911702
0.194000000000000034,12.559015328819736368
0.195000000000000034,11.456398527274121335
0.196000000000000035,10.374652746889816868
0.197000000000000036,9.313179986754430928
0.198000000000000037,8.271504512424005640
0.199000000000000038,7.249270248489625423
0.200000000000000039,6.246235659594601586
0.201000000000000040,5.262266509789328417
0.202000000000000041,4.297326895008692915
0.203000000000000042,3.351468936083060068
0.204000000000000042,2.424821502565650100
0.205000000000000043,1.517578313100503173
0.206000000000000044,0.629985728143793722
0.207000000000000045,-0.237669482582146235
0.208000000000000046,-1.085072150917319345
0.209000000000000047,-1.911890288434154872
0.210000000000000048,-2.717786056634207803
0.211000000000000049,-3.502425988215730257
0.212000000000000050,-4.265490350906691042
0.213000000000000050,-5.006681575423172603
0.214000000000000051,-5.725731696483197908
0.215000000000000052,-6.422408780288643371
0.216000000000000053,-7.096522333406606542
0.217000000000000054,-7.747927706544381010
0.218000000000000055,-8.376529522397920147
0.219000000000000056,-8.982284169692793085
0.220000000000000057,-9.565201415905070448
0.221000000000000058,-10.125345199138141794
0.222000000000000058,-10.662833665466465050
0.223000000000000059,-11.177838521952759621
0.224000000000000060,-11.670583777734648834
0.225000000000000061,-12.141343946279224753
0.226000000000000062,-12.590441781333646887
0.227000000000000063,-13.018245617460911134
0.228000000000000064,-13.425166383529628433
0.229000000000000065,-13.811654354302296710
0.230000000000000066,-14.178195701492450453
0.231000000000000066,-14.525308901483930057
0.232000000000000067,-14.853541052447871706
0.233000000000000068,-15.163464148967609191
0.234000000000000069,-15.455671357583113945
0.235000000000000070,-15.730773331976664053
0.236000000000000071,-15.989394601907727989
0.237000000000000072,-16.232170065525657776
0.238000000000000073,-16.459741610386693367
0.239000000000000073,-16.672754884413215848
0.240000000000000074,-16.871856234186758172
0.241000000000000075,-17.057689824376886634
0.242000000000000076,-17.230894948791434018
0.243000000000000077,-17.392103540494133540
0.244000000000000078,-17.541937885675540798
0.245000000000000079,-17.681008543478679229
0.246000000000000080,-17.809912471766715214
0.247000000000000081,-17.929231356867109781
0.248000000000000081,-18.039530143623121461
0.249000000000000082,-18.141355760617070558
0.250000000000000111,-18.235236034186890208
0.251000000000000112,-18.321678783821276681
0.252000000000000113,-18.401171090677564735
0.253000000000000114,-18.474178730299151141
0.254000000000000115,-18.541145760107522023
0.255000000000000115,-18.602494251884991172
0.256000000000000116,-18.658624159239693086
0.257000000000000117,-18.709913309935721770
0.258000000000000118,-18.756717512966321948
0.259000000000000119,-18.799370770334626002
0.260000000000000120,-18.838185583671247514
0.261000000000000121,-18.873453346049430479
0.262000000000000122,-18.905444809648130899
0.263000000000000123,-18.934410620248289803
0.264000000000000123,-18.960581909922211707
0.265000000000000124,-18.984170939679501089
0.266000000000000125,-19.005371784259985191
0.267000000000000126,-19.024361051706680570
0.268000000000000127,-19.041298630805364667
0.269000000000000128,-19.056328459935325981
0.270000000000000129,-19.069579311334834415
0.271000000000000130,-19.081165585240160709
0.272000000000000131,-19.091188108805837942
0.273000000000000131,-19.099734935152401505
0.274000000000000132,-19.106882138314311703
0.275000000000000133,-19.112694600273755441
0.276000000000000134,-19.117226786661731808
0.277000000000000135,-19.120523508087682529
0.278000000000000136,-19.122620664419969216
0.279000000000000137,-19.123545969681675416
0.280000000000000138,-19.123319655549501306
0.281000000000000139,-19.121955151746735879
0.282000000000000139,-19.119459741905519223
0.283000000000000140,-19.115835193737819253
0.284000000000000141,-19.111078362600007807
0.285000000000000142,-19.105181767762374534
0.286000000000000143,-19.098134140903184175
0.287000000000000144,-19.089920946537120017
0.288000000000000145,-19.080524874261769241
0.289000000000000146,-19.069926302862274525
0.290000000000000147,-19.058103736456040167
0.291000000000000147,-19.045034212985406441
0.292000000000000148,-19.030693685478922816
0.293000000000000149,-19.015057376600459804
0.294000000000000150,-18.998100107092049882
0.295000000000000151,-18.979796598791065065
0.296000000000000152,-18.960121752965953590
0.297000000000000153,-18.939050904768642170
0.298000000000000154,-18.916560054645408684
0.299000000000000155,-18.892626077583958732
0.300000000000000155,-18.867226911101436571
0.301000000000000156,-18.840341722898489962
0.302000000000000157,-18.811951059117671292
0.303000000000000158,-18.782036974152021003
0.304000000000000159,-18.750583142951398941
0.305000000000000160,-18.717574956770935302
0.306000000000000161,-18.682999603298696911
0.307000000000000162,-18.646846132088167991
0.308000000000000163,-18.609105506206212510
0.309000000000000163,-18.569770640989304411
0.310000000000000164,-18.528836430780557976
0.311000000000000165,-18.486299764496873621
0.312000000000000166,-18.442159530851430560
0.313000000000000167,-18.396416614030037806
0.314000000000000168,-18.349073880592719377
0.315000000000000169,-18.300136158343025983
0.316000000000000170,-18.249610207878721013
0.317000000000000171,-18.197504687507269239
0.318000000000000171,-18.143830112179365699
0.319000000000000172,-18.088598807063881679
0.320000000000000173,-18.031824856356575282
0.321000000000000174,-17.973524047885227617
0.322000000000000175,-17.913713814043802586
0.323000000000000176,-17.852413169558609241
0.324000000000000177,-17.789642646560693606
0.325000000000000178,-17.725424227409835254
0.326000000000000179,-17.659781275688310131
0.327000000000000179,-17.592738465755004995
0.328000000000000180,-17.524321711224427389
0.329000000000000181,-17.454558092710030337
0.330000000000000182,-17.383475785145854786
0.331000000000000183,-17.311103984977826542
0.332000000000000184,-17.237472837492383348
0.333000000000000185,-17.162613364528766624
0.334000000000000186,-17.086557392800195032
0.335000000000000187,-17.009337483029021598
0.336000000000000187,-16.930986860082239076
0.337000000000000188,-16.851539344275067833
0.338000000000000189,-16.771029283993534875
0.339000000000000190,-16.689491489770553301
0.340000000000000191,-16.606961169934123745
0.341000000000000192,-16.523473867932562342
0.342000000000000193,-16.439065401426862678
0.343000000000000194,-16.353771803228458026
0.344000000000000195,-16.267629264147529966
0.345000000000000195,-16.180674077806642686
0.346000000000000196,-16.092942587463063830
0.347000000000000197,-16.004471134873845983
0.348000000000000198,-15.915296011228326378
0.349000000000000199,-15.825453410164239898
0.350000000000000200,-15.734979382875943443
0.351000000000000201,-15.643909795315730449
0.352000000000000202,-15.552280287482853183
0.353000000000000203,-15.460126234788656774
0.354000000000000203,-15.367482711480715096
0.355000000000000204,-15.274384456103621943
0.356000000000000205,-15.180865838969911152
0.357000000000000206,-15.086960831610202405
0.358000000000000207,-14.992702978167818273
0.359000000000000208,-14.898125368700311455
0.360000000000000209,-14.803260614347106383
0.361000000000000210,-14.708140824319912099
0.362000000000000210,-14.612797584670550677
0.363000000000000211,-14.517261938788843523
0.364000000000000212,-14.421564369581606257
0.365000000000000213,-14.325734783282513263
0.366000000000000214,-14.229802494841560900
0.367000000000000215,-14.133796214841940042
0.368000000000000216,-14.037744037891666693
0.369000000000000217,-13.941673432436781255
0.370000000000000218,-13.845611231942854147
0.371000000000000218,-13.749583627391382734
0.372000000000000219,-13.653616161037794186
0.373000000000000220,-13.557733721378173897
0.374000000000000221,-13.461960539272103787
0.375000000000000222,-13.366320185169485057
0.376000000000000223,-13.270835567389989151
0.377000000000000224,-13.175528931404409505
0.378000000000000225,-13.080421860068025097
0.379000000000000226,-12.985535274756893287
0.380000000000000226,-12.890889437359183134
0.381000000000000227,-12.796503953074351401
0.382000000000000228,-12.702397773974302808
0.383000000000000229,-12.608589203281701074
0.384000000000000230,-12.515095900321624001
0.385000000000000231,-12.421934886104271101
0.386000000000000232,-12.329122549497173011
0.387000000000000233,-12.236674653947080316
0.388000000000000234,-12.144606344712499890
0.389000000000000234,-12.052932156569564626
0.390000000000000235,-11.961666021954631134
0.391000000000000236,-11.870821279508875890
0.392000000000000237,-11.780410682990865467
0.393000000000000238,-11.690446410524772958
0.394000000000000239,-11.600940074152820358
0.395000000000000240,-11.511902729661972700
0.396000000000000241,-11.423344886656151331
0.397000000000000242,-11.335276518846129079
0.398000000000000242,-11.247707074531012594
0.399000000000000243,-11.160645487245799856
0.400000000000000244,-11.074100186550975167
0.401000000000000245,-10.988079108941322559
0.402000000000000246,-10.902589708851897043
0.403000000000000247,-10.817638969740405841
0.404000000000000248,-10.733233415226374419
0.405000000000000249,-10.649379120268251953
0.406000000000000250,-10.566081722360774364
0.407000000000000250,-10.483346432735892506
0.408000000000000251,-10.401178047551374206
0.409000000000000252,-10.319580959052299107
0.410000000000000253,-10.238559166691315383
0.411000000000000254,-10.158116288194641186
0.412000000000000255,-10.078255570561397647
0.413000000000000256,-9.998979900984846125
0.414000000000000257,-9.920291817684683267
0.415000000000000258,-9.842193520640527993
0.416000000000000258,-9.764686882217201713
0.417000000000000259,-9.687773457673278799
0.418000000000000260,-9.611454495545032728
0.419000000000000261,-9.535730947898308330
0.420000000000000262,-9.460603480441877267
0.421000000000000263,-9.386072482496050640
0.422000000000000264,-9.312138076811004694
0.423000000000000265,-9.238800129229860048
0.424000000000000266,-9.166058258192089525
0.425000000000000266,-9.093911844073144124
0.426000000000000267,-9.022360038356840306
0.427000000000000268,-8.951401772637378684
0.428000000000000269,-8.881035767448377527
0.429000000000000270,-8.811260540916617146
0.430000000000000271,-8.742074417238585582
0.431000000000000272,-8.673475534978361878
0.432000000000000273,-8.605461855185572162
0.433000000000000274,-8.538031169332658266
0.434000000000000274,-8.471181107070737681
0.435000000000000275,-8.404909143803951821
0.436000000000000276,-8.339212608082203104
0.437000000000000277,-8.274088688812508252
0.438000000000000278,-8.209534442289495360
0.439000000000000279,-8.145546799045815689
0.440000000000000280,-8.082122570523216254
0.441000000000000281,-8.019258455565537957
0.442000000000000282,-7.956951046734905830
0.443000000000000282,-7.895196836452474720
0.444000000000000283,-7.833992222965474816
0.445000000000000284,-7.773333516142270305
0.446000000000000285,-7.713216943097224387
0.447000000000000286,-7.653638653647611534
0.448000000000000287,-7.594594725604446595
0.449000000000000288,-7.536081169899685683
0.450000000000000289,-7.478093935551956228
0.451000000000000290,-7.420628914473303084
0.452000000000000290,-7.363681946119447375
0.453000000000000291,-7.307248821986033427
0.454000000000000292,-7.251325289953555853
0.455000000000000293,-7.195907058483558494
0.456000000000000294,-7.140989800668855025
0.457000000000000295,-7.086569158140503255
0.458000000000000296,-7.032640744834280255
0.459000000000000297,-6.979200150619557341
0.460000000000000298,-6.926242944793237655
0.461000000000000298,-6.873764679441765502
0.462000000000000299,-6.821760892673964349
0.463000000000000300,-6.770227111727559866
0.464000000000000301,-6.719158855952287013
0.465000000000000302,-6.668551639672424258
0.466000000000000303,-6.618400974931596181
0.467000000000000304,-6.568702374122679544
0.468000000000000305,-6.519451352505678976
0.469000000000000306,-6.470643430616317637
0.470000000000000306,-6.422274136568253411
0.471000000000000307,-6.374339008251512340
0.472000000000000308,-6.326833595430101376
0.473000000000000309,-6.279753461741332643
0.474000000000000310,-6.233094186599670294
0.475000000000000311,-6.186851367007692559
0.476000000000000312,-6.141020619276904569
0.477000000000000313,-6.095597580660819581
0.478000000000000314,-6.050577910903045975
0.479000000000000314,-6.005957293702824273
0.480000000000000315,-5.961731438100466463
0.481000000000000316,-5.917896079785249341
0.482000000000000317,-5.874446982328047184
0.483000000000000318,-5.831379938341170188
0.484000000000000319,-5.788690770567647803
0.485000000000000320,-5.746375332902348809
0.486000000000000321,-5.704429511347060000
0.487000000000000322,-5.662849224901798095
0.488000000000000322,-5.621630426394465196
0.489000000000000323,-5.580769103251010499
0.490000000000000324,-5.540261278208113538
0.491000000000000325,-5.500103009970442436
0.492000000000000326,-5.460290393814418053
0.493000000000000327,-5.420819562140522407
0.494000000000000328,-5.381686684975898416
0.495000000000000329,-5.342887970429229583
0.496000000000000330,-5.304419665099591619
0.497000000000000330,-5.266278054441119849
0.498000000000000331,-5.228459463085130210
0.499000000000000332,-5.190960255121462197
0.500000000000000333,-5.153776834340578539
0.501000000000000334,-5.116905644438089595
0.502000000000000335,-5.080343169183190177
0.503000000000000336,-5.044085932552585305
0.504000000000000337,-5.008130498831294908
0.505000000000000338,-4.972473472681820716
0.506000000000000338,-4.937111499183054697
0.507000000000000339,-4.902041263840233754
0.508000000000000340,-4.867259492567313828
0.509000000000000341,-4.832762951643005955
0.510000000000000342,-4.798548447641691972
0.511000000000000343,-4.764612827340455325
0.512000000000000344,-4.730952977603349652
0.513000000000000345,-4.697565825244060633
0.514000000000000346,-4.664448336868069589
0.515000000000000346,-4.631597518695313553
0.516000000000000347,-4.599010416364418319
0.517000000000000348,-4.566684114719529397
0.518000000000000349,-4.534615737580567796
0.519000000000000350,-4.502802447498013727
0.520000000000000351,-4.471241445492976752
0.521000000000000352,-4.439929970783500046
0.522000000000000353,-4.408865300497903483
0.523000000000000353,-4.378044749375958666
0.524000000000000354,-4.347465669458751236
0.525000000000000355,-4.317125449767880596
0.526000000000000356,-4.287021515974796415
0.527000000000000357,-4.257151330060990446
0.528000000000000358,-4.227512389969605877
0.529000000000000359,-4.198102229249260908
0.530000000000000360,-4.168918416690599926
0.531000000000000361,-4.139958555956236630
0.532000000000000361,-4.111220285204644220
0.533000000000000362,-4.082701276708551319
0.534000000000000363,-4.054399236468384515
0.535000000000000364,-4.026311903821266469
0.536000000000000365,-3.998437051046064283
0.537000000000000366,-3.970772482964969097
0.538000000000000367,-3.943316036542026559
0.539000000000000368,-3.916065580479131114
0.540000000000000369,-3.889019014809777186
0.541000000000000369,-3.862174270491097072
0.542000000000000370,-3.835529308994479525
0.543000000000000371,-3.809082121895134954
0.544000000000000372,-3.782830730461032687
0.545000000000000373,-3.756773185241438995
0.546000000000000374,-3.730907565655440461
0.547000000000000375,-3.705231979580715151
0.548000000000000376,-3.679744562942889985
0.549000000000000377,-3.654443479305702791
0.550000000000000377,-3.629326919462234180
0.551000000000000378,-3.604393101027499657
0.552000000000000379,-3.579640268032586725
0.553000000000000380,-3.555066690520594985
0.554000000000000381,-3.530670664144532900
0.555000000000000382,-3.506450509767476742
0.556000000000000383,-3.482404573065017495
0.557000000000000384,-3.458531224130356296
0.558000000000000385,-3.434828857082052878
0.559000000000000385,-3.411295889674685888
0.560000000000000386,-3.387930762912528593
0.561000000000000387,-3.364731940666383814
0.562000000000000388,-3.341697909293719793
0.563000000000000389,-3.318827177262193118
0.564000000000000390,-3.296118274776715484
0.565000000000000391,-3.273569753410124683
0.566000000000000392,-3.251180185737594819
0.567000000000000393,-3.228948164974840829
0.568000000000000393,-3.206872304620215886
0.569000000000000394,-3.184951238100763860
0.570000000000000395,-3.163183618422332533
0.571000000000000396,-3.141568117823735573
0.572000000000000397,-3.120103427435108490
0.573000000000000398,-3.098788256940431474
0.574000000000000399,-3.077621334244318163
0.575000000000000400,-3.056601405143067218
0.576000000000000401,-3.035727233000036662
0.577000000000000401,-3.014997598425382286
0.578000000000000402,-2.994411298960142354
0.579000000000000403,-2.973967148764710355
0.580000000000000404,-2.953663978311742433
0.581000000000000405,-2.933500634083460401
0.582000000000000406,-2.913475978273374345
0.583000000000000407,-2.893588888492458100
0.584000000000000408,-2.873838257479738978
0.585000000000000409,-2.854222992817318616
0.586000000000000409,-2.834742016649811180
0.587000000000000410,-2.815394265408215801
0.588000000000000411,-2.796178689538157069
0.589000000000000412,-2.777094253232553100
0.590000000000000413,-2.758139934168610363
0.591000000000000414,-2.739314723249202110
0.592000000000000415,-2.720617624348567354
0.593000000000000416,-2.702047654062309068
0.594000000000000417,-2.683603841461662753
0.595000000000000417,-2.665285227852064232
0.596000000000000418,-2.647090866535854126
0.597000000000000419,-2.629019822579267363
0.598000000000000420,-2.611071172583504740
0.599000000000000421,-2.593244004459968721
0.600000000000000422,-2.575537417209571522
0.601000000000000423,-2.557950520706095965
0.602000000000000424,-2.540482435483559787
0.603000000000000425,-2.523132292527566545
0.604000000000000425,-2.505899233070570276
0.605000000000000426,-2.488782408391034373
0.606000000000000427,-2.471780979616458040
0.607000000000000428,-2.454894117530154851
0.608000000000000429,-2.438121002381859359
