# C-amorph-2_TYR-AC
# h[nm],U(h)[kJ/mol]
0.149999999999999994,118.931160643230484197
0.150999999999999995,116.172824735851534683
0.151999999999999996,112.835141355947186526
0.152999999999999997,109.446343036623574108
0.153999999999999998,106.191160700322740240
0.154999999999999999,103.095837122548431353
0.156000000000000000,100.126876574278554699
0.157000000000000001,97.239451619410175454
0.158000000000000002,94.397709849054749043
0.159000000000000002,91.580396683579195383
0.160000000000000003,88.779608729804991185
0.161000000000000004,85.997010551751117191
0.162000000000000005,83.239741178657041587
0.163000000000000006,80.517007560319754589
0.164000000000000007,77.837681528348042548
0.165000000000000008,75.208869968201057077
0.166000000000000009,72.635276958507304812
0.167000000000000010,70.119134750818815860
0.168000000000000010,67.660494344472652983
0.169000000000000011,65.257704468430674183
0.170000000000000012,62.907952220531434762
0.171000000000000013,60.607780196596380051
0.172000000000000014,58.353529566547038598
0.173000000000000015,56.141685064474508238
0.174000000000000016,53.969116662826763786
0.175000000000000017,51.833224932575738819
0.176000000000000018,49.732004122403473900
0.177000000000000018,47.664040158584086271
0.178000000000000019,45.628461246474756763
0.179000000000000020,43.624857502841720702
0.180000000000000021,41.653183806085493757
0.181000000000000022,39.713657361772511933
0.182000000000000023,37.806658720260223561
0.183000000000000024,35.932642395000996771
0.184000000000000025,34.092060955966864810
0.185000000000000026,32.285304579775932154
0.186000000000000026,30.512656541898309115
0.187000000000000027,28.774264018179270153
0.188000000000000028,27.070122783865734561
0.189000000000000029,25.400073909007385708
0.190000000000000030,23.763810296802965638
0.191000000000000031,22.160890844786127474
0.192000000000000032,20.590760080538970556
0.193000000000000033,19.052771292563232208
0.194000000000000034,17.546211408215619088
0.195000000000000034,16.070326135919380306
0.196000000000000035,14.624344166045606386
0.197000000000000036,13.207499497268765154
0.198000000000000037,11.819051210967595367
0.199000000000000038,10.458300247491271406
0.200000000000000039,9.124602940214563418
0.201000000000000040,7.817381234189331174
0.202000000000000041,6.536129655732954014
0.203000000000000042,5.280419208758438288
0.204000000000000042,4.049898455294830057
0.205000000000000043,2.844292094338192634
0.206000000000000044,1.663397388095228191
0.207000000000000045,0.507078801136055524
0.208000000000000046,-0.624738780805952798
0.209000000000000047,-1.732077896591633914
0.210000000000000048,-2.814917084484128473
0.211000000000000049,-3.873199877612533815
0.212000000000000050,-4.906843943430186705
0.213000000000000050,-5.915750124973541801
0.214000000000000051,-6.899811177364665760
0.215000000000000052,-7.858920028525385071
0.216000000000000053,-8.792977427480021646
0.217000000000000054,-9.701898876149304130
0.218000000000000055,-10.585620770627468090
0.219000000000000056,-11.444105705212098911
0.220000000000000057,-12.277346916710945024
0.221000000000000058,-13.085371867676874658
0.222000000000000058,-13.868244985248683321
0.223000000000000059,-14.626069587274887596
0.224000000000000060,-15.358989039534808541
0.225000000000000061,-16.067187197334156679
0.226000000000000062,-16.750888191769323754
0.227000000000000063,-17.410355625767987675
0.228000000000000064,-18.045891247873406371
0.229000000000000065,-18.657833172900364360
0.230000000000000066,-19.246553718291288249
0.231000000000000066,-19.812456923482223203
0.232000000000000067,-20.355975817063558964
0.233000000000000068,-20.877569493197309924
0.234000000000000069,-21.377720054813678985
0.235000000000000070,-21.856929476720786454
0.236000000000000071,-22.315716437070623357
0.237000000000000072,-22.754613160759809887
0.238000000000000073,-23.174162313415557435
0.239000000000000073,-23.574913979717941004
0.240000000000000074,-23.957422755021422489
0.241000000000000075,-24.322244974617884594
0.242000000000000076,-24.669936100586575378
0.243000000000000077,-25.001048282038500048
0.244000000000000078,-25.316128100712262494
0.245000000000000079,-25.615714510334079534
0.246000000000000080,-25.900336974926915445
0.247000000000000081,-26.170513808347731555
0.248000000000000081,-26.426750714743274528
0.249000000000000082,-26.669539527339800600
0.250000000000000111,-26.899357141009012651
0.251000000000000112,-27.116664632367168508
0.252000000000000113,-27.321906559754456367
0.253000000000000114,-27.515510434283573460
0.254000000000000115,-27.697886352230153051
0.255000000000000115,-27.869426778335423478
0.256000000000000116,-28.030506469090681776
0.257000000000000117,-28.181482524750219198
0.258000000000000118,-28.322694558656998254
0.259000000000000119,-28.454464972444998949
0.260000000000000120,-28.577099325786548434
0.261000000000000121,-28.690886789563251114
0.262000000000000122,-28.796100671642751223
0.263000000000000123,-28.892999004822662812
0.264000000000000123,-28.981825186945819439
0.265000000000000124,-29.062808663684187138
0.266000000000000125,-29.136165645021044668
0.267000000000000126,-29.202099847021713686
0.268000000000000127,-29.260803251063691732
0.269000000000000128,-29.312456873287896286
0.270000000000000129,-29.357231537627814788
0.271000000000000130,-29.395288646365610674
0.272000000000000131,-29.426780942748496983
0.273000000000000131,-29.451853260769034648
0.274000000000000132,-29.470643257768074363
0.275000000000000133,-29.483282126052301919
0.276000000000000134,-29.489895280230051355
0.277000000000000135,-29.490603017454354529
0.278000000000000136,-29.485521148222993304
0.279000000000000137,-29.474761595816325155
0.280000000000000138,-29.458432962857898474
0.281000000000000139,-29.436641063858001388
0.282000000000000139,-29.409489422946318626
0.283000000000000140,-29.377079736318286507
0.284000000000000141,-29.339512299209264512
0.285000000000000142,-29.296886397473951291
0.286000000000000143,-29.249300664084394441
0.287000000000000144,-29.196853401070832490
0.288000000000000145,-29.139642867616551314
0.289000000000000146,-29.077767535180623071
0.290000000000000147,-29.011326310664323103
0.291000000000000147,-28.940418728757187239
0.292000000000000148,-28.865145114700329287
0.293000000000000149,-28.785606718787317249
0.294000000000000150,-28.701905823989456223
0.295000000000000151,-28.614145828143144001
0.296000000000000152,-28.522431302173060885
0.297000000000000153,-28.426868025848914812
0.298000000000000154,-28.327563002584447815
0.299000000000000155,-28.224624454788710182
0.300000000000000155,-28.118161801270684208
0.301000000000000156,-28.008285618180639887
0.302000000000000157,-27.895107584947197665
0.303000000000000158,-27.778740416637003108
0.304000000000000159,-27.659297784126813724
0.305000000000000160,-27.536894223435108842
0.306000000000000161,-27.411645035514233371
0.307000000000000162,-27.283666177753662652
0.308000000000000163,-27.153074148392541076
0.309000000000000163,-27.019985864984125357
0.310000000000000164,-26.884518537998832954
0.311000000000000165,-26.746789540593773893
0.312000000000000166,-26.606916275519303383
0.313000000000000167,-26.465016040073361836
0.314000000000000168,-26.321205889956388546
0.315000000000000169,-26.175602502820886741
0.316000000000000170,-26.028322042252813873
0.317000000000000171,-25.879480022864935762
0.318000000000000171,-25.729191177127283652
0.319000000000000172,-25.577569324506097104
0.320000000000000173,-25.424727243430183421
0.321000000000000174,-25.270776546553111785
0.322000000000000175,-25.115827559731144447
0.323000000000000176,-24.959989205089847530
0.324000000000000177,-24.803368888507531409
0.325000000000000178,-24.646072391801105539
0.326000000000000179,-24.488203769859243408
0.327000000000000179,-24.329865252929135266
0.328000000000000180,-24.171157154226733610
0.329000000000000181,-24.012177783006386278
0.330000000000000182,-23.853023363192811246
0.331000000000000183,-23.693787957649281140
0.332000000000000184,-23.534563398126707057
0.333000000000000185,-23.375439220912870297
0.334000000000000186,-23.216502608176774913
0.335000000000000187,-23.057838334980296224
0.336000000000000187,-22.899528721909653939
0.337000000000000188,-22.741653593259592014
0.338000000000000189,-22.584290240686858198
0.339000000000000190,-22.427513392233883849
0.340000000000000191,-22.271395186609332484
0.341000000000000192,-22.116005152600919814
0.342000000000000193,-21.961410193483448694
0.343000000000000194,-21.807674576276887990
0.344000000000000195,-21.654859925699902590
0.345000000000000195,-21.503025222657729643
0.346000000000000196,-21.352226807097075323
0.347000000000000197,-21.202518385055803662
0.348000000000000198,-21.053951039731352068
0.349000000000000199,-20.906573246388560960
0.350000000000000200,-20.760430890925906766
0.351000000000000201,-20.615567291917304971
0.352000000000000202,-20.472023225946422542
0.353000000000000203,-20.329836956050463925
0.354000000000000203,-20.189044263090998754
0.355000000000000204,-20.049678479870848946
0.356000000000000205,-19.911770527817971299
0.357000000000000206,-19.775348956059378480
0.358000000000000207,-19.640439982711008327
0.359000000000000208,-19.507067538212659485
0.360000000000000209,-19.375253310540585971
0.361000000000000210,-19.245016792133931460
0.362000000000000210,-19.116375328375603715
0.363000000000000211,-18.989344167472172131
0.364000000000000212,-18.863936511582053868
0.365000000000000213,-18.740163569045868996
0.366000000000000214,-18.618034607577673256
0.367000000000000215,-18.497557008280576696
0.368000000000000216,-18.378736320355592682
0.369000000000000217,-18.261576316377126972
0.370000000000000218,-18.146079048014250645
0.371000000000000218,-18.032244902081369986
0.372000000000000219,-17.920072656807668920
0.373000000000000220,-17.809559538219438934
0.374000000000000221,-17.700701276534601902
0.375000000000000222,-17.593492162473886253
0.376000000000000223,-17.487925103397973459
0.377000000000000224,-17.383991679185015755
0.378000000000000225,-17.281682197767700870
0.379000000000000226,-17.180985750253658040
0.380000000000000226,-17.081890265558200781
0.381000000000000227,-16.984382564482210398
0.382000000000000228,-16.888448413173033913
0.383000000000000229,-16.794072575910540479
0.384000000000000230,-16.701238867164217794
0.385000000000000231,-16.609930202872117633
0.386000000000000232,-16.520128650895678390
0.387000000000000233,-16.431815480608754854
0.388000000000000234,-16.344971211582759452
0.389000000000000234,-16.259575661333531826
0.390000000000000235,-16.175607992098708365
0.391000000000000236,-16.093046756618200277
0.392000000000000237,-16.011869942892978713
0.393000000000000238,-15.932055017901086913
0.394000000000000239,-15.853578970252030444
0.395000000000000240,-15.776418351764203152
0.396000000000000241,-15.700549317952077644
0.397000000000000242,-15.625947667412845021
0.398000000000000242,-15.552588880104462277
0.399000000000000243,-15.480448154509307557
0.400000000000000244,-15.409500443679885251
0.401000000000000245,-15.339720490165268174
0.402000000000000246,-15.271082859818486455
0.403000000000000247,-15.203561974487314501
0.404000000000000248,-15.137132143592470612
0.405000000000000249,-15.071767594598844298
0.406000000000000250,-15.007442502386918903
0.407000000000000250,-14.944131017533029748
0.408000000000000251,-14.881807293508240164
0.409000000000000252,-14.820445512807179256
0.410000000000000253,-14.760019912018867316
0.411000000000000254,-14.700504805853086054
0.412000000000000255,-14.641874610136412116
0.413000000000000256,-14.584103863793263400
0.414000000000000257,-14.527167249827712681
0.415000000000000258,-14.471039615323135763
0.416000000000000258,-14.415695990476706356
0.417000000000000259,-14.361111606687037678
0.418000000000000260,-14.307261913713336554
0.419000000000000261,-14.254122595925005967
0.420000000000000262,-14.201669587661262639
0.421000000000000263,-14.149879087720474757
0.422000000000000264,-14.098727572999049329
0.423000000000000265,-14.048191811300469567
0.424000000000000266,-13.998248873334876663
0.425000000000000266,-13.948876143929741289
0.426000000000000267,-13.900051332472520116
0.427000000000000268,-13.851752482606112693
0.428000000000000269,-13.803957981197939375
0.429000000000000270,-13.756646566603507154
0.430000000000000271,-13.709797336245395982
0.431000000000000272,-13.663389753528292658
0.432000000000000273,-13.617403654110773914
0.433000000000000274,-13.571819251554449792
0.434000000000000274,-13.526617142370739089
0.435000000000000275,-13.481778310485537986
0.436000000000000276,-13.437284131141836951
0.437000000000000277,-13.393116374259928847
0.438000000000000278,-13.349257207274945358
0.439000000000000279,-13.305689197470886853
0.440000000000000280,-13.262395313830216637
0.441000000000000281,-13.219358928417767274
0.442000000000000282,-13.176563817317404670
0.443000000000000282,-13.133994161139529666
0.444000000000000283,-13.091634545117344146
0.445000000000000284,-13.049469958809263304
0.446000000000000285,-13.007485795424605257
0.447000000000000286,-12.965667850789523996
0.448000000000000287,-12.924002321969405571
0.449000000000000288,-12.882475805564016724
0.450000000000000289,-12.841075295691036118
0.451000000000000290,-12.799788181673360299
0.452000000000000290,-12.758602245445199941
0.453000000000000291,-12.717505658691587556
0.454000000000000292,-12.676486979735603455
0.455000000000000293,-12.635535150187134690
0.456000000000000294,-12.594639491366779183
0.457000000000000295,-12.553789700518013461
0.458000000000000296,-12.512975846820355130
0.459000000000000297,-12.472188367216135774
0.460000000000000298,-12.431418062062643770
0.461000000000000298,-12.390656090621636309
0.462000000000000299,-12.349893966397370804
0.463000000000000300,-12.309123552334172658
0.464000000000000301,-12.268337055884238396
0.465000000000000302,-12.227527023955913066
0.466000000000000303,-12.186686337752361098
0.467000000000000304,-12.145808207510309984
0.468000000000000305,-12.104886167148068310
0.469000000000000306,-12.063914068831799398
0.470000000000000306,-12.022886077468736943
0.471000000000000307,-11.981796665135430402
0.472000000000000308,-11.940640605449386769
0.473000000000000309,-11.899412967891400683
0.474000000000000310,-11.858109112086227199
0.475000000000000311,-11.816724682048608486
0.476000000000000312,-11.775255600401502321
0.477000000000000313,-11.733698062572939236
0.478000000000000314,-11.692048530977899645
0.479000000000000314,-11.650303729191122670
0.480000000000000315,-11.608460636116525677
0.481000000000000316,-11.566516480158862024
0.482000000000000317,-11.524468733402624565
0.483000000000000318,-11.482315105803314381
0.484000000000000319,-11.440053539395778515
0.485000000000000320,-11.397682202524084261
0.486000000000000321,-11.355199484097282081
0.487000000000000322,-11.312603987875030853
0.488000000000000322,-11.269894526786977451
0.489000000000000323,-11.227070117289567719
0.490000000000000324,-11.184129973763692334
0.491000000000000325,-11.141073502956409413
0.492000000000000326,-11.097900298469790314
0.493000000000000327,-11.054610135299865803
0.494000000000000328,-11.011202964428223439
0.495000000000000329,-10.967678907468906502
0.496000000000000330,-10.924038251372888197
0.497000000000000330,-10.880281443192458823
0.498000000000000331,-10.836409084907339562
0.499000000000000332,-10.792421928314711366
0.500000000000000333,-10.748320869984672399
0.501000000000000334,-10.704106946282884394
0.502000000000000335,-10.659781328461779282
0.503000000000000336,-10.615345317821830662
0.504000000000000337,-10.570800340943954154
0.505000000000000338,-10.526147944994219685
0.506000000000000338,-10.481389793101905994
0.507000000000000339,-10.436527659811698499
0.508000000000000340,-10.391563426610847642
0.509000000000000341,-10.346499077532000044
0.510000000000000342,-10.301336694832190943
0.511000000000000343,-10.256078454748553952
0.512000000000000344,-10.210726623331094487
0.513000000000000345,-10.165283552352851970
0.514000000000000346,-10.119751675297735005
0.515000000000000346,-10.074133503426025982
0.516000000000000347,-10.028431621917752281
0.517000000000000348,-9.982648686093970269
0.518000000000000349,-9.936787417715651216
0.519000000000000350,-9.890850601360339667
0.520000000000000351,-9.844841080876189920
0.521000000000000352,-9.798761755913186988
0.522000000000000353,-9.752615578531266038
0.523000000000000353,-9.706405549884882689
0.524000000000000354,-9.660134716983801439
0.525000000000000355,-9.613806169529414802
0.526000000000000356,-9.567423036826259164
0.527000000000000357,-9.520988484768157178
0.528000000000000358,-9.474505712898313448
0.529000000000000359,-9.427977951542860779
0.530000000000000360,-9.381408459017116286
0.531000000000000361,-9.334800518903902500
0.532000000000000361,-9.288157437403221195
0.533000000000000362,-9.241482540752473440
0.534000000000000363,-9.194779172716552651
0.535000000000000364,-9.148050692146904694
0.536000000000000365,-9.101300470608824966
0.537000000000000366,-9.054531890076123801
0.538000000000000367,-9.007748340692224076
0.539000000000000368,-8.960953218596994674
0.540000000000000369,-8.914149923818211363
0.541000000000000369,-8.867341858226916784
0.542000000000000370,-8.820532423555647483
0.543000000000000371,-8.773725019478655796
0.544000000000000372,-8.726923041753153143
0.545000000000000373,-8.680129880420663468
0.546000000000000374,-8.633348918067470734
0.547000000000000375,-8.586583528143231447
0.548000000000000376,-8.539837073336837392
0.549000000000000377,-8.493112904008452091
0.550000000000000377,-8.446414356676774204
0.551000000000000378,-8.399744752560625471
0.552000000000000379,-8.353107396173793830
0.553000000000000380,-8.306505573972184919
0.554000000000000381,-8.259942553052290748
0.555000000000000382,-8.213421579900073155
0.556000000000000383,-8.166945879189102087
0.557000000000000384,-8.120518652627231049
0.558000000000000385,-8.074143077850589378
0.559000000000000385,-8.027822307364118615
0.560000000000000386,-7.981559467527548080
0.561000000000000387,-7.935357657585988989
0.562000000000000388,-7.889219948744066180
0.563000000000000389,-7.843149383282738363
0.564000000000000390,-7.797148973717815679
0.565000000000000391,-7.751221701999293501
0.566000000000000392,-7.705370518750525477
0.567000000000000393,-7.659598342546385830
0.568000000000000393,-7.613908059229437697
0.569000000000000394,-7.568302521263268190
0.570000000000000395,-7.522784547122168597
0.571000000000000396,-7.477356920716045963
0.572000000000000397,-7.432022390850017146
0.573000000000000398,-7.386783670717572470
0.574000000000000399,-7.341643437426617069
0.575000000000000400,-7.296604331557425382
0.576000000000000401,-7.251668956751808892
0.577000000000000401,-7.206839879332645360
0.578000000000000402,-7.162119627952857392
0.579000000000000403,-7.117510693273210620
0.580000000000000404,-7.073015527668077951
0.581000000000000405,-7.028636544958336785
0.582000000000000406,-6.984376120170796121
0.583000000000000407,-6.940236589323175664
0.584000000000000408,-6.896220249234208843
0.585000000000000409,-6.852329357357827000
0.586000000000000409,-6.808566131640938934
0.587000000000000410,-6.764932750404025974
0.588000000000000411,-6.721431352243826041
0.589000000000000412,-6.678064035957540057
0.590000000000000413,-6.634832860487736461
0.591000000000000414,-6.591739844887475108
0.592000000000000415,-6.548786968304891154
0.593000000000000416,-6.505976169986643853
0.594000000000000417,-6.463309349299588114
0.595000000000000417,-6.420788365770194517
0.596000000000000418,-6.378415039140833187
0.597000000000000419,-6.336191149442746529
0.598000000000000420,-6.294118437084708972
0.599000000000000421,-6.252198602957174778
0.600000000000000422,-6.210433308551110976
0.601000000000000423,-6.168824176091145084
0.602000000000000424,-6.127372788682402316
0.603000000000000425,-6.086080690470557997
0.604000000000000425,-6.044949386814584713
0.605000000000000426,-6.003980344471727904
0.606000000000000427,-5.963174991794220503
