# C-amorph-2_ASP-AC
# h[nm],U(h)[kJ/mol]
0.149999999999999994,156.988284854813997526
0.150999999999999995,153.944212409277923825
0.151999999999999996,151.268594517043680980
0.152999999999999997,148.656471580514960351
0.153999999999999998,146.002985035208894260
0.154999999999999999,143.298703719506818288
0.156000000000000000,140.571377603103769616
0.157000000000000001,137.855916651819654817
0.158000000000000002,135.180891453487959097
0.159000000000000002,132.564190531982632137
0.160000000000000003,130.013327246464371001
0.161000000000000004,127.527741562337453729
0.162000000000000005,125.101618226138612044
0.163000000000000006,122.726470047112641737
0.164000000000000007,120.393168365113680807
0.165000000000000008,118.093347571358577852
0.166000000000000009,115.820237227117033285
0.167000000000000010,113.569030473053004471
0.168000000000000010,111.336911296765919133
0.169000000000000011,109.122855056437316534
0.170000000000000012,106.927298308200462884
0.171000000000000013,104.751752474257472159
0.172000000000000014,102.598415113356736583
0.173000000000000015,100.469814444811930798
0.174000000000000016,98.368508067526249761
0.175000000000000017,96.296845553442068422
0.176000000000000018,94.256796462475875842
0.177000000000000018,92.249839842160696435
0.178000000000000019,90.276907916169122359
0.179000000000000020,88.338374933062141281
0.180000000000000021,86.434081600635735754
0.181000000000000022,84.563385805135098394
0.182000000000000023,82.725231114761456297
0.183000000000000024,80.918225667300319515
0.184000000000000025,79.140725275054094823
0.185000000000000026,77.390915828057345038
0.186000000000000026,75.666891259392883740
0.187000000000000027,73.966724405274277387
0.188000000000000028,72.288529021181517464
0.189000000000000029,70.630511994027500577
0.190000000000000030,68.991015420883329057
0.191000000000000031,67.368548716509636165
0.192000000000000032,65.761811278667366309
0.193000000000000033,64.169706498035878894
0.194000000000000034,62.591348065370446818
0.195000000000000034,61.026059618705993159
0.196000000000000035,59.473368803275135974
0.197000000000000036,57.932996800150434069
0.198000000000000037,56.404844328513391361
0.199000000000000038,54.888975051184992537
0.200000000000000039,53.385597222198342138
0.201000000000000040,51.895044315705149529
0.202000000000000041,50.417755272898048702
0.203000000000000042,48.954254902130877269
0.204000000000000042,47.505134870159153593
0.205000000000000043,46.071035631618080686
0.206000000000000044,44.652629560947048049
0.207000000000000045,43.250605476792735260
0.208000000000000046,41.865654683821887261
0.209000000000000047,40.498458600820910647
0.210000000000000048,39.149677996648208023
0.211000000000000049,37.819943816533665881
0.212000000000000050,36.509849549749063158
0.213000000000000050,35.219945065094385939
0.214000000000000051,33.950731822198633836
0.215000000000000052,32.702659353566716049
0.216000000000000053,31.476122903873609005
0.217000000000000054,30.271462108510242217
0.218000000000000055,29.088960592165584274
0.219000000000000056,27.928846369686812778
0.220000000000000057,26.791292935046566726
0.221000000000000058,25.676420929491353462
0.222000000000000058,24.584300286411981062
0.223000000000000059,23.514952757814533868
0.224000000000000060,22.468354735156534474
0.225000000000000061,21.444440285491651821
0.226000000000000062,20.443104332120906719
0.227000000000000063,19.464205917101502052
0.228000000000000064,18.507571490881346676
0.229000000000000065,17.572998181895108871
0.230000000000000066,16.660257006104785660
0.231000000000000066,15.769095983129904681
0.232000000000000067,14.899243131762034409
0.233000000000000068,14.050409323269699158
0.234000000000000069,13.222290975972351035
0.235000000000000070,12.414572579099067084
0.236000000000000071,11.626929037965265223
0.237000000000000072,10.859027836018190882
0.238000000000000073,10.110531012347943047
0.239000000000000073,9.381096955864814291
0.240000000000000074,8.670382019534430995
0.241000000000000075,7.978041959878874323
0.242000000000000076,7.303733208423561329
0.243000000000000077,6.647113982931154297
0.244000000000000078,6.007845247148810408
0.245000000000000079,5.385591528433624653
0.246000000000000080,4.780021603044472656
0.247000000000000081,4.190809059122434732
0.248000000000000081,3.617632747455895359
0.249000000000000082,3.060177130062111672
0.250000000000000111,2.518132536437078350
0.251000000000000112,1.991195337051464564
0.252000000000000113,1.479068043317308678
0.253000000000000114,0.981459342839852589
0.254000000000000115,0.498084078308221490
0.255000000000000115,0.028663177888241621
0.256000000000000116,-0.427076455534766808
0.257000000000000117,-0.869402089441919990
0.258000000000000118,-1.298575334805328607
0.259000000000000119,-1.714852341490047838
0.260000000000000120,-2.118484010692795572
0.261000000000000121,-2.509716219682574856
0.262000000000000122,-2.888790054599037038
0.263000000000000123,-3.255942047532234263
0.264000000000000123,-3.611404414554799214
0.265000000000000124,-3.955405291798371081
0.266000000000000125,-4.288168967062850001
0.267000000000000126,-4.609916104816003113
0.268000000000000127,-4.920863962784689072
0.269000000000000128,-5.221226598654446605
0.270000000000000129,-5.511215065684686110
0.271000000000000130,-5.791037596311168656
0.272000000000000131,-6.060899773046619643
0.273000000000000131,-6.321004686206237011
0.274000000000000132,-6.571553078177200469
0.275000000000000133,-6.812743474122643583
0.276000000000000134,-7.044772299161115470
0.277000000000000135,-7.267833982193318221
0.278000000000000136,-7.482121046662079777
0.279000000000000137,-7.687824188627837785
0.280000000000000138,-7.885132342623144552
0.281000000000000139,-8.074232735817307827
0.282000000000000139,-8.255310931076177638
0.283000000000000140,-8.428550859544888141
0.284000000000000141,-8.594134843412980729
0.285000000000000142,-8.752243609543825187
0.286000000000000143,-8.903056294663951320
0.287000000000000144,-9.046750442813678461
0.288000000000000145,-9.183501995760625647
0.289000000000000146,-9.313485277070174817
0.290000000000000147,-9.436872970516358095
0.291000000000000147,-9.553836093499940674
0.292000000000000148,-9.664543966121517116
0.293000000000000149,-9.769164176534038901
0.294000000000000150,-9.867862543174377166
0.295000000000000151,-9.960803074446026528
0.296000000000000152,-10.048147926396131524
0.297000000000000153,-10.130057358900078412
0.298000000000000154,-10.206689690835908380
0.299000000000000155,-10.278201254699622424
0.300000000000000155,-10.344746351080944535
0.301000000000000156,-10.406477203387545671
0.302000000000000157,-10.463543913174998323
0.303000000000000158,-10.516094416408728662
0.304000000000000159,-10.564274440954759982
0.305000000000000160,-10.608227465566532288
0.306000000000000161,-10.648094680607215423
0.307000000000000162,-10.684014950719719295
0.308000000000000163,-10.716124779630503028
0.309000000000000163,-10.744558277248387412
0.310000000000000164,-10.769447129196146662
0.311000000000000165,-10.790920568889863063
0.312000000000000166,-10.809105352260276689
0.313000000000000167,-10.824125735190028408
0.314000000000000168,-10.836103453722447654
0.315000000000000169,-10.845157707079787102
0.316000000000000170,-10.851405143513048301
0.317000000000000171,-10.854959848990183957
0.318000000000000171,-10.855933338715958669
0.319000000000000172,-10.854434551464070324
0.320000000000000173,-10.850569846690651943
0.321000000000000174,-10.844443004387667173
0.322000000000000175,-10.836155227625511088
0.323000000000000176,-10.825805147725604982
0.324000000000000177,-10.813488831996229678
0.325000000000000178,-10.799299793958212490
0.326000000000000179,-10.783329005981503457
0.327000000000000179,-10.765664914248496586
0.328000000000000180,-10.746393455955660201
0.329000000000000181,-10.725598078661988666
0.330000000000000182,-10.703359761689146268
0.331000000000000183,-10.679757039476793778
0.332000000000000184,-10.654866026794163503
0.333000000000000185,-10.628760445708234528
0.334000000000000186,-10.601511654208071178
0.335000000000000187,-10.573188676384571494
0.336000000000000187,-10.543858234065352164
0.337000000000000188,-10.513584779804538982
0.338000000000000189,-10.482430531128780871
0.339000000000000190,-10.450455505941611989
0.340000000000000191,-10.417717558989657789
0.341000000000000192,-10.384272419296511458
0.342000000000000193,-10.350173728471299128
0.343000000000000194,-10.315473079801837031
0.344000000000000195,-10.280220058043896714
0.345000000000000195,-10.244462279821256345
0.346000000000000196,-10.208245434553180786
0.347000000000000197,-10.171613325829136798
0.348000000000000198,-10.134607913153002912
0.349000000000000199,-10.097269353982065709
0.350000000000000200,-10.059636045988929354
0.351000000000000201,-10.021744669477346434
0.352000000000000202,-9.983630229885978480
0.353000000000000203,-9.945326100317098295
0.354000000000000203,-9.906864064030145300
0.355000000000000204,-9.868274356842883677
0.356000000000000205,-9.829585709386122971
0.357000000000000206,-9.790825389160684011
0.358000000000000207,-9.752019242347968131
0.359000000000000208,-9.713191735328724263
0.360000000000000209,-9.674365995867029611
0.361000000000000210,-9.635563853919332900
0.362000000000000210,-9.596805882031041790
0.363000000000000211,-9.558111435285729485
0.364000000000000212,-9.519498690774550909
0.365000000000000213,-9.480984686555867569
0.366000000000000214,-9.442585360077506706
0.367000000000000215,-9.404315586036272379
0.368000000000000216,-9.366189213651770373
0.369000000000000217,-9.328219103333372786
0.370000000000000218,-9.290417162721707811
0.371000000000000218,-9.252794382087490277
0.372000000000000219,-9.215360869072863892
0.373000000000000220,-9.178125882762083521
0.374000000000000221,-9.141097867070072880
0.375000000000000222,-9.104284483438975784
0.376000000000000223,-9.067692642834829897
0.377000000000000224,-9.031328537037412119
0.378000000000000225,-8.995197669218255143
0.379000000000000226,-8.959304883802857944
0.380000000000000226,-8.923654395614720514
0.381000000000000227,-8.888249818299655658
0.382000000000000228,-8.853094192030486198
0.383000000000000229,-8.818190010492875430
0.384000000000000230,-8.783539247154283913
0.385000000000000231,-8.749143380819116800
0.386000000000000232,-8.715003420473703244
0.387000000000000233,-8.681119929425957338
0.388000000000000234,-8.647493048744973265
0.389000000000000234,-8.614122520007050809
0.390000000000000235,-8.581007707354665115
0.391000000000000236,-8.548147618876186016
0.392000000000000237,-8.515540927314171782
0.393000000000000238,-8.483185990111076435
0.394000000000000239,-8.451080868801195578
0.395000000000000240,-8.419223347758606479
0.396000000000000241,-8.387610952310877721
0.397000000000000242,-8.356240966228869027
0.398000000000000242,-8.325110448603263436
0.399000000000000243,-8.294216250118662259
0.400000000000000244,-8.263555028736350394
0.401000000000000245,-8.233123264797223229
0.402000000000000246,-8.202917275556227850
0.403000000000000247,-8.172933229160156188
0.404000000000000248,-8.143167158080489187
0.405000000000000249,-8.113614972013380111
0.406000000000000250,-8.084272470258573762
0.407000000000000250,-8.055135353589498948
0.408000000000000251,-8.026199235626465978
0.409000000000000252,-7.997459653725222495
0.410000000000000253,-7.968912079392791448
0.411000000000000254,-7.940551928242780555
0.412000000000000255,-7.912374569502101274
0.413000000000000256,-7.884375335081128533
0.414000000000000257,-7.856549528219052725
0.415000000000000258,-7.828892431716409028
0.416000000000000258,-7.801399315766272657
0.417000000000000259,-7.774065445395882179
0.418000000000000260,-7.746886087530006293
0.419000000000000261,-7.719856517687465391
0.420000000000000262,-7.692972026321950985
0.421000000000000263,-7.666227924818239003
0.422000000000000264,-7.639619551154543942
0.423000000000000265,-7.613142275241813195
0.424000000000000266,-7.586791503950585991
0.425000000000000266,-7.560562685835546581
0.426000000000000267,-7.534451315568186480
0.427000000000000268,-7.508452938087451400
0.428000000000000269,-7.482563152478206803
0.429000000000000270,-7.456777615587185437
0.430000000000000271,-7.431092045385727651
0.431000000000000272,-7.405502224088740704
0.432000000000000273,-7.380004001038666495
0.433000000000000274,-7.354593295363519800
0.434000000000000274,-7.329266098417481778
0.435000000000000275,-7.304018476012515748
0.436000000000000276,-7.278846570449334585
0.437000000000000277,-7.253746602355576556
0.438000000000000278,-7.228714872339201847
0.439000000000000279,-7.203747762464661086
0.440000000000000280,-7.178841737559255698
0.441000000000000281,-7.153993346356989136
0.442000000000000282,-7.129199222486981569
0.443000000000000282,-7.104456085313151092
0.444000000000000283,-7.079760740632079496
0.445000000000000284,-7.055110081235286934
0.446000000000000285,-7.030501087342349464
0.447000000000000286,-7.005930826910993225
0.448000000000000287,-6.981396455829917969
0.449000000000000288,-6.956895218000347825
0.450000000000000289,-6.932424445311627714
0.451000000000000290,-6.907981557516412963
0.452000000000000290,-6.883564062010684381
0.453000000000000291,-6.859169553523519092
0.454000000000000292,-6.834795713721669941
0.455000000000000293,-6.810440310733551605
0.456000000000000294,-6.786101198597286555
0.457000000000000295,-6.761776316637215345
0.458000000000000296,-6.737463688773087434
0.459000000000000297,-6.713161422766127373
0.460000000000000298,-6.688867709405874606
0.461000000000000298,-6.664580821641682640
0.462000000000000299,-6.640299113662530672
0.463000000000000300,-6.616021019928693292
0.464000000000000301,-6.591745054158744566
0.465000000000000302,-6.567469808275118837
0.466000000000000303,-6.543193951311448764
0.467000000000000304,-6.518916228284678205
0.468000000000000305,-6.494635459034905800
0.469000000000000306,-6.470350537035718830
0.470000000000000306,-6.446060428177839974
0.471000000000000307,-6.421764169528408672
0.472000000000000308,-6.397460868068675310
0.473000000000000309,-6.373149699412282487
0.474000000000000310,-6.348829906506411547
0.475000000000000311,-6.324500798318049455
0.476000000000000312,-6.300161748507414394
0.477000000000000313,-6.275812194090464757
0.478000000000000314,-6.251451634092437537
0.479000000000000314,-6.227079628194248428
0.480000000000000315,-6.202695795373342591
0.481000000000000316,-6.178299812540839042
0.482000000000000317,-6.153891413176287628
0.483000000000000318,-6.129470385961720780
0.484000000000000319,-6.105036573416257717
0.485000000000000320,-6.080589870532718599
0.486000000000000321,-6.056130223417410363
0.487000000000000322,-6.031657627934354338
0.488000000000000322,-6.007172128354986818
0.489000000000000323,-5.982673816014561829
0.490000000000000324,-5.958162827976128284
0.491000000000000325,-5.933639345703072721
0.492000000000000326,-5.909103593741122040
0.493000000000000327,-5.884555838410681083
0.494000000000000328,-5.859996386510223587
0.495000000000000329,-5.835425584031550983
0.496000000000000330,-5.810843814887522107
0.497000000000000330,-5.786251499653003449
0.498000000000000331,-5.761649094319497344
0.499000000000000332,-5.737037089064157769
0.500000000000000333,-5.712416007033604970
0.501000000000000334,-5.687786403143004321
0.502000000000000335,-5.663148862890919233
0.503000000000000336,-5.638504001190283610
0.504000000000000337,-5.613852461215872225
0.505000000000000338,-5.589194913268577203
0.506000000000000338,-5.564532053656837007
0.507000000000000339,-5.539864603595425763
0.508000000000000340,-5.515193308121865812
0.509000000000000341,-5.490518935030722858
0.510000000000000342,-5.465842273825862740
0.511000000000000343,-5.441164134690911425
0.512000000000000344,-5.416485347478006140
0.513000000000000345,-5.391806760714949576
0.514000000000000346,-5.367129240630914566
0.515000000000000346,-5.342453670200652205
0.516000000000000347,-5.317780948207312619
0.517000000000000348,-5.293111988323976114
0.518000000000000349,-5.268447718213693953
0.519000000000000350,-5.243789078648295465
0.520000000000000351,-5.219137022645673696
0.521000000000000352,-5.194492514625748569
0.522000000000000353,-5.169856529584833993
0.523000000000000353,-5.145230052288471967
0.524000000000000354,-5.120614076482662647
0.525000000000000355,-5.096009604123262093
0.526000000000000356,-5.071417644623558374
0.527000000000000357,-5.046839214119898109
0.528000000000000358,-5.022275334755151199
0.529000000000000359,-4.997727033979982636
0.530000000000000360,-4.973195343871664065
0.531000000000000361,-4.948681300470399336
0.532000000000000361,-4.924185943132885157
0.533000000000000362,-4.899710313902998493
0.534000000000000363,-4.875255456899408202
0.535000000000000364,-4.850822417719936830
0.536000000000000365,-4.826412242862467394
0.537000000000000366,-4.802025979162216629
0.538000000000000367,-4.777664673245125115
0.539000000000000368,-4.753329370997270154
0.540000000000000369,-4.729021117049919454
0.541000000000000369,-4.704740954280195453
0.542000000000000370,-4.680489923326983437
0.543000000000000371,-4.656269062121948465
0.544000000000000372,-4.632079405435417740
0.545000000000000373,-4.607921984436897489
0.546000000000000374,-4.583797826269981002
0.547000000000000375,-4.559707953641446210
0.548000000000000376,-4.535653384424325196
0.549000000000000377,-4.511635131274654320
0.550000000000000377,-4.487654201261738862
0.551000000000000378,-4.463711595511636432
0.552000000000000379,-4.439808308863698372
0.553000000000000380,-4.415945329539882280
0.554000000000000381,-4.392123638826562981
0.555000000000000382,-4.368344210768777991
0.556000000000000383,-4.344608011876414544
0.557000000000000384,-4.320916000842381699
0.558000000000000385,-4.297269128272287020
0.559000000000000385,-4.273668336425599179
0.560000000000000386,-4.250114558967895029
0.561000000000000387,-4.226608720734099656
0.562000000000000388,-4.203151737502364149
0.563000000000000389,-4.179744515778501146
0.564000000000000390,-4.156387952590590018
0.565000000000000391,-4.133082935293687754
0.566000000000000392,-4.109830341384293817
0.567000000000000393,-4.086631038324457954
0.568000000000000393,-4.063485883375223651
0.569000000000000394,-4.040395723439234033
0.570000000000000395,-4.017361394912352779
0.571000000000000396,-3.994383723543903919
0.572000000000000397,-3.971463524305569592
0.573000000000000398,-3.948601601268519889
0.574000000000000399,-3.925798747488728591
0.575000000000000400,-3.903055744900158608
0.576000000000000401,-3.880373364215695009
0.577000000000000401,-3.857752364835641767
0.578000000000000402,-3.835193494763480260
0.579000000000000403,-3.812697490528815791
0.580000000000000404,-3.790265077117300763
0.581000000000000405,-3.767896967907275130
0.582000000000000406,-3.745593864613061097
0.583000000000000407,-3.723356457234591410
0.584000000000000408,-3.701185424013350822
0.585000000000000409,-3.679081431394319424
0.586000000000000409,-3.657045133993819697
0.587000000000000410,-3.635077174573100756
0.588000000000000411,-3.613178184017439065
0.589000000000000412,-3.591348781320681915
0.590000000000000413,-3.569589573574956543
0.591000000000000414,-3.547901155965495601
0.592000000000000415,-3.526284111770387142
0.593000000000000416,-3.504739012365043038
0.594000000000000417,-3.483266417231307255
0.595000000000000417,-3.461866873971094272
0.596000000000000418,-3.440540918324203723
0.597000000000000419,-3.419289074190505318
0.598000000000000420,-3.398111853656009096
0.599000000000000421,-3.377009757022950254
0.600000000000000422,-3.355983272843594989
0.601000000000000423,-3.335032877957719855
0.602000000000000424,-3.314159037533593644
0.603000000000000425,-3.293362205112377872
0.604000000000000425,-3.272642822655758899
0.605000000000000426,-3.252001320596749956
0.606000000000000427,-3.231438117893580930
0.607000000000000428,-3.210953622086353931
0.608000000000000429,-3.190548229356715115
0.609000000000000430,-3.170222324590008522
0.610000000000000431,-3.149976281440193926
0.611000000000000432,-3.129810462397130788
