# Montmorillonite-001-CEC0_HMA
# h[nm],U(h)[kJ/mol]
0.149999999999999994,84.316390121770751875
0.150999999999999995,82.621895642604769705
0.151999999999999996,81.081770389119782294
0.152999999999999997,79.628266545688205724
0.153999999999999998,78.214705220533133456
0.154999999999999999,76.815333142051784421
0.156000000000000000,75.420381023242583751
0.157000000000000001,74.030186277929459493
0.158000000000000002,72.650129000588975714
0.159000000000000002,71.286969982110733213
0.160000000000000003,69.946592636699705281
0.161000000000000004,68.632895860431446522
0.162000000000000005,67.347512205853860223
0.163000000000000006,66.090044744475406446
0.164000000000000007,64.858573799861147791
0.165000000000000008,63.650252213579065597
0.166000000000000009,62.461870215535078898
0.167000000000000010,61.290322054388830963
0.168000000000000010,60.132944789316731260
0.169000000000000011,58.987725974744172674
0.170000000000000012,57.853393371508147425
0.171000000000000013,56.729408560831871000
0.172000000000000014,55.615889562820733261
0.173000000000000015,54.513487094031646052
0.174000000000000016,53.423236389354180176
0.175000000000000017,52.346402649114978090
0.176000000000000018,51.284333922401160066
0.177000000000000018,50.238331111669126017
0.178000000000000019,49.209541089723295215
0.179000000000000020,48.198875816934254601
0.180000000000000021,47.206957887989652534
0.181000000000000022,46.234091107776848162
0.182000000000000023,45.280253436917760723
0.183000000000000024,44.345108878184625212
0.184000000000000025,43.428034506193071707
0.185000000000000026,42.528158786001924341
0.186000000000000026,41.644407499930508720
0.187000000000000027,40.775553934465378347
0.188000000000000028,39.920270410423981389
0.189000000000000029,39.077178721001487816
0.190000000000000030,38.244897536272262073
0.191000000000000031,37.422085311243826311
0.192000000000000032,36.607477678169082935
0.193000000000000033,35.799918700002301364
0.194000000000000034,34.998385703751509368
0.195000000000000034,34.202007697513508333
0.196000000000000035,33.410077603921124023
0.197000000000000036,32.622058718655310372
0.198000000000000037,31.837585930182353167
0.199000000000000038,31.056462321501577151
0.200000000000000039,30.278651822384592407
0.201000000000000040,29.504268597371371641
0.202000000000000041,28.733563846466665836
0.203000000000000042,27.966910667470074259
0.204000000000000042,27.204787586075894978
0.205000000000000043,26.447761306630564349
0.206000000000000044,25.696469176467104489
0.207000000000000045,24.951601793197763612
0.208000000000000046,24.213886119818745613
0.209000000000000047,23.484069409031455677
0.210000000000000048,22.762904177407229156
0.211000000000000049,22.051134413102367660
0.212000000000000050,21.349483148586518411
0.213000000000000050,20.658641482807830414
0.214000000000000051,19.979259095645314659
0.215000000000000052,19.311936261461152498
0.216000000000000053,18.657217337965100512
0.217000000000000054,18.015585681217554992
0.218000000000000055,17.387459917115517527
0.219000000000000056,16.773191483752178499
0.220000000000000057,16.173063347196293904
0.221000000000000058,15.587289785072906412
0.222000000000000058,15.016017127392203179
0.223000000000000059,14.459325341942530940
0.224000000000000060,13.917230351813907774
0.225000000000000061,13.389686974857113455
0.226000000000000062,12.876592378745314704
0.227000000000000063,12.377789950453554013
0.228000000000000064,11.893073485105798426
0.229000000000000065,11.422191605987858765
0.230000000000000066,10.964852334854757743
0.231000000000000066,10.520727739263573852
0.232000000000000067,10.089458591367399976
0.233000000000000068,9.670658980261650939
0.234000000000000069,9.263920827462786889
0.235000000000000070,8.868818262321847001
0.236000000000000071,8.484911821056041248
0.237000000000000072,8.111752439561268346
0.238000000000000073,7.748885216207682447
0.239000000000000073,7.395852926390920956
0.240000000000000074,7.052199275697525138
0.241000000000000075,6.717471883142454026
0.242000000000000076,6.391224990050956123
0.243000000000000077,6.073021893798295601
0.244000000000000078,5.762437108806388153
0.245000000000000079,5.459058259945651415
0.246000000000000080,5.162487715829654711
0.247000000000000081,4.872343971443632071
0.248000000000000081,4.588262791146166641
0.249000000000000082,4.309898124353684246
0.250000000000000111,4.036922807189083251
0.251000000000000112,3.769029064078874391
0.252000000000000113,3.505928823743540423
0.253000000000000114,3.247353864274166391
0.254000000000000115,2.993055802046415526
0.255000000000000115,2.742805939119397074
0.256000000000000116,2.496394983521949662
0.257000000000000117,2.253632656465351936
0.258000000000000118,2.014347200059459997
0.259000000000000119,1.778384798565660674
0.260000000000000120,1.545608925612679707
0.261000000000000121,1.315899629144804850
0.262000000000000122,1.089152765179237203
0.263000000000000123,0.865279190733083126
0.264000000000000123,0.644203925550331902
0.265000000000000124,0.425865291525226675
0.266000000000000125,0.210214037987824648
0.267000000000000126,-0.002787539702101016
0.268000000000000127,-0.213166481510712963
0.269000000000000128,-0.420940037975308268
0.270000000000000129,-0.626116533936878272
0.271000000000000130,-0.828696215987481999
0.272000000000000131,-1.028672079458647470
0.273000000000000131,-1.226030671344068290
0.274000000000000132,-1.420752866082954258
0.275000000000000133,-1.612814611629865835
0.276000000000000134,-1.802187643701546715
0.277000000000000135,-1.988840166521428809
0.278000000000000136,-2.172737498779466758
0.279000000000000137,-2.353842683887899856
0.280000000000000138,-2.532117063944428814
0.281000000000000139,-2.707520817114212885
0.282000000000000139,-2.880013458411375904
0.283000000000000140,-3.049554304101959268
0.284000000000000141,-3.216102900163648748
0.285000000000000142,-3.379619415425678230
0.286000000000000143,-3.540065000175931509
0.287000000000000144,-3.697402111162921390
0.288000000000000145,-3.851594804040615827
0.289000000000000146,-4.002608994403417775
0.290000000000000147,-4.150412688641241132
0.291000000000000147,-4.294976185909254340
0.292000000000000148,-4.436272252557360574
0.293000000000000149,-4.574276270399937339
0.294000000000000150,-4.708966360230273374
0.295000000000000151,-4.840323481995875810
0.296000000000000152,-4.968331513052868686
0.297000000000000153,-5.092977305910431518
0.298000000000000154,-5.214250726861124008
0.299000000000000155,-5.332144676870735012
0.300000000000000155,-5.446655096072972491
0.301000000000000156,-5.557780953180747829
0.302000000000000157,-5.665524221088046097
0.303000000000000158,-5.769889839894370098
0.304000000000000159,-5.870885668539377988
0.305000000000000160,-5.968522426187815810
0.306000000000000161,-6.062813624456157235
0.307000000000000162,-6.153775491521829011
0.308000000000000163,-6.241426889104586984
0.309000000000000163,-6.325789223257940463
0.310000000000000164,-6.406886349856611318
0.311000000000000165,-6.484744475614249382
0.312000000000000166,-6.559392055414559941
0.313000000000000167,-6.630859686688450161
0.314000000000000168,-6.699180001520316452
0.315000000000000169,-6.764387557118266336
0.316000000000000170,-6.826518725236107699
0.317000000000000171,-6.885611581089158051
0.318000000000000171,-6.941705792261982921
0.319000000000000172,-6.994842508063858766
0.320000000000000173,-7.045064249746782359
0.321000000000000174,-7.092414801962105386
0.322000000000000175,-7.136939105794617433
0.323000000000000176,-7.178683153677499540
0.324000000000000177,-7.217693886458102170
0.325000000000000178,-7.254019092852561634
0.326000000000000179,-7.287707311497639395
0.327000000000000179,-7.318807735779567558
0.328000000000000180,-7.347370121593556291
0.329000000000000181,-7.373444698162765931
0.330000000000000182,-7.397082082022320648
0.331000000000000183,-7.418333194252743290
0.332000000000000184,-7.437249181026930778
0.333000000000000185,-7.453881337516667038
0.334000000000000186,-7.468281035187483319
0.335000000000000187,-7.480499652495204543
0.336000000000000187,-7.490588508983316629
0.337000000000000188,-7.498598802767034499
0.338000000000000189,-7.504581551378566751
0.339000000000000190,-7.508587535937183866
0.340000000000000191,-7.510667248598065449
0.341000000000000192,-7.510870843225772475
0.342000000000000193,-7.509248089230160517
0.343000000000000194,-7.505848328496378841
0.344000000000000195,-7.500720435334294223
0.345000000000000195,-7.493912779368303134
0.346000000000000196,-7.485473191283672278
0.347000000000000197,-7.475448931342403291
0.348000000000000198,-7.463886660578543442
0.349000000000000199,-7.450832414580609964
0.350000000000000200,-7.436331579767006872
0.351000000000000201,-7.420428872059173564
0.352000000000000202,-7.403168317856272829
0.353000000000000203,-7.384593237215031358
0.354000000000000203,-7.364746229138381395
0.355000000000000204,-7.343669158876724445
0.356000000000000205,-7.321403147146696710
0.357000000000000206,-7.297988561173158750
0.358000000000000207,-7.273465007461209275
0.359000000000000208,-7.247871326206892562
0.360000000000000209,-7.221245587256698961
0.361000000000000210,-7.193625087527870221
0.362000000000000210,-7.165046349803617431
0.363000000000000211,-7.135545122819459962
0.364000000000000212,-7.105156382559238537
0.365000000000000213,-7.073914334681594696
0.366000000000000214,-7.041852418000333458
0.367000000000000215,-7.009003308944360633
0.368000000000000216,-6.975398926925739929
0.369000000000000217,-6.941070440546637244
0.370000000000000218,-6.906048274578902024
0.371000000000000218,-6.870362117652298650
0.372000000000000219,-6.834040930590259855
0.373000000000000220,-6.797112955334535300
0.374000000000000221,-6.759605724402737437
0.375000000000000222,-6.721546070825175079
0.376000000000000223,-6.682960138510201986
0.377000000000000224,-6.643873392989485538
0.378000000000000225,-6.604310632497179867
0.379000000000000226,-6.564295999339376131
0.380000000000000226,-6.523852991512543831
0.381000000000000227,-6.483004474531819383
0.382000000000000228,-6.441772693432471719
0.383000000000000229,-6.400179284909816246
0.384000000000000230,-6.358245289564924185
0.385000000000000231,-6.315991164225796872
0.386000000000000232,-6.273436794315204956
0.387000000000000233,-6.230601506238680365
0.388000000000000234,-6.187504079767649934
0.389000000000000234,-6.144162760394739742
0.390000000000000235,-6.100595271639732253
0.391000000000000236,-6.056818827286436502
0.392000000000000237,-6.012850143532171288
0.393000000000000238,-5.968705451033176956
0.394000000000000239,-5.924400506830511226
0.395000000000000240,-5.879950606142514857
0.396000000000000241,-5.835370594011151546
0.397000000000000242,-5.790674876790655290
0.398000000000000242,-5.745877433468312034
0.399000000000000243,-5.700991826808073704
0.400000000000000244,-5.656031214308861799
0.401000000000000245,-5.611008358970478227
0.402000000000000246,-5.565935639860783546
0.403000000000000247,-5.520825062478858847
0.404000000000000248,-5.475688268909646439
0.405000000000000249,-5.430536547766303457
0.406000000000000250,-5.385380843917258353
0.407000000000000250,-5.340231767995698320
0.408000000000000251,-5.295099605689740585
0.409000000000000252,-5.249994326812293721
0.410000000000000253,-5.204925594149966805
0.411000000000000254,-5.159902772091160550
0.412000000000000255,-5.114934935033639718
0.413000000000000256,-5.070030875572695273
0.414000000000000257,-5.025199112470977170
0.415000000000000258,-4.980447898411935803
0.416000000000000258,-4.935785227538681319
0.417000000000000259,-4.891218842780761022
0.418000000000000260,-4.846756242971403950
0.419000000000000261,-4.802404689758131617
0.420000000000000262,-4.758171214309841801
0.421000000000000263,-4.714062623823721765
0.422000000000000264,-4.670085507835443295
0.423000000000000265,-4.626246244336286395
0.424000000000000266,-4.582551005701122726
0.425000000000000266,-4.539005764431003342
0.426000000000000267,-4.495616298714532277
0.427000000000000268,-4.452388197812051196
0.428000000000000269,-4.409326867266853966
0.429000000000000270,-4.366437533947698846
0.430000000000000271,-4.323725250926848673
0.431000000000000272,-4.281194902197988483
0.432000000000000273,-4.238851207238350405
0.433000000000000274,-4.196698725419378384
0.434000000000000274,-4.154741860270239506
0.435000000000000275,-4.112984863598548202
0.436000000000000276,-4.071431839472569258
0.437000000000000277,-4.030086748069139801
0.438000000000000278,-3.988953409391585492
0.439000000000000279,-3.948035506861804489
0.440000000000000280,-3.907336590790586150
0.441000000000000281,-3.866860081730307819
0.442000000000000282,-3.826609273714022486
0.443000000000000282,-3.786587337384792029
0.444000000000000283,-3.746797323019262826
0.445000000000000284,-3.707242163449204320
0.446000000000000285,-3.667924676884712909
0.447000000000000286,-3.628847569642849269
0.448000000000000287,-3.590013438785104150
0.449000000000000288,-3.551424774667318651
0.450000000000000289,-3.513083963405352783
0.451000000000000290,-3.474993289259851625
0.452000000000000290,-3.437154936943339401
0.453000000000000291,-3.399570993852731871
0.454000000000000292,-3.362243452230354812
0.455000000000000293,-3.325174211256372026
0.456000000000000294,-3.288365079075537434
0.457000000000000295,-3.251817774761026847
0.458000000000000296,-3.215533930217996605
0.459000000000000297,-3.179515092029570500
0.460000000000000298,-3.143762723247622848
0.461000000000000298,-3.108278205130938332
0.462000000000000299,-3.073062838832977928
0.463000000000000300,-3.038117847041536201
0.464000000000000301,-3.003444375572502434
0.465000000000000302,-2.969043494919782589
0.466000000000000303,-2.934916201763392074
0.467000000000000304,-2.901063420437662188
0.468000000000000305,-2.867486004361445406
0.469000000000000306,-2.834184737432028811
0.470000000000000306,-2.801160335384577316
0.471000000000000307,-2.768413447118603266
0.472000000000000308,-2.735944655993147734
0.473000000000000309,-2.703754481092110140
0.474000000000000310,-2.671843378461166818
0.475000000000000311,-2.640211742317621013
0.476000000000000312,-2.608859906234585857
0.477000000000000313,-2.577788144300574125
0.478000000000000314,-2.546996672255821270
0.479000000000000314,-2.516485648606409775
0.480000000000000315,-2.486255175717232646
0.481000000000000316,-2.456305300884886744
0.482000000000000317,-2.426636017391365474
0.483000000000000318,-2.397247265539534489
0.484000000000000319,-2.368138933671210644
0.485000000000000320,-2.339310859168676870
0.486000000000000321,-2.310762829440402122
0.487000000000000322,-2.282494582891690715
0.488000000000000322,-2.254505809880898326
0.489000000000000323,-2.226796153661974476
0.490000000000000324,-2.199365211313799584
0.491000000000000325,-2.172212534656996930
0.492000000000000326,-2.145337631158637404
0.493000000000000327,-2.118739964825475219
0.494000000000000328,-2.092418957086043640
0.495000000000000329,-2.066373987662140088
0.496000000000000330,-2.040604395430043017
0.497000000000000330,-2.015109479271895321
0.498000000000000331,-1.989888498917520065
0.499000000000000332,-1.964940675777097523
0.500000000000000333,-1.940265193764918239
0.501000000000000334,-1.915861200114493457
0.502000000000000335,-1.891727806185332650
0.503000000000000336,-1.867864088261570021
0.504000000000000337,-1.844269088342654017
0.505000000000000338,-1.820941814926317903
0.506000000000000338,-1.797881243783994165
0.507000000000000339,-1.775086318728817947
0.508000000000000340,-1.752555952376364967
0.509000000000000341,-1.730289026898304439
0.510000000000000342,-1.708284394768988745
0.511000000000000343,-1.686540879505155743
0.512000000000000344,-1.665057276398789199
0.513000000000000345,-1.643832353243244615
0.514000000000000346,-1.622864851052690183
0.515000000000000346,-1.602153484774910819
0.516000000000000347,-1.581696943997532134
0.517000000000000348,-1.561493893647739384
0.518000000000000349,-1.541542974685424117
0.519000000000000350,-1.521842804789902637
0.520000000000000351,-1.502391979040122560
0.521000000000000352,-1.483189070588442959
0.522000000000000353,-1.464232631327937906
0.523000000000000353,-1.445521192553237189
0.524000000000000354,-1.427053265614948163
0.525000000000000355,-1.408827342567562146
0.526000000000000356,-1.390841896810900646
0.527000000000000357,-1.373095383725089658
0.528000000000000358,-1.355586241298953887
0.529000000000000359,-1.338312890751959472
0.530000000000000360,-1.321273737149520677
0.531000000000000361,-1.304467170011780919
0.532000000000000361,-1.287891563915741555
0.533000000000000362,-1.271545279090788849
0.534000000000000363,-1.255426662007529170
0.535000000000000364,-1.239534045959945541
0.536000000000000365,-1.223865751640824673
0.537000000000000366,-1.208420087710440516
0.538000000000000367,-1.193195351358432799
0.539000000000000368,-1.178189828858924981
0.540000000000000369,-1.163401796118737064
0.541000000000000369,-1.148829519218801831
0.542000000000000370,-1.134471254948642427
0.543000000000000371,-1.120325251333945449
0.544000000000000372,-1.106389748157206032
0.545000000000000373,-1.092662977471398289
0.546000000000000374,-1.079143164106652453
0.547000000000000375,-1.065828526169931623
0.548000000000000376,-1.052717275537697228
0.549000000000000377,-1.039807618341520135
0.550000000000000377,-1.027097755446626515
0.551000000000000378,-1.014585882923396243
0.552000000000000379,-1.002270192511761859
0.553000000000000380,-0.990148872078533415
0.554000000000000381,-0.978220106067601458
0.555000000000000382,-0.966482075943077001
0.556000000000000383,-0.954932960625273553
0.557000000000000384,-0.943570936919637560
0.558000000000000385,-0.932394179938522250
0.559000000000000385,-0.921400863515899227
0.560000000000000386,-0.910589160614946991
0.561000000000000387,-0.899957243728559897
0.562000000000000388,-0.889503285272774447
0.563000000000000389,-0.879225457973128011
0.564000000000000390,-0.869121935243961752
0.565000000000000391,-0.859190891560686509
0.566000000000000392,-0.849430502825020084
0.567000000000000393,-0.839838946723242108
0.568000000000000393,-0.830414403077450070
0.569000000000000394,-0.821155054189871003
0.570000000000000395,-0.812059085180250939
0.571000000000000396,-0.803124684316326665
0.572000000000000397,-0.794350043337457956
0.573000000000000398,-0.785733357771384200
0.574000000000000399,-0.777272827244220865
0.575000000000000400,-0.768966655783646980
0.576000000000000401,-0.760813052115385080
0.577000000000000401,-0.752810229952998178
0.578000000000000402,-0.744956408281016058
0.579000000000000403,-0.737249811631458529
0.580000000000000404,-0.729688670353814683
0.581000000000000405,-0.722271220878481279
0.582000000000000406,-0.714995705973744178
0.583000000000000407,-0.707860374996336583
0.584000000000000408,-0.700863484135623938
0.585000000000000409,-0.694003296651470536
0.586000000000000409,-0.687278083105836268
0.587000000000000410,-0.680686121588169879
0.588000000000000411,-0.674225697934631496
0.589000000000000412,-0.667895105941229805
0.590000000000000413,-0.661692647570899850
0.591000000000000414,-0.655616633154603723
0.592000000000000415,-0.649665381586512325
0.593000000000000416,-0.643837220513310493
0.594000000000000417,-0.638130486517697548
0.595000000000000417,-0.632543525296175746
0.596000000000000418,-0.627074691831112974
0.597000000000000419,-0.621722350557240233
0.598000000000000420,-0.616484875522563591
0.599000000000000421,-0.611360650543813611
0.600000000000000422,-0.606348069356472785
0.601000000000000423,-0.601445535759442707
0.602000000000000424,-0.596651463754439781
0.603000000000000425,-0.591964277680169904
0.604000000000000425,-0.587382412341352245
0.605000000000000426,-0.582904313132657226
0.606000000000000427,-0.578528436157666581
0.607000000000000428,-0.574253248342823097
0.608000000000000429,-0.570077227546603837
0.609000000000000430,-0.565998862663784963
0.610000000000000431,-0.562016653725063708
0.611000000000000432,-0.558129111991968463
0.612000000000000433,-0.554334760047173858
0.613000000000000433,-0.550632131880327003
