# Montmorillonite-001-CEC0_VALSCA-JS
# h[nm],U(h)[kJ/mol]
0.149999999999999994,71.356088139461078867
0.150999999999999995,68.807406331146182765
0.151999999999999996,67.741526321192807814
0.152999999999999997,66.975721073552733742
0.153999999999999998,66.086107151998106701
0.154999999999999999,65.001878172568765990
0.156000000000000000,63.787333362744675469
0.157000000000000001,62.534147774823928501
0.158000000000000002,61.315604964616284178
0.159000000000000002,60.173492847474520318
0.160000000000000003,59.120472601713231597
0.161000000000000004,58.148302709241207253
0.162000000000000005,57.236914745076049371
0.163000000000000006,56.362053841737484561
0.164000000000000007,55.500718466899613190
0.165000000000000008,54.634422859501775349
0.166000000000000009,53.750659516196037657
0.167000000000000010,52.843047772132834439
0.168000000000000010,51.910634986119383427
0.169000000000000011,50.956739386420828453
0.170000000000000012,49.987628471941903285
0.171000000000000013,49.011235389113018357
0.172000000000000014,48.036037877392438133
0.173000000000000015,47.070163494132536641
0.174000000000000016,46.120740553956615315
0.175000000000000017,45.193484439209363757
0.176000000000000018,44.292490885306087023
0.177000000000000018,43.420198708805244792
0.178000000000000019,42.577481699141820570
0.179000000000000020,41.763830925772637670
0.180000000000000021,40.977592853570413922
0.181000000000000022,40.216234157378856651
0.182000000000000023,39.476610085821832286
0.183000000000000024,38.755219040793022600
0.184000000000000025,38.048431336601289843
0.185000000000000026,37.352684676501397121
0.186000000000000026,36.664642652018230251
0.187000000000000027,35.981315533631644143
0.188000000000000028,35.300144835148572042
0.189000000000000029,34.619054684403380406
0.190000000000000030,33.936474020115774408
0.191000000000000031,33.251334162064715372
0.192000000000000032,32.563046467913594029
0.193000000000000033,31.871464684645371079
0.194000000000000034,31.176836303754612345
0.195000000000000034,30.479746802862401012
0.196000000000000035,29.781060155876907913
0.197000000000000036,29.081858461471369992
0.198000000000000037,28.383383007609630511
0.199000000000000038,27.686978581456930470
0.200000000000000039,26.994042365251438298
0.201000000000000040,26.305978339544623168
0.202000000000000041,25.624157750843739478
0.203000000000000042,24.949885892635624174
0.204000000000000042,24.284375195840823380
0.205000000000000043,23.628724423823953771
0.206000000000000044,22.983903613772429964
0.207000000000000045,22.350744295407867668
0.208000000000000046,21.729934444116867809
0.209000000000000047,21.122017583148341657
0.210000000000000048,20.527395433172852535
0.211000000000000049,19.946333512224377671
0.212000000000000050,19.378969110270741538
0.213000000000000050,18.825321096308382351
0.214000000000000051,18.285301058380763806
0.215000000000000052,17.758725325229665515
0.216000000000000053,17.245327469844124124
0.217000000000000054,16.744770947873043099
0.218000000000000055,16.256661576035988048
0.219000000000000056,15.780559605997492412
0.220000000000000057,15.315991196684638709
0.221000000000000058,14.862459132038452481
0.222000000000000058,14.419452671237285912
0.223000000000000059,13.986456454268855865
0.224000000000000060,13.562958417260997379
0.225000000000000061,13.148456699252033530
0.226000000000000062,12.742465545227627643
0.227000000000000063,12.344520229486850127
0.228000000000000064,11.954181038994219577
0.229000000000000065,11.571036368627630964
0.230000000000000066,11.194704989470082523
0.231000000000000066,10.824837557843393299
0.232000000000000067,10.461117436976470785
0.233000000000000068,10.103260905356526322
0.234000000000000069,9.751016826234494062
0.235000000000000070,9.404165851730848402
0.236000000000000071,9.062519232778750933
0.237000000000000072,8.725917302987575397
0.238000000000000073,8.394227700628317024
0.239000000000000073,8.067343388524983894
0.240000000000000074,7.745180526849855696
0.241000000000000075,7.427676248813694038
0.242000000000000076,7.114786384137154585
0.243000000000000077,6.806483170092164414
0.244000000000000078,6.502752984898886091
0.245000000000000079,6.203594133424068069
0.246000000000000080,5.909014710506876433
0.247000000000000081,5.619030562878191581
0.248000000000000081,5.333663366572251263
0.249000000000000082,5.052938832973574712
0.250000000000000111,4.776885053209744214
0.251000000000000112,4.505530987497068374
0.252000000000000113,4.238905103267912367
0.253000000000000114,3.977034163451891313
0.254000000000000115,3.719942164133847484
0.255000000000000115,3.467649418959142249
0.256000000000000116,3.220171786083080523
0.257000000000000117,2.977520032148770479
0.258000000000000118,2.739699326708478822
0.259000000000000119,2.506708859656165522
0.260000000000000120,2.278541573594797587
0.261000000000000121,2.055184002601500914
0.262000000000000122,1.836616208556151708
0.263000000000000123,1.622811806047569139
0.264000000000000123,1.413738066846456309
0.265000000000000124,1.209356095020130528
0.266000000000000125,1.009621063943888064
0.267000000000000126,0.814482506723402166
0.268000000000000127,0.623884651867519624
0.269000000000000128,0.437766796429409244
0.270000000000000129,0.256063709254038707
0.271000000000000130,0.078706057421224565
0.272000000000000131,-0.094379150552575772
0.273000000000000131,-0.263268110703277547
0.274000000000000132,-0.428039764254142585
0.275000000000000133,-0.588775337857378345
0.276000000000000134,-0.745557887913563921
0.277000000000000135,-0.898471852959917383
0.278000000000000136,-1.047602617652649171
0.279000000000000137,-1.193036091418895994
0.280000000000000138,-1.334858304423620412
0.281000000000000139,-1.473155023088498661
0.282000000000000139,-1.608011387013836835
0.283000000000000140,-1.739511568793098206
0.284000000000000141,-1.867738457872556213
0.285000000000000142,-1.992773369296806818
0.286000000000000143,-2.114695777894052942
0.287000000000000144,-2.233583078193032367
0.288000000000000145,-2.349510370126313141
0.289000000000000146,-2.462550270360504889
0.290000000000000147,-2.572772748903743523
0.291000000000000147,-2.680244990471833955
0.292000000000000148,-2.785031279947348448
0.293000000000000149,-2.887192911138200202
0.294000000000000150,-2.986788117933891762
0.295000000000000151,-3.083872026866771421
0.296000000000000152,-3.178496630011326651
0.297000000000000153,-3.270710777095621857
0.298000000000000154,-3.360560185654309695
0.299000000000000155,-3.448087468020817337
0.300000000000000155,-3.533332173936466258
0.301000000000000156,-3.616330847545112359
0.302000000000000157,-3.697117097542596209
0.303000000000000158,-3.775721679259323338
0.304000000000000159,-3.852172587471486942
0.305000000000000160,-3.926495158759878201
0.306000000000000161,-3.998712182265072634
0.307000000000000162,-4.068844017722375028
0.308000000000000163,-4.136908719698817904
0.309000000000000163,-4.202922166997250741
0.310000000000000164,-4.266898196238035901
0.311000000000000165,-4.328848738676609464
0.312000000000000166,-4.388783959365007981
0.313000000000000167,-4.446712397816163787
0.314000000000000168,-4.502641109381508855
0.315000000000000169,-4.556575806604468148
0.316000000000000170,-4.608520999864571088
0.317000000000000171,-4.658480136678400996
0.318000000000000171,-4.706455739074883127
0.319000000000000172,-4.752449538512564686
0.320000000000000173,-4.796462607855478844
0.321000000000000174,-4.838495489972041597
0.322000000000000175,-4.878548322567691109
0.323000000000000176,-4.916620958906539052
0.324000000000000177,-4.952713084120297538
0.325000000000000178,-4.986824326843681376
0.326000000000000179,-5.018954365954894747
0.327000000000000179,-5.049103032236736510
0.328000000000000180,-5.077270404809334892
0.329000000000000181,-5.103456902218719726
0.330000000000000182,-5.127663368096530228
0.331000000000000183,-5.149891151335655337
0.332000000000000184,-5.170142180753595440
0.333000000000000185,-5.188419034240892458
0.334000000000000186,-5.204725002415199420
0.335000000000000187,-5.219064146823227723
0.336000000000000187,-5.231441352752516316
0.337000000000000188,-5.241862376732826512
0.338000000000000189,-5.250333888823455197
0.339000000000000190,-5.256863509797250700
0.340000000000000191,-5.261459843345173581
0.341000000000000192,-5.264132503436996124
0.342000000000000193,-5.264892136983699622
0.343000000000000194,-5.263750441956137394
0.344000000000000195,-5.260720181121748773
0.345000000000000195,-5.255815191567879907
0.346000000000000196,-5.249050390184949677
0.347000000000000197,-5.240441775287121295
0.348000000000000198,-5.230006424551207900
0.349000000000000199,-5.217762489456513109
0.350000000000000200,-5.203729186409917773
0.351000000000000201,-5.187926784740747088
0.352000000000000202,-5.170376591749880291
0.353000000000000203,-5.151100934996605929
0.354000000000000203,-5.130123142005206027
0.355000000000000204,-5.107467517571064874
0.356000000000000205,-5.083159318843589070
0.357000000000000206,-5.057224728360198540
0.358000000000000207,-5.029690825201855731
0.359000000000000208,-5.000585554437191327
0.360000000000000209,-4.969937695017726753
0.361000000000000210,-4.937776826282455289
0.362000000000000210,-4.904133293225219958
0.363000000000000211,-4.869038170673496424
0.364000000000000212,-4.832523226522093651
0.365000000000000213,-4.794620884160001317
0.366000000000000214,-4.755364184223383361
0.367000000000000215,-4.714786745802210355
0.368000000000000216,-4.672922727222646344
0.369000000000000217,-4.629806786521715622
0.370000000000000218,-4.585474041725368544
0.371000000000000218,-4.539960031035434440
0.372000000000000219,-4.493300673025607317
0.373000000000000220,-4.445532226941123710
0.374000000000000221,-4.396691253191439941
0.375000000000000222,-4.346814574119866492
0.376000000000000223,-4.295939235129035083
0.377000000000000224,-4.244102466235894155
0.378000000000000225,-4.191341644124886301
0.379000000000000226,-4.137694254763171209
0.380000000000000226,-4.083197856636987311
0.381000000000000227,-4.027890044663478442
0.382000000000000228,-3.971808414828088551
0.383000000000000229,-3.914990529592990320
0.384000000000000230,-3.857473884117938123
0.385000000000000231,-3.799295873330964746
0.386000000000000232,-3.740493759882198788
0.387000000000000233,-3.681104643010543409
0.388000000000000234,-3.621165428349146787
0.389000000000000234,-3.560712798692332370
0.390000000000000235,-3.499783185743142067
0.391000000000000236,-3.438412742857667403
0.392000000000000237,-3.376637318799160958
0.393000000000000238,-3.314492432512237574
0.394000000000000239,-3.252013248924530586
0.395000000000000240,-3.189234555780849689
0.396000000000000241,-3.126190741512243410
0.397000000000000242,-3.062915774140103853
0.398000000000000242,-2.999443181213458764
0.399000000000000243,-2.935806030775319986
0.400000000000000244,-2.872036913352160603
0.401000000000000245,-2.808167924958936190
0.402000000000000246,-2.744230651110180386
0.403000000000000247,-2.680256151826283961
0.404000000000000248,-2.616274947622696967
0.405000000000000249,-2.552317006468359128
0.406000000000000250,-2.488411731698500162
0.407000000000000250,-2.424587950865896069
0.408000000000000251,-2.360873905513524829
0.409000000000000252,-2.297297241850831728
0.410000000000000253,-2.233885002314802470
0.411000000000000254,-2.170663617996438255
0.412000000000000255,-2.107658901912518701
0.413000000000000256,-2.044896043101951832
0.414000000000000257,-1.982399601525510757
0.415000000000000258,-1.920193503747390951
0.416000000000000258,-1.858301039376541341
0.417000000000000259,-1.796744858245545640
0.418000000000000260,-1.735546968304523929
0.419000000000000261,-1.674728734207344250
0.420000000000000262,-1.614310876567378816
0.421000000000000263,-1.554313471859872564
0.422000000000000264,-1.494755952948081390
0.423000000000000265,-1.435657110210178944
0.424000000000000266,-1.377035093244301844
0.425000000000000266,-1.318907413128816319
0.426000000000000267,-1.261290945215406856
0.427000000000000268,-1.204201932432470645
0.428000000000000269,-1.147655989076697081
0.429000000000000270,-1.091668105070919825
0.430000000000000271,-1.036252650666446673
0.431000000000000272,-0.981423381568601316
0.432000000000000273,-0.927193444464327721
0.433000000000000274,-0.873575382931167765
0.434000000000000274,-0.820581143707149296
0.435000000000000275,-0.768222083301667080
0.436000000000000276,-0.716508974927671405
0.437000000000000277,-0.665452015735906954
0.438000000000000278,-0.615060834332455952
0.439000000000000279,-0.565344498561146991
0.440000000000000280,-0.516311523532850702
0.441000000000000281,-0.467969879884165607
0.442000000000000282,-0.420327002248420345
0.443000000000000282,-0.373389797922302591
0.444000000000000283,-0.327164655712020802
0.445000000000000284,-0.281657454943235463
0.446000000000000285,-0.236873574619434285
0.447000000000000286,-0.192817902714127021
0.448000000000000287,-0.149494845582304414
0.449000000000000288,-0.106908337477463672
0.450000000000000289,-0.065061850160639784
0.451000000000000290,-0.023958402588560725
0.452000000000000290,0.016399429331631143
0.453000000000000291,0.056009502933161183
0.454000000000000292,0.094870098937503616
0.455000000000000293,0.132979911570602877
0.456000000000000294,0.170338038658121471
0.457000000000000295,0.206943971710091379
0.458000000000000296,0.242797586004843607
0.459000000000000297,0.277899130681710294
0.460000000000000298,0.312249218851586519
0.461000000000000298,0.345848817733997227
0.462000000000000299,0.378699238828987539
0.463000000000000300,0.410802128131723621
0.464000000000000301,0.442159456397302031
0.465000000000000302,0.472773509462905417
0.466000000000000303,0.502646878634151806
0.467000000000000304,0.531782451142005175
0.468000000000000305,0.560183400676323773
0.469000000000000306,0.587853178001864762
0.470000000000000306,0.614795501662069199
0.471000000000000307,0.641014348775814424
0.472000000000000308,0.666513945931843432
0.473000000000000309,0.691298760185425465
0.474000000000000310,0.715373490161359760
0.475000000000000311,0.738743057267335135
0.476000000000000312,0.761412597021109305
0.477000000000000313,0.783387450495066084
0.478000000000000314,0.804673155881093671
0.479000000000000314,0.825275440178682373
0.480000000000000315,0.845200211008884095
0.481000000000000316,0.864453548556436635
0.482000000000000317,0.883041697642249823
0.483000000000000318,0.900971059928142970
0.484000000000000319,0.918248186255579357
0.485000000000000320,0.934879769119860482
0.486000000000000321,0.950872635281149292
0.487000000000000322,0.966233738513403217
0.488000000000000322,0.980970152492215974
0.489000000000000323,0.995089063822262254
0.490000000000000324,1.008597765205043295
0.491000000000000325,1.021503648747305038
0.492000000000000326,1.033814199410487689
0.493000000000000327,1.045536988601308170
0.494000000000000328,1.056679667903499098
0.495000000000000329,1.067249962950617137
0.496000000000000330,1.077255667439615205
0.497000000000000330,1.086704637284858332
0.498000000000000331,1.095604784912082907
0.499000000000000332,1.103964073691694026
0.500000000000000333,1.111790512510727247
0.501000000000000334,1.119092150482681181
0.502000000000000335,1.125877071794316509
0.503000000000000336,1.132153390688465322
0.504000000000000337,1.137929246581804943
0.505000000000000338,1.143212799316435158
0.506000000000000338,1.148012224544072257
0.507000000000000339,1.152335709241605333
0.508000000000000340,1.156191447356635260
0.509000000000000341,1.159587635581635023
0.510000000000000342,1.162532469255257883
0.511000000000000343,1.165034138389313245
0.512000000000000344,1.167100823819831712
0.513000000000000345,1.168740693480640580
0.514000000000000346,1.169961898797811539
0.515000000000000346,1.170772571203306800
0.516000000000000347,1.171180818766122567
0.517000000000000348,1.171194722939165045
0.518000000000000349,1.170822335420143689
0.519000000000000350,1.170071675124659594
0.520000000000000351,1.168950725269663593
0.521000000000000352,1.167467430565504394
0.522000000000000353,1.165629694514668246
0.523000000000000353,1.163445376815386734
0.524000000000000354,1.160922290868226181
0.525000000000000355,1.158068201383768203
0.526000000000000356,1.154890822089523983
0.527000000000000357,1.151397813534143388
0.528000000000000358,1.147596780987083287
0.529000000000000359,1.143495272431771070
0.530000000000000360,1.139100776650424418
0.531000000000000361,1.134420721398591958
0.532000000000000361,1.129462471667566525
0.533000000000000362,1.124233328032725465
0.534000000000000363,1.118740525085991866
0.535000000000000364,1.112991229950497596
0.536000000000000365,1.106992540875602726
0.537000000000000366,1.100751485910433036
0.538000000000000367,1.094275021654085744
0.539000000000000368,1.087570032080684701
0.540000000000000369,1.080643327437484480
0.541000000000000369,1.073501643214215928
0.542000000000000370,1.066151639181902810
0.543000000000000371,1.058599898499400505
0.544000000000000372,1.050852926885884164
0.545000000000000373,1.042917151857595481
0.546000000000000374,1.034798922027122536
0.547000000000000375,1.026504506463537636
0.548000000000000376,1.018040094111711591
0.549000000000000377,1.009411793269188840
0.550000000000000377,1.000625631118980952
0.551000000000000378,0.991687553316664805
0.552000000000000379,0.982603423630260764
0.553000000000000380,0.973379023631257168
0.554000000000000381,0.964020052435317965
0.555000000000000382,0.954532126491130284
0.556000000000000383,0.944920779415903467
0.557000000000000384,0.935191461876073604
0.558000000000000385,0.925349541511768514
0.559000000000000385,0.915400302903598750
0.560000000000000386,0.905348947580436159
0.561000000000000387,0.895200594066749900
0.562000000000000388,0.884960277968204201
0.563000000000000389,0.874632952094182570
0.564000000000000390,0.864223486615949499
0.565000000000000391,0.853736669259177239
0.566000000000000392,0.843177205529603291
0.567000000000000393,0.832549718970586050
0.568000000000000393,0.821858751451376768
0.569000000000000394,0.811108763484911455
0.570000000000000395,0.800304134574029158
0.571000000000000396,0.789449163584921121
0.572000000000000397,0.778548069146758226
0.573000000000000398,0.767604990076435345
0.574000000000000399,0.756623985827315493
0.575000000000000400,0.745609036961018767
0.576000000000000401,0.734564045641203034
0.577000000000000401,0.723492836148369123
0.578000000000000402,0.712399155414724206
0.579000000000000403,0.701286673578185527
0.580000000000000404,0.690158984554581467
0.581000000000000405,0.679019606627171313
0.582000000000000406,0.667871983052624296
0.583000000000000407,0.656719482682566524
0.584000000000000408,0.645565400599931283
0.585000000000000409,0.634412958769251079
0.586000000000000409,0.623265306700113042
0.587000000000000410,0.612125522123048826
0.588000000000000411,0.600996611677063530
0.589000000000000412,0.589881511608111087
0.590000000000000413,0.578783088477797136
0.591000000000000414,0.567704139881620273
0.592000000000000415,0.556647395176098181
0.593000000000000416,0.545615516214104090
0.594000000000000417,0.534611098087803938
0.595000000000000417,0.523636669878585592
0.596000000000000418,0.512694695413345225
0.597000000000000419,0.501787574026622663
0.598000000000000420,0.490917641327945742
0.599000000000000421,0.480087169973913763
0.600000000000000422,0.469298370444432067
0.601000000000000423,0.458553391822639322
0.602000000000000424,0.447854322577996400
0.603000000000000425,0.437203191352067588
0.604000000000000425,0.426601967746546129
0.605000000000000426,0.416052563113063656
0.606000000000000427,0.405556831344335289
0.607000000000000428,0.395116569666271844
0.608000000000000429,0.384733519430569104
0.609000000000000430,0.374409366907500041
0.610000000000000431,0.364145744078410272
0.611000000000000432,0.353944229427642587
0.612000000000000433,0.343806348733515954
0.613000000000000433,0.333733575857978859
0.614000000000000434,0.323727333534689632
0.615000000000000435,0.313788994155142387
0.616000000000000436,0.303919880552572130
0.617000000000000437,0.294121266783341717
