# Montmorillonite-001-CEC0_DMEP-JS
# h[nm],U(h)[kJ/mol]
0.149999999999999994,139.880255207538738205
0.150999999999999995,137.923385801936518646
0.151999999999999996,136.411388805745332320
0.152999999999999997,134.994449543197703179
0.153999999999999998,133.528523235881550590
0.154999999999999999,131.978905192858888995
0.156000000000000000,130.361798017984682474
0.157000000000000001,128.710860266313773081
0.158000000000000002,127.059676593594559790
0.159000000000000002,125.433968301152134472
0.160000000000000003,123.849426699806869578
0.161000000000000004,122.312506420098543458
0.162000000000000005,120.822522201120747809
0.163000000000000006,119.374073740102446095
0.164000000000000007,117.959271747919771656
0.165000000000000008,116.569523638513061314
0.166000000000000009,115.196810152347168810
0.167000000000000010,113.834481530741669530
0.168000000000000010,112.477649904216107757
0.169000000000000011,111.123271750684082804
0.170000000000000012,109.770013256123576184
0.171000000000000013,108.417980624749105800
0.172000000000000014,107.068382308952735116
0.173000000000000015,105.723174144851185474
0.174000000000000016,104.384723440002261441
0.175000000000000017,103.055515163841874937
0.176000000000000018,101.737912921457606785
0.177000000000000018,100.433979352756153958
0.178000000000000019,99.145354782735708454
0.179000000000000020,97.873189039622076280
0.180000000000000021,96.618119005731642801
0.181000000000000022,95.380283328109101149
0.182000000000000023,94.159365480911247914
0.183000000000000024,92.954656771137436522
0.184000000000000025,91.765131692602324165
0.185000000000000026,90.589529084586246199
0.186000000000000026,89.426433707472114065
0.187000000000000027,88.274354009941276900
0.188000000000000028,87.131792963057066004
0.189000000000000029,85.997309832166905608
0.190000000000000030,84.869571623317682452
0.191000000000000031,83.747393666449582383
0.192000000000000032,82.629769383062139809
0.193000000000000033,81.515889738580511903
0.194000000000000034,80.405153211161234594
0.195000000000000034,79.297167333670202538
0.196000000000000035,78.191742999677245507
0.197000000000000036,77.088882783224420336
0.198000000000000037,75.988764520803584901
0.199000000000000038,74.891721356181960800
0.200000000000000039,73.798219366714945977
0.201000000000000040,72.708833784221440055
0.202000000000000041,71.624224703366991207
0.203000000000000042,70.545113043218933058
0.204000000000000042,69.472257399137632206
0.205000000000000043,68.406432297057875758
0.206000000000000044,67.348408243923643113
0.207000000000000045,66.298933858989613555
0.208000000000000046,65.258720272467115819
0.209000000000000047,64.228427891435060815
0.210000000000000048,63.208655558367901506
0.211000000000000049,62.199932064915763874
0.212000000000000050,61.202709932234071744
0.213000000000000050,60.217361328496096462
0.214000000000000051,59.244175963348013170
0.215000000000000052,58.283360777013434983
0.216000000000000053,57.335041227492446581
0.217000000000000054,56.399263971799413753
0.218000000000000055,55.476000735434162436
0.219000000000000056,54.565153167322350214
0.220000000000000057,53.666558484391444495
0.221000000000000058,52.779995719952168542
0.222000000000000058,51.905192402379633165
0.223000000000000059,51.041831504585275070
0.224000000000000060,50.189558519854735152
0.225000000000000061,49.347988535309887936
0.226000000000000062,48.516713190112128018
0.227000000000000063,47.695307421214309329
0.228000000000000064,46.883335914707778613
0.229000000000000065,46.080359195375386605
0.230000000000000066,45.285939300784278316
0.231000000000000066,44.499644999006676471
0.232000000000000067,43.721056520764363995
0.233000000000000068,42.949769787400811083
0.234000000000000069,42.185400125577686481
0.235000000000000070,41.427585467973258915
0.236000000000000071,40.675989046554946071
0.237000000000000072,39.930301591244301562
0.238000000000000073,39.190243052046312755
0.239000000000000073,38.455563867034769032
0.240000000000000074,37.726045802036352939
0.241000000000000075,37.001502390515661034
0.242000000000000076,36.281779004097508334
0.243000000000000077,35.566752585448391244
0.244000000000000078,34.856331075948446596
0.245000000000000079,34.150452570785581941
0.246000000000000080,33.449084233865605142
0.247000000000000081,32.752221004315842379
0.248000000000000081,32.059884125426847845
0.249000000000000082,31.372119525682855112
0.250000000000000111,30.688996080124191224
0.251000000000000112,30.010603778714237677
0.252000000000000113,29.337051826687961409
0.253000000000000114,28.668466700078575116
0.254000000000000115,28.004990177784328864
0.255000000000000115,27.346777369679024616
0.256000000000000116,26.693994758412646462
0.257000000000000117,26.046818270713380628
0.258000000000000118,25.405431392208509322
0.259000000000000119,24.770023338043724692
0.260000000000000120,24.140787289909717117
0.261000000000000121,23.517918708494324420
0.262000000000000122,22.901613728871353715
0.263000000000000123,22.292067644922841652
0.264000000000000123,21.689473487571063970
0.265000000000000124,21.094020700373143029
0.266000000000000125,20.505893914905918507
0.267000000000000126,19.925271827339919639
0.268000000000000127,19.352326176668423585
0.269000000000000128,18.787220824219080129
0.270000000000000129,18.230110933326209022
0.271000000000000130,17.681142247380240207
0.272000000000000131,17.140450463892321409
0.273000000000000131,16.608160701711561558
0.274000000000000132,16.084387058106891288
0.275000000000000133,15.569232252068559319
0.276000000000000134,15.062787349892584388
0.277000000000000135,14.565131568879820634
0.278000000000000136,14.076332154803855801
0.279000000000000137,13.596444328675568514
0.280000000000000138,13.125511298252154901
0.281000000000000139,12.663564329698102640
0.282000000000000139,12.210622874804609950
0.283000000000000140,11.766694749204079429
0.284000000000000141,11.331776357077160355
0.285000000000000142,10.905852957935346481
0.286000000000000143,10.488898971170067753
0.287000000000000144,10.080878314186492162
0.288000000000000145,9.681744770082470808
0.289000000000000146,9.291442380990170946
0.290000000000000147,8.909905863363551504
0.291000000000000147,8.537061041670993333
0.292000000000000148,8.172825297132749967
0.293000000000000149,7.817108028329462499
0.294000000000000150,7.469811120695268869
0.295000000000000151,7.130829422098747372
0.296000000000000152,6.800051221903359533
0.297000000000000153,6.477358731086598986
0.298000000000000154,6.162628561180961917
0.299000000000000155,5.855732199981192210
0.300000000000000155,5.556536482138345612
0.301000000000000156,5.264904052932855905
0.302000000000000157,4.980693823683902011
0.303000000000000158,4.703761417412501977
0.304000000000000159,4.433959603528261795
0.305000000000000160,4.171138720456213811
0.306000000000000161,3.915147085259166548
0.307000000000000162,3.665831389443137134
0.308000000000000163,3.423037080258214182
0.309000000000000163,3.186608726924831103
0.310000000000000164,2.956390371325655853
0.311000000000000165,2.732225862806580530
0.312000000000000166,2.513959176826431108
0.313000000000000167,2.301434717284210230
0.314000000000000168,2.094497602435285266
0.315000000000000169,1.892993934383788046
0.316000000000000170,1.696771052208073227
0.317000000000000171,1.505677768839808639
0.318000000000000171,1.319564591874702320
0.319000000000000172,1.138283928544830736
0.320000000000000173,0.961690275129447381
0.321000000000000174,0.789640391122447993
0.322000000000000175,0.621993458511421737
0.323000000000000176,0.458611226555398765
0.324000000000000177,0.299358142476006950
0.325000000000000178,0.144101468500822338
0.326000000000000179,-0.007288614282907946
0.327000000000000179,-0.154938914789083532
0.328000000000000180,-0.298973153020374915
0.329000000000000181,-0.439511892884804134
0.330000000000000182,-0.576672486236229243
0.331000000000000183,-0.710569027629458505
0.332000000000000184,-0.841312319278327836
0.333000000000000185,-0.969009845705362638
0.334000000000000186,-1.093765757573843533
0.335000000000000187,-1.215680864196876376
0.336000000000000187,-1.334852634224007906
0.337000000000000188,-1.451375204012438358
0.338000000000000189,-1.565339393199045581
0.339000000000000190,-1.676832726998463752
0.340000000000000191,-1.785939464763193429
0.341000000000000192,-1.892740634353368590
0.342000000000000193,-1.997314071875953001
0.343000000000000194,-2.099734466366187657
0.344000000000000195,-2.200073408997227808
0.345000000000000195,-2.298399446418502023
0.346000000000000196,-2.394778137836811371
0.347000000000000197,-2.489272115469343127
0.348000000000000198,-2.581941148012115939
0.349000000000000199,-2.672842206782395369
0.350000000000000200,-2.762029534208422898
0.351000000000000201,-2.849554714354698426
0.352000000000000202,-2.935466745185774773
0.353000000000000203,-3.019812112286303751
0.354000000000000203,-3.102634863769607509
0.355000000000000204,-3.183976686121078092
0.356000000000000205,-3.263876980737163702
0.357000000000000206,-3.342372940934325243
0.358000000000000207,-3.419499629215679626
0.359000000000000208,-3.495290054596472462
0.360000000000000209,-3.569775249802364048
0.361000000000000210,-3.642984348166644626
0.362000000000000210,-3.714944660065085280
0.363000000000000211,-3.785681748738407126
0.364000000000000212,-3.855219505363994159
0.365000000000000213,-3.923580223249166998
0.366000000000000214,-3.990784671029008912
0.367000000000000215,-4.056852164761663104
0.368000000000000216,-4.121800638824017149
0.369000000000000217,-4.185646715519516725
0.370000000000000218,-4.248405773319248624
0.371000000000000218,-4.310092013665402177
0.372000000000000219,-4.370718526274695037
0.373000000000000220,-4.430297352886872098
0.374000000000000221,-4.488839549410565510
0.375000000000000222,-4.546355246425799024
0.376000000000000223,-4.602853708009230438
0.377000000000000224,-4.658343388853825040
0.378000000000000225,-4.712831989661039778
0.379000000000000226,-4.766326510788670312
0.380000000000000226,-4.818833304143002039
0.381000000000000227,-4.870358123308314191
0.382000000000000228,-4.920906171911729743
0.383000000000000229,-4.970482150225225659
0.384000000000000230,-5.019090300010743633
0.385000000000000231,-5.066734447617944781
0.386000000000000232,-5.113418045347338570
0.387000000000000233,-5.159144211094896626
0.388000000000000234,-5.203915766296754342
0.389000000000000234,-5.247735272195535039
0.390000000000000235,-5.290605064451953332
0.391000000000000236,-5.332527286127678678
0.392000000000000237,-5.373503919067258217
0.393000000000000238,-5.413536813708778261
0.394000000000000239,-5.452627717354319614
0.395000000000000240,-5.490778300932898759
0.396000000000000241,-5.527990184289546249
0.397000000000000242,-5.564264960035350427
0.398000000000000242,-5.599604215994271605
0.399000000000000243,-5.634009556283031017
0.400000000000000244,-5.667482621061362913
0.401000000000000245,-5.700025104990115388
0.402000000000000246,-5.731638774435125150
0.403000000000000247,-5.762325483455283504
0.404000000000000248,-5.792087188613031401
0.405000000000000249,-5.820925962645878471
0.406000000000000250,-5.848844007037309112
0.407000000000000250,-5.875843663525532889
0.408000000000000251,-5.901927424588163440
0.409000000000000252,-5.927097942940794617
0.410000000000000253,-5.951358040087082024
0.411000000000000254,-5.974710713957508190
0.412000000000000255,-5.997159145673627734
0.413000000000000256,-6.018706705474200724
0.414000000000000257,-6.039356957838779572
0.415000000000000258,-6.059113665844195751
0.416000000000000258,-6.077980794788337526
0.417000000000000259,-6.095962515115319391
0.418000000000000260,-6.113063204675198037
0.419000000000000261,-6.129287450350992650
0.420000000000000262,-6.144640049084651778
0.421000000000000263,-6.159126008333368318
0.422000000000000264,-6.172750545986348314
0.423000000000000265,-6.185519089771828405
0.424000000000000266,-6.197437276183175747
0.425000000000000266,-6.208510948951937891
0.426000000000000267,-6.218746157095320193
0.427000000000000268,-6.228149152564408375
0.428000000000000269,-6.236726387518819692
0.429000000000000270,-6.244484511252685444
0.430000000000000271,-6.251430366795932336
0.431000000000000272,-6.257570987214273295
0.432000000000000273,-6.262913591630223209
0.433000000000000274,-6.267465580986974594
0.434000000000000274,-6.271234533575946735
0.435000000000000275,-6.274228200348219708
0.436000000000000276,-6.276454500029241323
0.437000000000000277,-6.277921514055398333
0.438000000000000278,-6.278637481350412664
0.439000000000000279,-6.278610792958741804
0.440000000000000280,-6.277849986552399564
0.441000000000000281,-6.276363740826990778
0.442000000000000282,-6.274160869802122953
0.443000000000000282,-6.271250317040404809
0.444000000000000283,-6.267641149799035638
0.445000000000000284,-6.263342553126891588
0.446000000000000285,-6.258363823919647295
0.447000000000000286,-6.252714364944936598
0.448000000000000287,-6.246403678848574614
0.449000000000000288,-6.239441362152793324
0.450000000000000289,-6.231837099256424928
0.451000000000000290,-6.223600656446704349
0.452000000000000290,-6.214741875931780513
0.453000000000000291,-6.205270669902327896
0.454000000000000292,-6.195197014630423382
0.455000000000000293,-6.184530944613173986
0.456000000000000294,-6.173282546768132484
0.457000000000000295,-6.161461954687238674
0.458000000000000296,-6.149079342955292127
0.459000000000000297,-6.136144921538900121
0.460000000000000298,-6.122668930251071728
0.461000000000000298,-6.108661633296573967
0.462000000000000299,-6.094133313902490912
0.463000000000000300,-6.079094269038263221
0.464000000000000301,-6.063554804229053019
0.465000000000000302,-6.047525228465952196
0.466000000000000303,-6.031015849216204927
0.467000000000000304,-6.014036967536403822
0.468000000000000305,-5.996598873291134169
0.469000000000000306,-5.978711840479443040
0.470000000000000306,-5.960386122671224918
0.471000000000000307,-5.941631948555096798
0.472000000000000308,-5.922459517599497403
0.473000000000000309,-5.902878995828195308
0.474000000000000310,-5.882900511711222080
0.475000000000000311,-5.862534152172170998
0.476000000000000312,-5.841789958712455544
0.477000000000000313,-5.820677923652954000
0.478000000000000314,-5.799207986493315481
0.479000000000000314,-5.777390030389054409
0.480000000000000315,-5.755233878746268239
0.481000000000000316,-5.732749291933854963
0.482000000000000317,-5.709945964112736583
0.483000000000000318,-5.686833520181655999
0.484000000000000319,-5.663421512838862526
0.485000000000000320,-5.639719419758893793
0.486000000000000321,-5.615736640883625341
0.487000000000000322,-5.591482495826552324
0.488000000000000322,-5.566966221389147762
0.489000000000000323,-5.542196969188295519
0.490000000000000324,-5.517183803393311159
0.491000000000000325,-5.491935698571344560
0.492000000000000326,-5.466461537639624169
0.493000000000000327,-5.440770109923184883
0.494000000000000328,-5.414870109316359148
0.495000000000000329,-5.388770132546565783
0.496000000000000330,-5.362478677538558891
0.497000000000000330,-5.336004141877672247
0.498000000000000331,-5.309354821369934641
0.499000000000000332,-5.282538908697665292
0.500000000000000333,-5.255564492168438129
0.501000000000000334,-5.228439554555599500
0.502000000000000335,-5.201171972028573620
0.503000000000000336,-5.173769513170928036
0.504000000000000337,-5.146239838084328611
0.505000000000000338,-5.118590497576408715
0.506000000000000338,-5.090828932430658149
0.507000000000000339,-5.062962472756313836
0.508000000000000340,-5.034998337416267233
0.509000000000000341,-5.006943633531184545
0.510000000000000342,-4.978805356057588227
0.511000000000000343,-4.950590387438230877
0.512000000000000344,-4.922305497322549961
0.513000000000000345,-4.893957342355417239
0.514000000000000346,-4.865552466032185386
0.515000000000000346,-4.837097298618037833
0.516000000000000347,-4.808598157129783779
0.517000000000000348,-4.780061245378207424
0.518000000000000349,-4.751492654068968591
0.519000000000000350,-4.722898360960334330
0.520000000000000351,-4.694284231075689817
0.521000000000000352,-4.665656016969230713
0.522000000000000353,-4.637019359042769295
0.523000000000000353,-4.608379785912026350
0.524000000000000354,-4.579742714820612015
0.525000000000000355,-4.551113452099877499
0.526000000000000356,-4.522497193672959881
0.527000000000000357,-4.493899025601383990
0.528000000000000358,-4.465323924672378375
0.529000000000000359,-4.436776759025508277
0.530000000000000360,-4.408262288816731989
0.531000000000000361,-4.379785166918536810
0.532000000000000361,-4.351349939654429733
0.533000000000000362,-4.322961047566336923
0.534000000000000363,-4.294622826213362110
0.535000000000000364,-4.266339507000479259
0.536000000000000365,-4.238115218035659382
0.537000000000000366,-4.209953985014076139
0.538000000000000367,-4.181859732127918505
0.539000000000000368,-4.153836283000615026
0.540000000000000369,-4.125887361643934881
0.541000000000000369,-4.098016593436888400
0.542000000000000370,-4.070227506124962424
0.543000000000000371,-4.042523530838626478
0.544000000000000372,-4.014908003129784575
0.545000000000000373,-3.987384164025097100
0.546000000000000374,-3.959955161094917742
0.547000000000000375,-3.932624049536828092
0.548000000000000376,-3.905393793272643244
0.549000000000000377,-3.878267266057835450
0.550000000000000377,-3.851247252602340243
0.551000000000000378,-3.824336449701732477
0.552000000000000379,-3.797537467377880116
0.553000000000000380,-3.770852830028017078
0.554000000000000381,-3.744284977581365581
0.555000000000000382,-3.717836266662528200
0.556000000000000383,-3.691508971760525615
0.557000000000000384,-3.665305286402984031
0.558000000000000385,-3.639227324334329161
0.559000000000000385,-3.613277120697477862
0.560000000000000386,-3.587456633218090385
0.561000000000000387,-3.561767743390733099
0.562000000000000388,-3.536212257666204728
0.563000000000000389,-3.510791908639391945
0.564000000000000390,-3.485508356236935779
0.565000000000000391,-3.460363188904106213
0.566000000000000392,-3.435357924790248596
0.567000000000000393,-3.410494012932280050
0.568000000000000393,-3.385772834435535117
0.569000000000000394,-3.361195703651520539
0.570000000000000395,-3.336763869352076917
0.571000000000000396,-3.312478515899270892
0.572000000000000397,-3.288340764410771833
0.573000000000000398,-3.264351673920028674
0.574000000000000399,-3.240512242530972919
0.575000000000000400,-3.216823408566676257
0.576000000000000401,-3.193286051711655027
0.577000000000000401,-3.169900994147448525
0.578000000000000402,-3.146669001680957312
0.579000000000000403,-3.123590784865339920
0.580000000000000404,-3.100667000113093152
0.581000000000000405,-3.077898250800900737
0.582000000000000406,-3.055285088366104684
0.583000000000000407,-3.032828013394345046
0.584000000000000408,-3.010527476698232618
0.585000000000000409,-2.988383880386715763
0.586000000000000409,-2.966397578924899303
0.587000000000000410,-2.944568880184154747
0.588000000000000411,-2.922898046482188761
0.589000000000000412,-2.901385295613010840
0.590000000000000413,-2.880030801866459100
0.591000000000000414,-2.858834697037222483
0.592000000000000415,-2.837797071423170614
0.593000000000000416,-2.816917974812769732
0.594000000000000417,-2.796197417461503409
0.595000000000000417,-2.775635371057249667
0.596000000000000418,-2.755231769674236997
0.597000000000000419,-2.734986510715819108
0.598000000000000420,-2.714899455845636744
0.599000000000000421,-2.694970431907337982
0.600000000000000422,-2.675199231832608771
0.601000000000000423,-2.655585615537523481
0.602000000000000424,-2.636129310807143078
0.603000000000000425,-2.616830014168300522
0.604000000000000425,-2.597687391750508112
0.605000000000000426,-2.578701080134991663
0.606000000000000427,-2.559870687191849292
0.607000000000000428,-2.541195792905134088
0.608000000000000429,-2.522675950186184846
0.609000000000000430,-2.504310685674784764
0.610000000000000431,-2.486099500528536677
0.611000000000000432,-2.468041871200187920
0.612000000000000433,-2.450137250203020312
0.613000000000000433,-2.432385066864368728
