# Montmorillonite-001-CEC0_ASPPSCA-AC
# h[nm],U(h)[kJ/mol]
0.149999999999999994,64.717434327525140247
0.150999999999999995,62.967200342300749583
0.151999999999999996,62.037676307018458033
0.152999999999999997,61.259834098170493633
0.153999999999999998,60.403475507083911111
0.154999999999999999,59.438222073856557870
0.156000000000000000,58.406880311516509607
0.157000000000000001,57.364139558410194297
0.158000000000000002,56.351526368218287644
0.159000000000000002,55.391123879904476723
0.160000000000000003,54.487908088357393410
0.161000000000000004,53.635109740078029006
0.162000000000000005,52.819761011278366425
0.163000000000000006,52.027184982147311132
0.164000000000000007,51.244065887714953078
0.165000000000000008,50.460181436404745625
0.166000000000000009,49.669066325418782526
0.167000000000000010,48.867922444697015294
0.168000000000000010,48.057066015570036654
0.169000000000000011,47.239146367981369679
0.170000000000000012,46.418308399278487286
0.171000000000000013,45.599412918635707115
0.172000000000000014,44.787381268102699039
0.173000000000000015,43.986694178577394609
0.174000000000000016,43.201049083269893458
0.175000000000000017,42.433163454313117313
0.176000000000000018,41.684702241210288776
0.177000000000000018,40.956303325335468912
0.178000000000000019,40.247674448139882486
0.179000000000000020,39.557737003908059137
0.180000000000000021,38.884795391714931156
0.181000000000000022,38.226714546585412791
0.182000000000000023,37.581092295369423084
0.183000000000000024,36.945416969433829024
0.184000000000000025,36.317204054546664338
0.185000000000000026,35.694108471457916210
0.186000000000000026,35.074011333692915571
0.187000000000000027,34.455081744503637253
0.188000000000000028,33.835815424199850554
0.189000000000000029,33.215052768798642546
0.190000000000000030,32.591979403142161686
0.191000000000000031,31.966112477288426419
0.192000000000000032,31.337275929813785069
0.193000000000000033,30.705567763849330731
0.194000000000000034,30.071322100793700827
0.195000000000000034,29.435068433530737764
0.196000000000000035,28.797490128140985632
0.197000000000000036,28.159383845480640218
0.198000000000000037,27.521621189951225972
0.199000000000000038,26.885113555041233013
0.200000000000000039,26.250780831924117820
0.201000000000000040,25.619524382998758227
0.202000000000000041,24.992204458360529173
0.203000000000000042,24.369622049265121433
0.204000000000000042,23.752505026635081009
0.205000000000000043,23.141498301490372569
0.206000000000000044,22.537157664161128423
0.207000000000000045,21.939946906271273974
0.208000000000000046,21.350237799706611952
0.209000000000000047,20.768312496157044222
0.210000000000000048,20.194367915642793321
0.211000000000000049,19.628521709308280663
0.212000000000000050,19.070819407663933021
0.213000000000000050,18.521242397733317375
0.214000000000000051,17.979716408950245921
0.215000000000000052,17.446120226255832364
0.216000000000000053,16.920294388113948258
0.217000000000000054,16.402049665857397542
0.218000000000000055,15.891175157939475326
0.219000000000000056,15.387445867586402315
0.220000000000000057,14.890629664524642095
0.221000000000000058,14.400493560579665342
0.222000000000000058,13.916809254832283926
0.223000000000000059,13.439357926634167839
0.224000000000000060,12.967934274166188047
0.225000000000000061,12.502349812496905912
0.226000000000000062,12.042435458437115159
0.227000000000000063,11.588043440104978998
0.228000000000000064,11.139048577253978678
0.229000000000000065,10.695348984322887276
0.230000000000000066,10.256866252102861736
0.231000000000000066,9.823545166131827600
0.232000000000000067,9.395353020668093080
0.233000000000000068,8.972278586594368832
0.234000000000000069,8.554330790077861124
0.235000000000000070,8.141537156460415758
0.236000000000000071,7.733942070856807405
0.237000000000000072,7.331604903458727840
0.238000000000000073,6.934598043722624894
0.239000000000000073,6.543004883584147890
0.240000000000000074,6.156917785696978562
0.241000000000000075,5.776436068532964541
0.242000000000000076,5.401664036076205377
0.243000000000000077,5.032709075859223447
0.244000000000000078,4.669679845274075092
0.245000000000000079,4.312684562481636341
0.246000000000000080,3.961829414868401678
0.247000000000000081,3.617217094878589556
0.248000000000000081,3.278945470194789547
0.249000000000000082,2.947106392656309470
0.250000000000000111,2.621784647991456385
0.251000000000000112,2.303057046394479279
0.252000000000000113,1.990991652190246652
0.253000000000000114,1.685647149292230695
0.254000000000000115,1.387072337854946547
0.255000000000000115,1.095305756440239975
0.256000000000000116,0.810375423139197415
0.257000000000000117,0.532298688403015197
0.258000000000000118,0.261082191820696086
0.259000000000000119,-0.003278085278929077
0.260000000000000120,-0.260796679743790338
0.261000000000000121,-0.511498427472995898
0.262000000000000122,-0.755418173676615456
0.263000000000000123,-0.992600420841784681
0.264000000000000123,-1.223098922539469946
0.265000000000000124,-1.446976230951236175
0.266000000000000125,-1.664303205684432241
0.267000000000000126,-1.875158491087715928
0.268000000000000127,-2.079627968887135747
0.269000000000000128,-2.277804192544050643
0.270000000000000129,-2.469785809299092083
0.271000000000000130,-2.655676975417696983
0.272000000000000131,-2.835586769698362097
0.273000000000000131,-3.009628609851151992
0.274000000000000132,-3.177919675904808283
0.275000000000000133,-3.340580344360980725
0.276000000000000134,-3.497733636386486378
0.277000000000000135,-3.649504682921700383
0.278000000000000136,-3.796020209188658789
0.279000000000000137,-3.937408040706374290
0.280000000000000138,-4.073796632565639619
0.281000000000000139,-4.205314623382180095
0.282000000000000139,-4.332090415035355413
0.283000000000000140,-4.454251779010733436
0.284000000000000141,-4.571925489898315931
0.285000000000000142,-4.685236986354238908
0.286000000000000143,-4.794310059611516017
0.287000000000000144,-4.899266569424704620
0.288000000000000145,-5.000226187153716140
0.289000000000000146,-5.097306165531603206
0.290000000000000147,-5.190621134520817748
0.291000000000000147,-5.280282922539354828
0.292000000000000148,-5.366400402233091782
0.293000000000000149,-5.449079359880936835
0.294000000000000150,-5.528422387445456110
0.295000000000000151,-5.604528796221369902
0.296000000000000152,-5.677494550987217892
0.297000000000000153,-5.747412223530334430
0.298000000000000154,-5.814370964391151198
0.299000000000000155,-5.878456491658713645
0.300000000000000155,-5.939751095644162149
0.301000000000000156,-5.998333658262033907
0.302000000000000157,-6.054279685959612856
0.303000000000000158,-6.107661355051251739
0.304000000000000159,-6.158547568337180422
0.305000000000000160,-6.207004021913592240
0.306000000000000161,-6.253093281112477086
0.307000000000000162,-6.296874864545005224
0.308000000000000163,-6.338405335260246076
0.309000000000000163,-6.377738398071935322
0.310000000000000164,-6.414925002148477162
0.311000000000000165,-6.450013448005362804
0.312000000000000166,-6.483049498084500151
0.313000000000000167,-6.514076490150483956
0.314000000000000168,-6.543135452780009409
0.315000000000000169,-6.570265222266589156
0.316000000000000170,-6.595502560308647233
0.317000000000000171,-6.618882271894027447
0.318000000000000171,-6.640437322838548262
0.319000000000000172,-6.660198956479790766
0.320000000000000173,-6.678196809069532947
0.321000000000000174,-6.694459023449472745
0.322000000000000175,-6.709012360634710959
0.323000000000000176,-6.721882308967631836
0.324000000000000177,-6.733093190541771023
0.325000000000000178,-6.742668264630195196
0.326000000000000179,-6.750629827886792889
0.327000000000000179,-6.756999311120381435
0.328000000000000180,-6.761797372471919587
0.329000000000000181,-6.765043986853649827
0.330000000000000182,-6.766758531535559840
0.331000000000000183,-6.766959867789995364
0.332000000000000184,-6.765666418528435422
0.333000000000000185,-6.762896241886569904
0.334000000000000186,-6.758667100733921629
0.335000000000000187,-6.752996528103105689
0.336000000000000187,-6.745901888551077086
0.337000000000000188,-6.737400435480362937
0.338000000000000189,-6.727509364462958885
0.339000000000000190,-6.716245862622431062
0.340000000000000191,-6.703627154141571509
0.341000000000000192,-6.689670541973707252
0.342000000000000193,-6.674393445844856387
0.343000000000000194,-6.657813436642577187
0.344000000000000195,-6.639948267294198736
0.345000000000000195,-6.620815900243778529
0.346000000000000196,-6.600434531642082270
0.347000000000000197,-6.578822612368560030
0.348000000000000198,-6.555998866007845649
0.349000000000000199,-6.531982303906017862
0.350000000000000200,-6.506792237434297022
0.351000000000000201,-6.480448287588953526
0.352000000000000202,-6.452970392057348015
0.353000000000000203,-6.424378809880184171
0.354000000000000203,-6.394694123839883559
0.355000000000000204,-6.363937240704172105
0.356000000000000205,-6.332129389453027279
0.357000000000000206,-6.299292117615499897
0.358000000000000207,-6.265447285840929581
0.359000000000000208,-6.230617060827164266
0.360000000000000209,-6.194823906725668294
0.361000000000000210,-6.158090575140769296
0.362000000000000210,-6.120440093837361317
0.363000000000000211,-6.081895754268233034
0.364000000000000212,-6.042481098028909869
0.365000000000000213,-6.002219902344426927
0.366000000000000214,-5.961136164688964456
0.367000000000000215,-5.919254086635599599
0.368000000000000216,-5.876598057029775113
0.369000000000000217,-5.833192634576244373
0.370000000000000218,-5.789062529925616651
0.371000000000000218,-5.744232587342638752
0.372000000000000219,-5.698727766034698661
0.373000000000000220,-5.652573121215189289
0.374000000000000221,-5.605793784972618710
0.375000000000000222,-5.558414947012527918
0.376000000000000223,-5.510461835335807024
0.377000000000000224,-5.461959696913147866
0.378000000000000225,-5.412933778411916919
0.379000000000000226,-5.363409307028232931
0.380000000000000226,-5.313411471473626690
0.381000000000000227,-5.262965403162213285
0.382000000000000228,-5.212096157641252780
0.383000000000000229,-5.160828696304649910
0.384000000000000230,-5.109187868425886236
0.385000000000000231,-5.057198393544115156
0.386000000000000232,-5.004884844233970398
0.387000000000000233,-4.952271629287143817
0.388000000000000234,-4.899382977330949629
0.389000000000000234,-4.846242920906654206
0.390000000000000235,-4.792875281027797030
0.391000000000000236,-4.739303652236444897
0.392000000000000237,-4.685551388173008647
0.393000000000000238,-4.631641587673201776
0.394000000000000239,-4.577597081403517620
0.395000000000000240,-4.523440419044831629
0.396000000000000241,-4.469193857031778627
0.397000000000000242,-4.414879346853764375
0.398000000000000242,-4.360518523921995460
0.399000000000000243,-4.306132697005145005
0.400000000000000244,-4.251742838234847888
0.401000000000000245,-4.197369573681038801
0.402000000000000246,-4.143033174495483806
0.403000000000000247,-4.088753548620955414
0.404000000000000248,-4.034550233062238256
0.405000000000000249,-3.980442386714106107
0.406000000000000250,-3.926448783740413173
0.407000000000000250,-3.872587807497635648
0.408000000000000251,-3.818877444995212755
0.409000000000000252,-3.765335281884434782
0.410000000000000253,-3.711978497966793356
0.411000000000000254,-3.658823863212154581
0.412000000000000255,-3.605887734276505885
0.413000000000000256,-3.553186051508519849
0.414000000000000257,-3.500734336433692029
0.415000000000000258,-3.448547689704441588
0.416000000000000258,-3.396640789504166147
0.417000000000000259,-3.345027890392939351
0.418000000000000260,-3.293722822582282994
0.419000000000000261,-3.242738991626200828
0.420000000000000262,-3.192089378515496900
0.421000000000000263,-3.141786540162245789
0.422000000000000264,-3.091842610261176016
0.423000000000000265,-3.042269300514600427
0.424000000000000266,-2.993077902207657903
0.425000000000000266,-2.944279288120329241
0.426000000000000267,-2.895883914763000000
0.427000000000000268,-2.847901824922182357
0.428000000000000269,-2.800342650503149677
0.429000000000000270,-2.753215615656388504
0.430000000000000271,-2.706529540174685167
0.431000000000000272,-2.660292843148055475
0.432000000000000273,-2.614513546863648674
0.433000000000000274,-2.569199280938080143
0.434000000000000274,-2.524357286669676625
0.435000000000000275,-2.479994421598489485
0.436000000000000276,-2.436117164261976775
0.437000000000000277,-2.392731619134543575
0.438000000000000278,-2.349843521739369834
0.439000000000000279,-2.307458243921172159
0.440000000000000280,-2.265580799268759105
0.441000000000000281,-2.224215848676549534
0.442000000000000282,-2.183367706034463840
0.443000000000000282,-2.143040344035793687
0.444000000000000283,-2.103237400093055154
0.445000000000000284,-2.063962182351982477
0.446000000000000285,-2.025217675794085626
0.447000000000000286,-1.987006548418665419
0.448000000000000287,-1.949331157495127087
0.449000000000000288,-1.912193555877069517
0.450000000000000289,-1.875595498369584391
0.451000000000000290,-1.839538448141724292
0.452000000000000290,-1.804023583176242340
0.453000000000000291,-1.769051802748986546
0.454000000000000292,-1.734623733930691802
0.455000000000000293,-1.700739738104061427
0.456000000000000294,-1.667399917489419847
0.457000000000000295,-1.634604121672393218
0.458000000000000296,-1.602351954127383404
0.459000000000000297,-1.570642778730855449
0.460000000000000298,-1.539475726258684674
0.461000000000000298,-1.508849700862133769
0.462000000000000299,-1.478763386517177203
0.463000000000000300,-1.449215253442200924
0.464000000000000301,-1.420203564479351144
0.465000000000000302,-1.391726381435018922
0.466000000000000303,-1.363781571375111579
0.467000000000000304,-1.336366812871132570
0.468000000000000305,-1.309479602193192038
0.469000000000000306,-1.283117259446293845
0.470000000000000306,-1.257276934646551769
0.471000000000000307,-1.231955613734023958
0.472000000000000308,-1.207150124519244638
0.473000000000000309,-1.182857142560543640
0.474000000000000310,-1.159073196969596209
0.475000000000000311,-1.135794676142657167
0.476000000000000312,-1.113017833415330005
0.477000000000000313,-1.090738792638607846
0.478000000000000314,-1.068953553674373724
0.479000000000000314,-1.047657997808536301
0.480000000000000315,-1.026847893080146124
0.481000000000000316,-1.006518899525091548
0.482000000000000317,-0.986666574332968005
0.483000000000000318,-0.967286376915999613
0.484000000000000319,-0.948373673888908142
0.485000000000000320,-0.929923743958868565
0.486000000000000321,-0.911931782724684892
0.487000000000000322,-0.894392907384581881
0.488000000000000322,-0.877302161351970589
0.489000000000000323,-0.860654518778848798
0.490000000000000324,-0.844444888986387143
0.491000000000000325,-0.828668120802534602
0.492000000000000326,-0.813319006806462297
0.493000000000000327,-0.798392287479821050
0.494000000000000328,-0.783882655264854233
0.495000000000000329,-0.769784758529468149
0.496000000000000330,-0.756093205439501537
0.497000000000000330,-0.742802567738464203
0.498000000000000331,-0.729907384435088180
0.499000000000000332,-0.717402165399165570
0.500000000000000333,-0.705281394866123734
0.501000000000000334,-0.693539534850913908
0.502000000000000335,-0.682171028471837415
0.503000000000000336,-0.671170303184980499
0.504000000000000337,-0.660531773929969979
0.505000000000000338,-0.650249846187845648
0.506000000000000338,-0.640318918951869320
0.507000000000000339,-0.630733387612115171
0.508000000000000340,-0.621487646754777856
0.509000000000000341,-0.612576092877136547
0.510000000000000342,-0.603993127019139209
0.511000000000000343,-0.595733157312638983
0.512000000000000344,-0.587790601449319494
0.513000000000000345,-0.580159889068378343
0.514000000000000346,-0.572835464065084787
0.515000000000000346,-0.565811786821300622
0.516000000000000347,-0.559083336359127991
0.517000000000000348,-0.552644612418861758
0.518000000000000349,-0.546490137462378622
0.519000000000000350,-0.540614458603197123
0.520000000000000351,-0.535012149464408671
0.521000000000000352,-0.529677811965681977
0.522000000000000353,-0.524606078040594781
0.523000000000000353,-0.519791611285499888
0.524000000000000354,-0.515229108541205516
0.525000000000000355,-0.510913301408695508
0.526000000000000356,-0.506838957700140536
0.527000000000000357,-0.503000882826488693
0.528000000000000358,-0.499393921122840811
0.529000000000000359,-0.496012957112931585
0.530000000000000360,-0.492852916713909850
0.531000000000000361,-0.489908768382727622
0.532000000000000361,-0.487175524205343158
0.533000000000000362,-0.484648240930031782
0.534000000000000363,-0.482322020946000518
0.535000000000000364,-0.480192013208571578
0.536000000000000365,-0.478253414112161657
0.537000000000000366,-0.476501468312267917
0.538000000000000367,-0.474931469497671177
0.539000000000000368,-0.473538761114087769
0.540000000000000369,-0.472318737040419823
0.541000000000000369,-0.471266842218828530
0.542000000000000370,-0.470378573239782605
0.543000000000000371,-0.469649478883231830
0.544000000000000372,-0.469075160617088982
0.545000000000000373,-0.468651273054123074
0.546000000000000374,-0.468373524368395244
0.547000000000000375,-0.468237676672360326
0.548000000000000376,-0.468239546355716907
0.549000000000000377,-0.468375004387093008
0.550000000000000377,-0.468639976579621753
0.551000000000000378,-0.469030443821489840
0.552000000000000379,-0.469542442272454785
0.553000000000000380,-0.470172063527397932
0.554000000000000381,-0.470915454747874496
0.555000000000000382,-0.471768818762699105
0.556000000000000383,-0.472728414138495701
0.557000000000000384,-0.473790555221211940
0.558000000000000385,-0.474951612149510427
0.559000000000000385,-0.476208010840994678
0.560000000000000386,-0.477556232952143112
0.561000000000000387,-0.478992815812887662
0.562000000000000388,-0.480514352336681216
0.563000000000000389,-0.482117490906946333
0.564000000000000390,-0.483798935240721650
0.565000000000000391,-0.485555444230365452
0.566000000000000392,-0.487383831764104047
0.567000000000000393,-0.489280966526246641
0.568000000000000393,-0.491243771777827132
0.569000000000000394,-0.493269225118460330
0.570000000000000395,-0.495354358230129577
0.571000000000000396,-0.497496256603679410
0.572000000000000397,-0.499692059248710407
0.573000000000000398,-0.501938958387558531
0.574000000000000399,-0.504234199134095062
0.575000000000000400,-0.506575079157965513
0.576000000000000401,-0.508958948334955807
0.577000000000000401,-0.511383208384121213
0.578000000000000402,-0.513845312492298145
0.579000000000000403,-0.516342764926594699
0.580000000000000404,-0.518873120635497065
0.581000000000000405,-0.521433984839124731
0.582000000000000406,-0.524023012609234673
0.583000000000000407,-0.526637908439516966
0.584000000000000408,-0.529276425806709083
0.585000000000000409,-0.531936366723066212
0.586000000000000409,-0.534615581280705743
0.587000000000000410,-0.537311967188295103
0.588000000000000411,-0.540023469300592196
0.589000000000000412,-0.542748079141307516
0.590000000000000413,-0.545483834419723701
0.591000000000000414,-0.548228818541542262
0.592000000000000415,-0.550981160114381252
0.593000000000000416,-0.553739032448334223
0.594000000000000417,-0.556500653052016014
0.595000000000000417,-0.559264283124478956
0.596000000000000418,-0.562028227043383177
0.597000000000000419,-0.564790831849802055
0.598000000000000420,-0.567550486730020176
0.599000000000000421,-0.570305622494666653
0.600000000000000422,-0.573054711055537069
0.601000000000000423,-0.575796264900419907
0.602000000000000424,-0.578528836566250759
0.603000000000000425,-0.581251018110909179
0.604000000000000425,-0.583961440583939284
0.605000000000000426,-0.586658773496486319
0.606000000000000427,-0.589341724290760149
0.607000000000000428,-0.592009037809210215
0.608000000000000429,-0.594659495763801726
0.609000000000000430,-0.597291916205485274
0.610000000000000431,-0.599905152994250068
0.611000000000000432,-0.602498095269893286
0.612000000000000433,-0.605069666923750860
0.613000000000000433,-0.607618826071656182
