# Montmorillonite-001-CEC0_CS-3320-AC
# h[nm],U(h)[kJ/mol]
0.149999999999999994,63.123963083673551466
0.150999999999999995,61.788096825502734077
0.151999999999999996,60.620970950561414270
0.152999999999999997,59.522518616085690724
0.153999999999999998,58.445132549968789704
0.154999999999999999,57.371641928638382524
0.156000000000000000,56.300752199269666676
0.157000000000000001,55.237943506784155545
0.158000000000000002,54.190199841751976351
0.159000000000000002,53.163307922589318366
0.160000000000000003,52.160788217522373600
0.161000000000000004,51.183787934306749889
0.162000000000000005,50.231476708724954960
0.163000000000000006,49.301645568233254835
0.164000000000000007,48.391326483166118066
0.165000000000000008,47.497331872038287770
0.166000000000000009,46.616668647305644413
0.167000000000000010,45.746816558900754046
0.168000000000000010,44.885881292566239154
0.169000000000000011,44.032643417312414158
0.170000000000000012,43.186528221287645124
0.171000000000000013,42.347521224087671499
0.172000000000000014,41.516051496073615112
0.173000000000000015,40.692861089716885203
0.174000000000000016,39.878874713593610579
0.175000000000000017,39.075079766780412172
0.176000000000000018,38.282423289417273793
0.177000000000000018,37.501729410668637854
0.178000000000000019,36.733638523591807257
0.179000000000000020,35.978567659649648647
0.180000000000000021,35.236690309932654941
0.181000000000000022,34.507933164597815789
0.182000000000000023,33.791986831076023634
0.183000000000000024,33.088327463116300464
0.184000000000000025,32.396246312597192230
0.185000000000000026,31.714884440373687369
0.186000000000000026,31.043270138340282926
0.187000000000000027,30.380356980135967859
0.188000000000000028,29.725060800018503926
0.189000000000000029,29.076294274474783208
0.190000000000000030,28.432998132422021342
0.191000000000000031,27.794168336627784299
0.192000000000000032,27.158878855170378586
0.193000000000000033,26.526299874920120203
0.194000000000000034,25.895711499369543418
0.195000000000000034,25.266513122781738332
0.196000000000000035,24.638228784920777059
0.197000000000000036,24.010508889675758581
0.198000000000000037,23.383128721142998785
0.199000000000000038,22.755984216702135114
0.200000000000000039,22.129085462676862051
0.201000000000000040,21.502548368383191502
0.202000000000000041,20.876584952432232001
0.203000000000000042,20.251492644340174820
0.204000000000000042,19.627642967626485415
0.205000000000000043,19.005469930042195870
0.206000000000000044,18.385458404330073279
0.207000000000000045,17.768132740566379368
0.208000000000000046,17.154045809908460285
0.209000000000000047,16.543768640408281101
0.210000000000000048,15.937880769121179014
0.211000000000000049,15.336961401489441315
0.212000000000000050,14.741581439171753232
0.213000000000000050,14.152296411235766982
0.214000000000000051,13.569640320918846754
0.215000000000000052,12.994120400891285172
0.216000000000000053,12.426212753953491230
0.217000000000000054,11.866358843143121504
0.218000000000000055,11.314962785065667106
0.219000000000000056,10.772389392622182314
0.220000000000000057,10.238962907907250610
0.221000000000000058,9.714966362617303730
0.222000000000000058,9.200641501566076741
0.223000000000000059,8.696189204601774136
0.224000000000000060,8.201770343113270911
0.225000000000000061,7.717507009183075084
0.226000000000000062,7.243484058090881028
0.227000000000000063,6.779750908113970631
0.228000000000000064,6.326323545251077540
0.229000000000000065,5.883186684474084771
0.230000000000000066,5.450296043270562052
0.231000000000000066,5.027580687474049626
0.232000000000000067,4.614945413607348002
0.233000000000000068,4.212273136113386052
0.234000000000000069,3.819427251865094242
0.235000000000000070,3.436253958184474211
0.236000000000000071,3.062584504230008609
0.237000000000000072,2.698237359004944214
0.238000000000000073,2.343020282383313280
0.239000000000000073,1.996732288436190883
0.240000000000000074,1.659165492962784372
0.241000000000000075,1.330106839495098114
0.242000000000000076,1.009339700153050190
0.243000000000000077,0.696645349589612550
0.244000000000000078,0.391804311893951152
0.245000000000000079,0.094597581726495503
0.246000000000000080,-0.195192277840964656
0.247000000000000081,-0.477780157301875619
0.248000000000000081,-0.753377538201036145
0.249000000000000082,-1.022191741156712297
0.250000000000000111,-1.284425278925792613
0.251000000000000112,-1.540275308630758344
0.252000000000000113,-1.789933176997757558
0.253000000000000114,-2.033584052287327637
0.254000000000000115,-2.271406636524718081
0.255000000000000115,-2.503572951638925570
0.256000000000000116,-2.730248193190228712
0.257000000000000117,-2.951590645493470610
0.258000000000000118,-3.167751652118561356
0.259000000000000119,-3.378875635963577651
0.260000000000000120,-3.585100163340170898
0.261000000000000121,-3.786556046778929208
0.262000000000000122,-3.983367481548596434
0.263000000000000123,-4.175652211180494788
0.264000000000000123,-4.363521717595033600
0.265000000000000124,-4.547081431734907753
0.266000000000000125,-4.726430960917372026
0.267000000000000126,-4.901664329421417499
0.268000000000000127,-5.072870229123527253
0.269000000000000128,-5.240132277284303086
0.270000000000000129,-5.403529278867237551
0.271000000000000130,-5.563135491038336156
0.272000000000000131,-5.719020887749620030
0.273000000000000131,-5.871251422551139854
0.274000000000000132,-6.019889288003214212
0.275000000000000133,-6.164993170274024159
0.276000000000000134,-6.306618497706567794
0.277000000000000135,-6.444817682323265906
0.278000000000000136,-6.579640353407510744
0.279000000000000137,-6.711133582458001179
0.280000000000000138,-6.839342098954962701
0.281000000000000139,-6.964308496508162527
0.282000000000000139,-7.086073429074443375
0.283000000000000140,-7.204675797038959217
0.284000000000000141,-7.320152923049313642
0.285000000000000142,-7.432540717576356037
0.286000000000000143,-7.541873834249978259
0.287000000000000144,-7.648185815083405892
0.288000000000000145,-7.751509225756469057
0.289000000000000146,-7.851875781176461899
0.290000000000000147,-7.949316461576840354
0.291000000000000147,-8.043861619448174238
0.292000000000000148,-8.135541077624186102
0.293000000000000149,-8.224384218867927032
0.294000000000000150,-8.310420067320830384
0.295000000000000151,-8.393677362190018698
0.296000000000000152,-8.474184624057865989
0.297000000000000153,-8.551970214202700760
0.298000000000000154,-8.627062387321203119
0.299000000000000155,-8.699489338041798803
0.300000000000000155,-8.769279241614471587
0.301000000000000156,-8.836460289156464754
0.302000000000000157,-8.901060717825611590
0.303000000000000158,-8.963108836283289804
0.304000000000000159,-9.022633045798599483
0.305000000000000160,-9.079661857333075403
0.306000000000000161,-9.134223904932859739
0.307000000000000162,-9.186347955741634763
0.308000000000000163,-9.236062916933725830
0.309000000000000163,-9.283397839852550959
0.310000000000000164,-9.328381921625126694
0.311000000000000165,-9.371044504508679651
0.312000000000000166,-9.411415073211106375
0.313000000000000167,-9.449523250412388720
0.314000000000000168,-9.485398790700038774
0.315000000000000169,-9.519071573117628304
0.316000000000000170,-9.550571592512079988
0.317000000000000171,-9.579928949851886699
0.318000000000000171,-9.607173841675935577
0.319000000000000172,-9.632336548820322975
0.320000000000000173,-9.655447424558472491
0.321000000000000174,-9.676536882278867324
0.322000000000000175,-9.695635382813756920
0.323000000000000176,-9.712773421522005179
0.324000000000000177,-9.727981515219553899
0.325000000000000178,-9.741290189041604819
0.326000000000000179,-9.752729963312356531
0.327000000000000179,-9.762331340489506459
0.328000000000000180,-9.770124792243482403
0.329000000000000181,-9.776140746724117037
0.330000000000000182,-9.780409576060691279
0.331000000000000183,-9.782961584135438926
0.332000000000000184,-9.783826994664533316
0.333000000000000185,-9.783035939615519538
0.334000000000000186,-9.780618447985297337
0.335000000000000187,-9.776604434958098722
0.336000000000000187,-9.771023691459228999
0.337000000000000188,-9.763905874116055372
0.338000000000000189,-9.755280495635016536
0.339000000000000190,-9.745176915599827794
0.340000000000000191,-9.733624331693599530
0.341000000000000192,-9.720651771345170999
0.342000000000000193,-9.706288083797536714
0.343000000000000194,-9.690561932594690120
0.344000000000000195,-9.673501788480972863
0.345000000000000195,-9.655135922706250540
0.346000000000000196,-9.635492400728264073
0.347000000000000197,-9.614599076302864589
0.348000000000000198,-9.592483585951812941
0.349000000000000199,-9.569173343796949283
0.350000000000000200,-9.544695536749127740
0.351000000000000201,-9.519077120039654005
0.352000000000000202,-9.492344813081661670
0.353000000000000203,-9.464525095648701480
0.354000000000000203,-9.435644204357560128
0.355000000000000204,-9.405728129442195495
0.356000000000000205,-9.374802611805893804
0.357000000000000206,-9.342893140338748736
0.358000000000000207,-9.310024949487504031
0.359000000000000208,-9.276223017065388987
0.360000000000000209,-9.241512062289510610
0.361000000000000210,-9.205916544033733828
0.362000000000000210,-9.169460659285432413
0.363000000000000211,-9.132168341794589139
0.364000000000000212,-9.094063260904418300
0.365000000000000213,-9.055168820552752962
0.366000000000000214,-9.015508158434087704
0.367000000000000215,-8.975104145312466031
0.368000000000000216,-8.933979384475891905
0.369000000000000217,-8.892156211323284154
0.370000000000000218,-8.849656693075571567
0.371000000000000218,-8.806502628602776994
0.372000000000000219,-8.762715548359523154
0.373000000000000220,-8.718316714421730396
0.374000000000000221,-8.673327120617747354
0.375000000000000222,-8.627767492747425493
0.376000000000000223,-8.581658288883273755
0.377000000000000224,-8.535019699748016109
0.378000000000000225,-8.487871649163334808
0.379000000000000226,-8.440233794564884207
0.380000000000000226,-8.392125527579173294
0.381000000000000227,-8.343565974657950690
0.382000000000000228,-8.294573997766342188
0.383000000000000229,-8.245168195121188148
0.384000000000000230,-8.195366901976131047
0.385000000000000231,-8.145188191450667858
0.386000000000000232,-8.094649875400277139
0.387000000000000233,-8.043769505325153446
0.388000000000000234,-7.992564373315265591
0.389000000000000234,-7.941051513029771414
0.390000000000000235,-7.889247700708784450
0.391000000000000236,-7.837169456215994146
0.392000000000000237,-7.784833044110524902
0.393000000000000238,-7.732254474746802941
0.394000000000000239,-7.679449505401189313
0.395000000000000240,-7.626433641424408272
0.396000000000000241,-7.573222137418826883
0.397000000000000242,-7.519829998439783836
0.398000000000000242,-7.466271981220343079
0.399000000000000243,-7.412562595418835443
0.400000000000000244,-7.358716104888648246
0.401000000000000245,-7.304746528969960018
0.402000000000000246,-7.250667643802943374
0.403000000000000247,-7.196492983662151843
0.404000000000000248,-7.142235842311928984
0.405000000000000249,-7.087909274382541369
0.406000000000000250,-7.033526096766898661
0.407000000000000250,-6.979098890037775504
0.408000000000000251,-6.924639999885338959
0.409000000000000252,-6.870161538574983240
0.410000000000000253,-6.815675386425338544
0.411000000000000254,-6.761193193306409555
0.412000000000000255,-6.706726380157805423
0.413000000000000256,-6.652286140526983971
0.414000000000000257,-6.597883442127454146
0.415000000000000258,-6.543529028416901205
0.416000000000000258,-6.489233420195136937
0.417000000000000259,-6.435006917221814504
0.418000000000000260,-6.380859599853826225
0.419000000000000261,-6.326801330702233273
0.420000000000000262,-6.272841756308677574
0.421000000000000263,-6.218990308841073400
0.422000000000000264,-6.165256207808454292
0.423000000000000265,-6.111648461794755072
0.424000000000000266,-6.058175870211419678
0.425000000000000266,-6.004847025068488442
0.426000000000000267,-5.951670312764031578
0.427000000000000268,-5.898653915891578947
0.428000000000000269,-5.845805815065292954
0.429000000000000270,-5.793133790762619029
0.430000000000000271,-5.740645425183950934
0.431000000000000272,-5.688348104129074656
0.432000000000000273,-5.636249018889968099
0.433000000000000274,-5.584355168159524041
0.434000000000000274,-5.532673359955813552
0.435000000000000275,-5.481210213561417355
0.436000000000000276,-5.429972161477398807
0.437000000000000277,-5.378965451391362507
0.438000000000000278,-5.328196148159170420
0.439000000000000279,-5.277670135799771067
0.440000000000000280,-5.227393119502554697
0.441000000000000281,-5.177370627646768142
0.442000000000000282,-5.127608013832357869
0.443000000000000282,-5.078110458921655912
0.444000000000000283,-5.028882973091371333
0.445000000000000284,-4.979930397894230865
0.446000000000000285,-4.931257408329610570
0.447000000000000286,-4.882868514922675374
0.448000000000000287,-4.834768065811198667
0.449000000000000288,-4.786960248839593923
0.450000000000000289,-4.739449093659362511
0.451000000000000290,-4.692238473835392831
0.452000000000000290,-4.645332108957422435
0.453000000000000291,-4.598733566755980107
0.454000000000000292,-4.552446265222164890
0.455000000000000293,-4.506473474730547046
0.456000000000000294,-4.460818320164588791
0.457000000000000295,-4.415483783043852917
0.458000000000000296,-4.370472703652345636
0.459000000000000297,-4.325787783167342582
0.460000000000000298,-4.281431585787982996
0.461000000000000298,-4.237406540863047688
0.462000000000000299,-4.193714945017181783
0.463000000000000300,-4.150358964274935225
0.464000000000000301,-4.107340636181993965
0.465000000000000302,-4.064661871922952585
0.466000000000000303,-4.022324458434940908
0.467000000000000304,-3.980330060516553914
0.468000000000000305,-3.938680222931413510
0.469000000000000306,-3.897376372505741760
0.470000000000000306,-3.856419820219436190
0.471000000000000307,-3.815811763289876701
0.472000000000000308,-3.775553287248095025
0.473000000000000309,-3.735645368006550449
0.474000000000000310,-3.696088873918087270
0.475000000000000311,-3.656884567825387844
0.476000000000000312,-3.618033109100583289
0.477000000000000313,-3.579535055674249122
0.478000000000000314,-3.541390866053474529
0.479000000000000314,-3.503600901328415951
0.480000000000000315,-3.466165427166830515
0.481000000000000316,-3.429084615796203828
0.482000000000000317,-3.392358547972886385
0.483000000000000318,-3.355987214937910856
0.484000000000000319,-3.319970520358953792
0.485000000000000320,-3.284308282258131761
0.486000000000000321,-3.249000234925103037
0.487000000000000322,-3.214046030815196353
0.488000000000000322,-3.179445242432081375
0.489000000000000323,-3.145197364194726397
0.490000000000000324,-3.111301814288205847
0.491000000000000325,-3.077757936498075608
0.492000000000000326,-3.044565002027932898
0.493000000000000327,-3.011722211299944441
0.494000000000000328,-2.979228695737958788
0.495000000000000329,-2.947083519532980311
0.496000000000000330,-2.915285681390705541
0.497000000000000330,-2.883834116260905578
0.498000000000000331,-2.852727697048343281
0.499000000000000332,-2.821965236305115088
0.500000000000000333,-2.791545487904099510
0.501000000000000334,-2.761467148693343976
0.502000000000000335,-2.731728860131233283
0.503000000000000336,-2.702329209902258444
0.504000000000000337,-2.673266733513173676
0.505000000000000338,-2.644539915869470015
0.506000000000000338,-2.616147192831983048
0.507000000000000339,-2.588086952753515302
0.508000000000000340,-2.560357537995361810
0.509000000000000341,-2.532957246423687359
0.510000000000000342,-2.505884332885575549
0.511000000000000343,-2.479137010664764773
0.512000000000000344,-2.452713452916932546
0.513000000000000345,-2.426611794084533980
0.514000000000000346,-2.400830131291110447
0.515000000000000346,-2.375366525715048027
0.516000000000000347,-2.350219003942750184
0.517000000000000348,-2.325385559301262894
0.518000000000000349,-2.300864153170249615
0.519000000000000350,-2.276652716273431132
0.520000000000000351,-2.252749149949422325
0.521000000000000352,-2.229151327402044025
0.522000000000000353,-2.205857094930113949
0.523000000000000353,-2.182864273136736699
0.524000000000000354,-2.160170658118230058
0.525000000000000355,-2.137774022632620508
0.526000000000000356,-2.115672117247874962
0.527000000000000357,-2.093862671469906900
0.528000000000000358,-2.072343394850391984
0.529000000000000359,-2.051111978074579234
0.530000000000000360,-2.030166094029081325
0.531000000000000361,-2.009503398849834976
0.532000000000000361,-1.989121532950265392
0.533000000000000362,-1.969018122029832174
0.534000000000000363,-1.949190778063022211
0.535000000000000364,-1.929637100268941863
0.536000000000000365,-1.910354676061630341
0.537000000000000366,-1.891341081981235295
0.538000000000000367,-1.872593884606161607
0.539000000000000368,-1.854110641446403474
0.540000000000000369,-1.835888901818110153
0.541000000000000369,-1.817926207699635865
0.542000000000000370,-1.800220094569177309
0.543000000000000371,-1.782768092224151335
0.544000000000000372,-1.765567725582524616
0.545000000000000373,-1.748616515466225207
0.546000000000000374,-1.731911979366806964
0.547000000000000375,-1.715451632193560227
0.548000000000000376,-1.699232987004253292
0.549000000000000377,-1.683253555718653427
0.550000000000000377,-1.667510849815021290
0.551000000000000378,-1.652002381009792131
0.552000000000000379,-1.636725661920590991
0.553000000000000380,-1.621678206712803050
0.554000000000000381,-1.606857531729857680
0.555000000000000382,-1.592261156107475317
0.556000000000000383,-1.577886602371985969
0.557000000000000384,-1.563731397023017777
0.558000000000000385,-1.549793071100659336
0.559000000000000385,-1.536069160737369099
0.560000000000000386,-1.522557207694770209
0.561000000000000387,-1.509254759885588992
0.562000000000000388,-1.496159371880884326
0.563000000000000389,-1.483268605402815465
0.564000000000000390,-1.470580029803123967
0.565000000000000391,-1.458091222527535535
0.566000000000000392,-1.445799769566296078
0.567000000000000393,-1.433703265891043133
0.568000000000000393,-1.421799315878199188
0.569000000000000394,-1.410085533719116713
0.570000000000000395,-1.398559543817156303
0.571000000000000396,-1.387218981171910892
0.572000000000000397,-1.376061491750787624
0.573000000000000398,-1.365084732848121263
0.574000000000000399,-1.354286373432059154
0.575000000000000400,-1.343664094479380955
0.576000000000000401,-1.333215589298482939
0.577000000000000401,-1.322938563840715842
0.578000000000000402,-1.312830737000269421
0.579000000000000403,-1.302889840902799801
0.580000000000000404,-1.293113621183025419
0.581000000000000405,-1.283499837251444564
0.582000000000000406,-1.274046262550396325
0.583000000000000407,-1.264750684799659464
0.584000000000000408,-1.255610906231765966
0.585000000000000409,-1.246624743817228875
0.586000000000000409,-1.237790029479881149
0.587000000000000410,-1.229104610302500067
0.588000000000000411,-1.220566348722913030
0.589000000000000412,-1.212173122720770824
0.590000000000000413,-1.203922825995163537
0.591000000000000414,-1.195813368133265664
0.592000000000000415,-1.187842674770208662
0.593000000000000416,-1.180008687740317530
0.594000000000000417,-1.172309365219929900
0.595000000000000417,-1.164742681861972606
0.596000000000000418,-1.157306628922413427
0.597000000000000419,-1.149999214378851331
0.598000000000000420,-1.142818463041326726
0.599000000000000421,-1.135762416655579532
0.600000000000000422,-1.128829133998895617
0.601000000000000423,-1.122016690968712593
0.602000000000000424,-1.115323180664146374
0.603000000000000425,-1.108746713460604383
0.604000000000000425,-1.102285417077633056
0.605000000000000426,-1.095937436640165519
0.606000000000000427,-1.089700934733344173
0.607000000000000428,-1.083574091450996590
0.608000000000000429,-1.077555104438049582
0.609000000000000430,-1.071642188926859918
0.610000000000000431,-1.065833577767782314
0.611000000000000432,-1.060127521453984922
0.612000000000000433,-1.054522288140716801
0.613000000000000433,-1.049016163659183043
