# Montmorillonite-001-CEC0_METHOXYPHENOL-AC
# h[nm],U(h)[kJ/mol]
0.149999999999999994,73.584745425488321757
0.150999999999999995,72.768175150328303857
0.151999999999999996,71.271993927441570804
0.152999999999999997,69.655327070845288517
0.153999999999999998,68.113325641430222390
0.154999999999999999,66.676769304609152300
0.156000000000000000,65.316365660124631631
0.157000000000000001,63.992429846379060621
0.158000000000000002,62.674763381636481085
0.159000000000000002,61.347437975670388255
0.160000000000000003,60.006861636208341793
0.161000000000000004,58.657635951412828490
0.162000000000000005,57.308420100746033654
0.163000000000000006,55.968713858440779063
0.164000000000000007,54.646776359323169459
0.165000000000000008,53.348563569710371723
0.166000000000000009,52.077439604750153990
0.167000000000000010,50.834399081377867446
0.168000000000000010,49.618571958126878485
0.169000000000000011,48.427835708066290010
0.170000000000000012,47.259414419877678881
0.171000000000000013,46.110392007114931801
0.172000000000000014,44.978103990987634120
0.173000000000000015,43.860399110351217189
0.174000000000000016,42.755779549083932523
0.175000000000000017,41.663438659918845985
0.176000000000000018,40.583219575495832032
0.177000000000000018,39.515518717908520330
0.178000000000000019,38.461156343893456722
0.179000000000000020,37.421232979369939642
0.180000000000000021,36.396986700734842657
0.181000000000000022,35.389662261087565298
0.182000000000000023,34.400399389272457995
0.183000000000000024,33.430144408707846537
0.184000000000000025,32.479586721511758185
0.185000000000000026,31.549119695249874695
0.186000000000000026,30.638824039239068497
0.187000000000000027,29.748470800429629435
0.188000000000000028,28.877540567265953086
0.189000000000000029,28.025255261904341353
0.190000000000000030,27.190618948409337463
0.191000000000000031,26.372464316211544855
0.192000000000000032,25.569501852986032731
0.193000000000000033,24.780369148408592395
0.194000000000000034,24.003678229414727952
0.195000000000000034,23.238059287548679777
0.196000000000000035,22.482199597069289609
0.197000000000000036,21.734876823160778514
0.198000000000000037,20.994986273273926969
0.199000000000000038,20.261561946411852375
0.200000000000000039,19.533791483832690261
0.201000000000000040,18.811025321619741391
0.202000000000000041,18.092780494216178511
0.203000000000000042,17.378739642919480701
0.204000000000000042,16.668745849764640354
0.205000000000000043,15.962793950779110119
0.206000000000000044,15.261018988825790998
0.207000000000000045,14.563682450490645692
0.208000000000000046,13.871156898647356570
0.209000000000000047,13.183909566888436515
0.210000000000000048,12.502485427856921518
0.211000000000000049,11.827490188002490967
0.212000000000000050,11.159573599231585206
0.213000000000000050,10.499413415627934398
0.214000000000000051,9.847700262710560537
0.215000000000000052,9.205123628975460548
0.216000000000000053,8.572359135759997528
0.217000000000000054,7.950057192476549517
0.218000000000000055,7.338833100413320487
0.219000000000000056,6.739258629795903843
0.220000000000000057,6.151855061656693380
0.221000000000000058,5.577087658148271565
0.222000000000000058,5.015361502013045758
0.223000000000000059,4.467018627673556175
0.224000000000000060,3.932336352453291717
0.225000000000000061,3.411526706370447304
0.226000000000000062,2.904736852339675046
0.227000000000000063,2.412050385040403366
0.228000000000000064,1.933489395746929018
0.229000000000000065,1.469017191659614419
0.230000000000000066,1.018541561354005864
0.231000000000000066,0.581918482519729108
0.232000000000000067,0.158956173877338458
0.233000000000000068,-0.250580600252133689
0.234000000000000069,-0.646966057048343091
0.235000000000000070,-1.030508830694681244
0.236000000000000071,-1.401547385224916953
0.237000000000000072,-1.760445465835115852
0.238000000000000073,-2.107587642067528577
0.239000000000000073,-2.443374988777232026
0.240000000000000074,-2.768220943607386353
0.241000000000000075,-3.082547372891830673
0.242000000000000076,-3.386780871529345482
0.243000000000000077,-3.681349316467607657
0.244000000000000078,-3.966678688018552723
0.245000000000000079,-4.243190168312575672
0.246000000000000080,-4.511297521786437059
0.247000000000000081,-4.771404758683467584
0.248000000000000081,-5.023904079108669762
0.249000000000000082,-5.269174092208099403
0.250000000000000111,-5.507578302507588397
0.251000000000000112,-5.739463853323755416
0.252000000000000113,-5.965160515423622023
0.253000000000000114,-6.184979907724956760
0.254000000000000115,-6.399214935772272739
0.255000000000000115,-6.608139432957917947
0.256000000000000116,-6.812007988957870630
0.257000000000000117,-7.011055949586446623
0.258000000000000118,-7.205499572215453341
0.259000000000000119,-7.395536321025710791
0.260000000000000120,-7.581345286636187453
0.261000000000000121,-7.763087715064560079
0.262000000000000122,-7.940907631492424734
0.263000000000000123,-8.114932544916374724
0.264000000000000123,-8.285274220446810389
0.265000000000000124,-8.452029506750530885
0.266000000000000125,-8.615281206908388612
0.267000000000000126,-8.775098981759670735
0.268000000000000127,-8.931540275621202341
0.269000000000000128,-9.084651255088687094
0.270000000000000129,-9.234467752443070054
0.271000000000000130,-9.381016205987824819
0.272000000000000131,-9.524314590426588012
0.273000000000000131,-9.664373331150224899
0.274000000000000132,-9.801196197032869151
0.275000000000000133,-9.934781167034778093
0.276000000000000134,-10.065121266573004988
0.277000000000000135,-10.192205370246341545
0.278000000000000136,-10.316018968088823016
0.279000000000000137,-10.436544893073886442
0.280000000000000138,-10.553764008099395966
0.281000000000000139,-10.667655851152977320
0.282000000000000139,-10.778199237786450837
0.283000000000000140,-10.885372820419988216
0.284000000000000141,-10.989155604350685280
0.285000000000000142,-11.089527420658896517
0.286000000000000143,-11.186469356489414650
0.287000000000000144,-11.279964143435716295
0.288000000000000145,-11.369996504975580009
0.289000000000000146,-11.456553464096254302
0.290000000000000147,-11.539624612410669613
0.291000000000000147,-11.619202342202608946
0.292000000000000148,-11.695282042951932411
0.293000000000000149,-11.767862263981193394
0.294000000000000150,-11.836944844935398891
0.295000000000000151,-11.902535015857804268
0.296000000000000152,-11.964641468659028334
0.297000000000000153,-12.023276401795410351
0.298000000000000154,-12.078455539977571931
0.299000000000000155,-12.130198130722323668
0.300000000000000155,-12.178526919542584039
0.301000000000000156,-12.223468105541254403
0.302000000000000157,-12.265051279138361906
0.303000000000000158,-12.303309343616199101
0.304000000000000159,-12.338278422116770727
0.305000000000000160,-12.369997751669844277
0.306000000000000161,-12.398509565769820995
0.307000000000000162,-12.423858966955881655
0.308000000000000163,-12.446093790783379518
0.309000000000000163,-12.465264462506043586
0.310000000000000164,-12.481423847718875919
0.311000000000000165,-12.494627098140771437
0.312000000000000166,-12.504931493645434770
0.313000000000000167,-12.512396281578158863
0.314000000000000168,-12.517082514326336451
0.315000000000000169,-12.519052886042327799
0.316000000000000170,-12.518371569349818984
0.317000000000000171,-12.515104052798463385
0.318000000000000171,-12.509316979767353573
0.319000000000000172,-12.501077989455662731
0.320000000000000173,-12.490455560538421764
0.321000000000000174,-12.477518858007716318
0.322000000000000175,-12.462337583664110596
0.323000000000000176,-12.444981830670091227
0.324000000000000177,-12.425521942526984276
0.325000000000000178,-12.404028376788714283
0.326000000000000179,-12.380571573780937200
0.327000000000000179,-12.355221830550842554
0.328000000000000180,-12.328049180233122684
0.329000000000000181,-12.299123276980006736
0.330000000000000182,-12.268513286567879206
0.331000000000000183,-12.236287782760634002
0.332000000000000184,-12.202514649479351050
0.333000000000000185,-12.167260988800048693
0.334000000000000186,-12.130593034775392525
0.335000000000000187,-12.092576073052775598
0.336000000000000187,-12.053274366239485005
0.337000000000000188,-12.012751084946190261
0.338000000000000189,-11.971068244422463422
0.339000000000000190,-11.928286646682071392
0.340000000000000191,-11.884465828001664178
0.341000000000000192,-11.839664011664222443
0.342000000000000193,-11.793938065807457960
0.343000000000000194,-11.747343466228137743
0.344000000000000195,-11.699934263984928862
0.345000000000000195,-11.651763057635985632
0.346000000000000196,-11.602880969941411493
0.347000000000000197,-11.553337628856629848
0.348000000000000198,-11.503181152639209373
0.349000000000000199,-11.452458138888953698
0.350000000000000200,-11.401213657339946295
0.351000000000000201,-11.349491246222113361
0.352000000000000202,-11.297332912010038086
0.353000000000000203,-11.244779132377521691
0.354000000000000203,-11.191868862177637212
0.355000000000000204,-11.138639542269823224
0.356000000000000205,-11.085127111018215018
0.357000000000000206,-11.031366018288162323
0.358000000000000207,-10.977389241770969974
0.359000000000000208,-10.923228305470981780
0.360000000000000209,-10.868913300192650340
0.361000000000000210,-10.814472905869717323
0.362000000000000210,-10.759934415583048306
0.363000000000000211,-10.705323761118274106
0.364000000000000212,-10.650665539919355496
0.365000000000000213,-10.595983043298984327
0.366000000000000214,-10.541298285771958376
0.367000000000000215,-10.486632035382701389
0.368000000000000216,-10.432003844903446677
0.369000000000000217,-10.377432083784574601
0.370000000000000218,-10.322933970744140098
0.371000000000000218,-10.268525606888593060
0.372000000000000219,-10.214222009261989754
0.373000000000000220,-10.160037144726171476
0.374000000000000221,-10.105983964079410242
0.375000000000000222,-10.052074436325989737
0.376000000000000223,-9.998319583014270151
0.377000000000000224,-9.944729512565452012
0.378000000000000225,-9.891313454520062720
0.379000000000000226,-9.838079793633784931
0.380000000000000226,-9.785036103758816495
0.381000000000000227,-9.732189181451072812
0.382000000000000228,-9.679545079248248030
0.383000000000000229,-9.627109138567323754
0.384000000000000230,-9.574886022174487366
0.385000000000000231,-9.522879746184141680
0.386000000000000232,-9.471093711547300842
0.387000000000000233,-9.419530734993346144
0.388000000000000234,-9.368193079392451494
0.389000000000000234,-9.317082483509384616
0.390000000000000235,-9.266200191122299756
0.391000000000000236,-9.215546979483432821
0.392000000000000237,-9.165123187101201552
0.393000000000000238,-9.114928740826147902
0.394000000000000239,-9.064963182225527660
0.395000000000000240,-9.015225693234089732
0.396000000000000241,-8.965715121070664040
0.397000000000000242,-8.916430002412464972
0.398000000000000242,-8.867368586821225307
0.399000000000000243,-8.818528859416982613
0.400000000000000244,-8.769908562797386509
0.401000000000000245,-8.721505218202082688
0.402000000000000246,-8.673316145923255505
0.403000000000000247,-8.625338484965006103
0.404000000000000248,-8.577569211955630379
0.405000000000000249,-8.530005159318205799
0.406000000000000250,-8.482643032705954766
0.407000000000000250,-8.435479427710221856
0.408000000000000251,-8.388510845849667774
0.409000000000000252,-8.341733709850430500
0.410000000000000253,-8.295144378227748305
0.411000000000000254,-8.248739159180376035
0.412000000000000255,-8.202514323809788621
0.413000000000000256,-8.156466118676892307
0.414000000000000257,-8.110590777709390409
0.415000000000000258,-8.064884533473650308
0.416000000000000258,-8.019343627825115561
0.417000000000000259,-7.973964321951950929
0.418000000000000260,-7.928742905826749343
0.419000000000000261,-7.883675707081453155
0.420000000000000262,-7.838759099320940393
0.421000000000000263,-7.793989509890870693
0.422000000000000264,-7.749363427115381953
0.423000000000000265,-7.704877407020577884
0.424000000000000266,-7.660528079559685288
0.425000000000000266,-7.616312154355649788
0.426000000000000267,-7.572226425977143904
0.427000000000000268,-7.528267778763850337
0.428000000000000269,-7.484433191216663950
0.429000000000000270,-7.440719739968622903
0.430000000000000271,-7.397124603351970862
0.431000000000000272,-7.353645064576855184
0.432000000000000273,-7.310278514536787675
0.433000000000000274,-7.267022454255977593
0.434000000000000274,-7.223874496993301086
0.435000000000000275,-7.180832370017528277
0.436000000000000276,-7.137893916068220435
0.437000000000000277,-7.095057094516318941
0.438000000000000278,-7.052319982238327789
0.439000000000000279,-7.009680774217713406
0.440000000000000280,-6.967137783886713009
0.441000000000000281,-6.924689443221632601
0.442000000000000282,-6.882334302604347087
0.443000000000000282,-6.840071030462331336
0.444000000000000283,-6.797898412699434623
0.445000000000000284,-6.755815351929095769
0.446000000000000285,-6.713820866521439612
0.447000000000000286,-6.671914089475608378
0.448000000000000287,-6.630094267127870644
0.449000000000000288,-6.588360757706294812
0.450000000000000289,-6.546713029742006640
0.451000000000000290,-6.505150660346998848
0.452000000000000290,-6.463673333368047835
0.453000000000000291,-6.422280837425935474
0.454000000000000292,-6.380973063849006977
0.455000000000000293,-6.339750004509554948
0.456000000000000294,-6.298611749571506380
0.457000000000000295,-6.257558485157286299
0.458000000000000296,-6.216590490941646507
0.459000000000000297,-6.175708137679890797
0.460000000000000298,-6.134911884677538119
0.461000000000000298,-6.094202277208387031
0.462000000000000299,-6.053579943887429593
0.463000000000000300,-6.013045594004963412
0.464000000000000301,-5.972600014827881054
0.465000000000000302,-5.932244068873923304
0.466000000000000303,-5.891978691164324822
0.467000000000000304,-5.851804886460135968
0.468000000000000305,-5.811723726487175057
0.469000000000000306,-5.771736347154357460
0.470000000000000306,-5.731843945769958815
0.471000000000000307,-5.692047778259956559
0.472000000000000308,-5.652349156392682872
0.473000000000000309,-5.612749445013462513
0.474000000000000310,-5.573250059292951697
0.475000000000000311,-5.533852461992535332
0.476000000000000312,-5.494558160750101727
0.477000000000000313,-5.455368705389058270
0.478000000000000314,-5.416285685253560800
0.479000000000000314,-5.377310726572573252
0.480000000000000315,-5.338445489855183190
0.481000000000000316,-5.299691667319573085
0.482000000000000317,-5.261050980357710571
0.483000000000000318,-5.222525177037796063
0.484000000000000319,-5.184116029646280488
0.485000000000000320,-5.145825332271148689
0.486000000000000321,-5.107654898428028112
0.487000000000000322,-5.069606558730503920
0.488000000000000322,-5.031682158605908839
0.489000000000000323,-4.993883556057842732
0.490000000000000324,-4.956212619476294101
0.491000000000000325,-4.918671225496456856
0.492000000000000326,-4.881261256906869406
0.493000000000000327,-4.843984600607759816
0.494000000000000328,-4.806843145620034896
0.495000000000000329,-4.769838781145554485
0.496000000000000330,-4.732973394678974266
0.497000000000000330,-4.696248870171612744
0.498000000000000331,-4.659667086247436529
0.499000000000000332,-4.623229914471475688
0.500000000000000333,-4.586939217670639835
0.501000000000000334,-4.550796848306978504
0.502000000000000335,-4.514804646903356478
0.503000000000000336,-4.478964440521400192
0.504000000000000337,-4.443278041291536695
0.505000000000000338,-4.407747244994876468
0.506000000000000338,-4.372373829696682535
0.507000000000000339,-4.337159554431030628
0.508000000000000340,-4.302106157936291808
0.509000000000000341,-4.267215357441035195
0.510000000000000342,-4.232488847499806361
0.511000000000000343,-4.197928298878304432
0.512000000000000344,-4.163535357487385014
0.513000000000000345,-4.129311643365307205
0.514000000000000346,-4.095258749707620716
0.515000000000000346,-4.061378241943996770
0.516000000000000347,-4.027671656861345539
0.517000000000000348,-3.994140501772588614
0.518000000000000349,-3.960786253730192108
0.519000000000000350,-3.927610358783926614
0.520000000000000351,-3.894614231281903649
0.521000000000000352,-3.861799253214244665
0.522000000000000353,-3.829166773598505102
0.523000000000000353,-3.796718107906053685
0.524000000000000354,-3.764454537528666656
0.525000000000000355,-3.732377309284371059
0.526000000000000356,-3.700487634961814987
0.527000000000000357,-3.668786690902296588
0.528000000000000358,-3.637275617618513479
0.529000000000000359,-3.605955519449330016
0.530000000000000360,-3.574827464249549003
0.531000000000000361,-3.543892483113947556
0.532000000000000361,-3.513151570134630752
0.533000000000000362,-3.482605682190911267
0.534000000000000363,-3.452255738770797500
0.535000000000000364,-3.422102621823264634
0.536000000000000365,-3.392147175640448431
0.537000000000000366,-3.362390206768922418
0.538000000000000367,-3.332832483949158764
0.539000000000000368,-3.303474738082434303
0.540000000000000369,-3.274317662224221159
0.541000000000000369,-3.245361911603357186
0.542000000000000370,-3.216608103666080076
0.543000000000000371,-3.188056818144157312
0.544000000000000372,-3.159708597146317910
0.545000000000000373,-3.131563945272167082
0.546000000000000374,-3.103623329747791981
0.547000000000000375,-3.075887180582304925
0.548000000000000376,-3.048355890744571361
0.549000000000000377,-3.021029816359326770
0.550000000000000377,-2.993909276921955520
0.551000000000000378,-2.966994555531208277
0.552000000000000379,-2.940285899139149173
0.553000000000000380,-2.913783518817581797
0.554000000000000381,-2.887487590040280772
0.555000000000000382,-2.861398252980374313
0.556000000000000383,-2.835515612822123721
0.557000000000000384,-2.809839740086545135
0.558000000000000385,-2.784370670970116812
0.559000000000000385,-2.759108407696028831
0.560000000000000386,-2.734052918877293958
0.561000000000000387,-2.709204139891137064
0.562000000000000388,-2.684561973264048884
0.563000000000000389,-2.660126289066941929
0.564000000000000390,-2.635896925319818784
0.565000000000000391,-2.611873688405393246
0.566000000000000392,-2.588056353491143380
0.567000000000000393,-2.564444664959237841
0.568000000000000393,-2.541038336843823409
0.569000000000000394,-2.517837053275162607
0.570000000000000395,-2.494840468930166644
0.571000000000000396,-2.472048209488751258
0.572000000000000397,-2.449459872095666846
0.573000000000000398,-2.427075025827230892
0.574000000000000399,-2.404893212162618532
0.575000000000000400,-2.382913945459186333
0.576000000000000401,-2.361136713431482015
0.577000000000000401,-2.339560977633509786
0.578000000000000402,-2.318186173943838746
0.579000000000000403,-2.297011713053171533
0.580000000000000404,-2.276036980954045497
0.581000000000000405,-2.255261339432238721
0.582000000000000406,-2.234684126559584705
0.583000000000000407,-2.214304657187818215
0.584000000000000408,-2.194122223443157882
0.585000000000000409,-2.174136095221287146
0.586000000000000409,-2.154345520682424464
0.587000000000000410,-2.134749726746212328
0.588000000000000411,-2.115347919586104908
0.589000000000000412,-2.096139285123013618
0.590000000000000413,-2.077122989517912632
0.591000000000000414,-2.058298179663162752
0.592000000000000415,-2.039663983672340475
0.593000000000000416,-2.021219511368255617
0.594000000000000417,-2.002963854768999852
0.595000000000000417,-1.984896088571823869
0.596000000000000418,-1.967015270634505431
0.597000000000000419,-1.949320442454203883
0.598000000000000420,-1.931810629643415878
0.599000000000000421,-1.914484842402985221
0.600000000000000422,-1.897342075991918620
0.601000000000000423,-1.880381311193873639
0.602000000000000424,-1.863601514780133028
0.603000000000000425,-1.847001639968940623
0.604000000000000425,-1.830580626881026518
0.605000000000000426,-1.814337402991198500
0.606000000000000427,-1.798270883575892043
0.607000000000000428,-1.782379972156467263
0.608000000000000429,-1.766663560938285915
0.609000000000000430,-1.751120531245276890
0.610000000000000431,-1.735749753950058150
