# Montmorillonite-001-CEC0_METHYLFORMATE-AC
# h[nm],U(h)[kJ/mol]
0.149999999999999994,55.967056575475545799
0.150999999999999995,54.080480369547402120
0.151999999999999996,53.264495157610880938
0.152999999999999997,52.682842302099253118
0.153999999999999998,52.027031835051879227
0.154999999999999999,51.237596303435864797
0.156000000000000000,50.353131900056517622
0.157000000000000001,49.434756800581709513
0.158000000000000002,48.533259100138373299
0.159000000000000002,47.678979581472674454
0.160000000000000003,46.882651514884670974
0.161000000000000004,46.140553811885261837
0.162000000000000005,45.440478294918214885
0.163000000000000006,44.766874843202828060
0.164000000000000007,44.104591327696880398
0.165000000000000008,43.441178889136423891
0.166000000000000009,42.767988533250957062
0.167000000000000010,42.080370455466415081
0.168000000000000010,41.377282798715278034
0.169000000000000011,40.660569883151858050
0.170000000000000012,39.934109171196318755
0.171000000000000013,39.202966386407972266
0.172000000000000014,38.472646497494594087
0.173000000000000015,37.748487310196836120
0.174000000000000016,37.035212229695346764
0.175000000000000017,36.336638139558061766
0.176000000000000018,35.655521555433971059
0.177000000000000018,34.993519444322124912
0.178000000000000019,34.351238699417493194
0.179000000000000020,33.728348828076590848
0.180000000000000021,33.123734830660524153
0.181000000000000022,32.535670673643707573
0.182000000000000023,31.961997578787809005
0.183000000000000024,31.400295142337274257
0.184000000000000025,30.848036797719082358
0.185000000000000026,30.302724191263877174
0.186000000000000026,29.761997586000177307
0.187000000000000027,29.223721434647075057
0.188000000000000028,28.686045798382071581
0.189000000000000029,28.147445384076483776
0.190000000000000030,27.606738691987054324
0.191000000000000031,27.063090174226651641
0.192000000000000032,26.515998465644493365
0.193000000000000033,25.965273721765605330
0.194000000000000034,25.411006934915086219
0.195000000000000034,24.853533843575970508
0.196000000000000035,24.293395737613430185
0.197000000000000036,23.731299122096821463
0.198000000000000037,23.168075857275660212
0.199000000000000038,22.604645058219237086
0.200000000000000039,22.041977726199668552
0.201000000000000040,21.481064802520727142
0.202000000000000041,20.922889088355027809
0.203000000000000042,20.368401262913788941
0.204000000000000042,19.818500056690460553
0.205000000000000043,19.274016494984643089
0.206000000000000044,18.735702016875045217
0.207000000000000045,18.204220193147715889
0.208000000000000046,17.680141709970328634
0.209000000000000047,17.163942249818536112
0.210000000000000048,16.656002883861042108
0.211000000000000049,16.156612587429954431
0.212000000000000050,15.665972499329305023
0.213000000000000050,15.184201563858536588
0.214000000000000051,14.711343219154340289
0.215000000000000052,14.247372824719608531
0.216000000000000053,13.792205553060338019
0.217000000000000054,13.345704503737604085
0.218000000000000055,12.907688831684072994
0.219000000000000056,12.477941714403678830
0.220000000000000057,12.056218013955085411
0.221000000000000058,11.642251518898765639
0.222000000000000058,11.235761678299885702
0.223000000000000059,10.836459764211106460
0.224000000000000060,10.444054420696726737
0.225000000000000061,10.058256576389826620
0.226000000000000062,9.678783713849380632
0.227000000000000063,9.305363502715620072
0.228000000000000064,8.937736814998789470
0.229000000000000065,8.575660149955471212
0.230000000000000066,8.218907503105159051
0.231000000000000066,7.867271719218983606
0.232000000000000067,7.520565372781922164
0.233000000000000068,7.178621221689527765
0.234000000000000069,6.841292280988693797
0.235000000000000070,6.508451563492426040
0.236000000000000071,6.179991533266012027
0.237000000000000072,5.855823316452832827
0.238000000000000073,5.535875711829357115
0.239000000000000073,5.220094040978389138
0.240000000000000074,4.908438875161385440
0.241000000000000075,4.600884672957320731
0.242000000000000076,4.297418359601133275
0.243000000000000077,3.998037875774284711
0.244000000000000078,3.702750720435377563
0.245000000000000079,3.411572509179921386
0.246000000000000080,3.124525566628128637
0.247000000000000081,2.841637568487668908
0.248000000000000081,2.562940246251820930
0.249000000000000082,2.288468164987973452
0.250000000000000111,2.018257582359060276
0.251000000000000112,1.752345394908366716
0.252000000000000113,1.490768175726833178
0.253000000000000114,1.233561305912640016
0.254000000000000115,0.980758200717720130
0.255000000000000115,0.732389629951536336
0.256000000000000116,0.488483131067950826
0.257000000000000117,0.249062512387454221
0.258000000000000118,0.014147443093741118
0.259000000000000119,-0.216246874022088476
0.260000000000000120,-0.442109951625680175
0.261000000000000121,-0.663436193672610086
0.262000000000000122,-0.880225003264458961
0.263000000000000123,-1.092480827973707491
0.264000000000000123,-1.300213148186905254
0.265000000000000124,-1.503436414040457025
0.266000000000000125,-1.702169936480535828
0.267000000000000126,-1.896437737877365803
0.268000000000000127,-2.086268367473941510
0.269000000000000128,-2.271694686757610882
0.270000000000000129,-2.452753629618418252
0.271000000000000130,-2.629485941907432345
0.272000000000000131,-2.801935904736960303
0.273000000000000131,-2.970151045579621840
0.274000000000000132,-3.134181840928355722
0.275000000000000133,-3.294081413980108231
0.276000000000000134,-3.449905230505402987
0.277000000000000135,-3.601710795767453899
0.278000000000000136,-3.749557355061880148
0.279000000000000137,-3.893505600162375124
0.280000000000000138,-4.033617383681759705
0.281000000000000139,-4.169955443093508407
0.282000000000000139,-4.302583135906501433
0.283000000000000140,-4.431564187247322373
0.284000000000000141,-4.556962450879948889
0.285000000000000142,-4.678841684483103336
0.286000000000000143,-4.797265339810754980
0.287000000000000144,-4.912296368181418238
0.288000000000000145,-5.023997041577489497
0.289000000000000146,-5.132428789485206977
0.290000000000000147,-5.237652051470691461
0.291000000000000147,-5.339726145365272458
0.292000000000000148,-5.438709150825331129
0.293000000000000149,-5.534657807936003593
0.294000000000000150,-5.627627430445072854
0.295000000000000151,-5.717671833141503512
0.296000000000000152,-5.804843272832212797
0.297000000000000153,-5.889192402319997299
0.298000000000000154,-5.970768236744364188
0.299000000000000155,-6.049618131614538541
0.300000000000000155,-6.125787771839561024
0.301000000000000156,-6.199321171043478351
0.302000000000000157,-6.270260680443445089
0.303000000000000158,-6.338647006564384512
0.304000000000000159,-6.404519237065336768
0.305000000000000160,-6.467914873958809707
0.306000000000000161,-6.528869873515203537
0.307000000000000162,-6.587418692158730771
0.308000000000000163,-6.643594337679038730
0.309000000000000163,-6.697428425103355565
0.310000000000000164,-6.748951236597013015
0.311000000000000165,-6.798191784785140968
0.312000000000000166,-6.845177878915093217
0.313000000000000167,-6.889936193306988699
0.314000000000000168,-6.932492337568703533
0.315000000000000169,-6.972870928081205122
0.316000000000000170,-7.011095660290156850
0.317000000000000171,-7.047189381369824090
0.318000000000000171,-7.081174162855477405
0.319000000000000172,-7.113071372870497733
0.320000000000000173,-7.142901747603795926
0.321000000000000174,-7.170685461722216658
0.322000000000000175,-7.196442197430977572
0.323000000000000176,-7.220191211922712071
0.324000000000000177,-7.241951402982455654
0.325000000000000178,-7.261741372541538730
0.326000000000000179,-7.279579487998394605
0.327000000000000179,-7.295483941147691276
0.328000000000000180,-7.309472804581995220
0.329000000000000181,-7.321564085451742976
0.330000000000000182,-7.331775776489346086
0.331000000000000183,-7.340125904222931652
0.332000000000000184,-7.346632574322798703
0.333000000000000185,-7.351314014040984723
0.334000000000000186,-7.354188611719886026
0.335000000000000187,-7.355274953360594559
0.336000000000000187,-7.354591856255373372
0.337000000000000188,-7.352158399700806868
0.338000000000000189,-7.347993952820087493
0.339000000000000190,-7.342118199533108402
0.340000000000000191,-7.334551160722464047
0.341000000000000192,-7.325313213652309585
0.342000000000000193,-7.314425108704374345
0.343000000000000194,-7.301907983502502475
0.344000000000000195,-7.287783374502813771
0.345000000000000195,-7.272073226132127033
0.346000000000000196,-7.254799897561433397
0.347000000000000197,-7.235986167205203046
0.348000000000000198,-7.215655235040424387
0.349000000000000199,-7.193830722841648040
0.350000000000000200,-7.170536672430495528
0.351000000000000201,-7.145797542039252548
0.352000000000000202,-7.119638200889218282
0.353000000000000203,-7.092083922084929881
0.354000000000000203,-7.063160373925382984
0.355000000000000204,-7.032893609732894902
0.356000000000000205,-7.001310056299739237
0.357000000000000206,-6.968436501051497700
0.358000000000000207,-6.934300078024625336
0.359000000000000208,-6.898928252754376267
0.360000000000000209,-6.862348806167093862
0.361000000000000210,-6.824589817569001404
0.362000000000000210,-6.785679646821236588
0.363000000000000211,-6.745646915788499953
0.364000000000000212,-6.704520489146186257
0.365000000000000213,-6.662329454627974101
0.366000000000000214,-6.619103102793316040
0.367000000000000215,-6.574870906391187653
0.368000000000000216,-6.529662499393580788
0.369000000000000217,-6.483507655769285449
0.370000000000000218,-6.436436268065405031
0.371000000000000218,-6.388478325860959650
0.372000000000000219,-6.339663894153988011
0.373000000000000220,-6.290023091740420291
0.374000000000000221,-6.239586069639956989
0.375000000000000222,-6.188382989621119989
0.376000000000000223,-6.136444002874753778
0.377000000000000224,-6.083799228882233123
0.378000000000000225,-6.030478734521667938
0.379000000000000226,-5.976512513452662212
0.380000000000000226,-5.921930465817324851
0.381000000000000227,-5.866762378292422753
0.382000000000000228,-5.811037904525084841
0.383000000000000229,-5.754786545981676049
0.384000000000000230,-5.698037633237023947
0.385000000000000231,-5.640820307728811933
0.386000000000000232,-5.583163503999430510
0.387000000000000233,-5.525095932445443836
0.388000000000000234,-5.466646062592515953
0.389000000000000234,-5.407842106911648905
0.390000000000000235,-5.348712005190398244
0.391000000000000236,-5.289283409470980857
0.392000000000000237,-5.229583669565095683
0.393000000000000238,-5.169639819153749372
0.394000000000000239,-5.109478562478463104
0.395000000000000240,-5.049126261628788193
0.396000000000000241,-4.988608924429451363
0.397000000000000242,-4.927952192928970021
0.398000000000000242,-4.867181332490359225
0.399000000000000243,-4.806321221483055517
0.400000000000000244,-4.745396341574089405
0.401000000000000245,-4.684430768615455598
0.402000000000000246,-4.623448164123393767
0.403000000000000247,-4.562471767344390194
0.404000000000000248,-4.501524387901843838
0.405000000000000249,-4.440628399016354422
0.406000000000000250,-4.379805731291840587
0.407000000000000250,-4.319077867059004205
0.408000000000000251,-4.258465835266912691
0.409000000000000252,-4.197990206912890265
0.410000000000000253,-4.137671091000345136
0.411000000000000254,-4.077528131013634649
0.412000000000000255,-4.017580501898637912
0.413000000000000256,-3.957846907537272862
0.414000000000000257,-3.898345578703824366
0.415000000000000258,-3.839094271490709254
0.416000000000000258,-3.780110266190900514
0.417000000000000259,-3.721410366624140043
0.418000000000000260,-3.663010899893772709
0.419000000000000261,-3.604927716560919926
0.420000000000000262,-3.547176191222601638
0.421000000000000263,-3.489771223480295337
0.422000000000000264,-3.432727239285398468
0.423000000000000265,-3.376058192647935385
0.424000000000000266,-3.319777567695088916
0.425000000000000266,-3.263898381065800436
0.426000000000000267,-3.208433184628086909
0.427000000000000268,-3.153394068505550596
0.428000000000000269,-3.098792664399772967
0.429000000000000270,-3.044640149195394940
0.430000000000000271,-2.990947248834688210
0.431000000000000272,-2.937724242448795930
0.432000000000000273,-2.884980966732750396
0.433000000000000274,-2.832726820551747959
0.434000000000000274,-2.780970769766171635
0.435000000000000275,-2.729721352263246636
0.436000000000000276,-2.678986683183283812
0.437000000000000277,-2.628774460328703100
0.438000000000000278,-2.579091969744357726
0.439000000000000279,-2.529946091457849988
0.440000000000000280,-2.481343305368713281
0.441000000000000281,-2.433289697275742736
0.442000000000000282,-2.385790965031906019
0.443000000000000282,-2.338852424816498576
0.444000000000000283,-2.292479017514618356
0.445000000000000284,-2.246675315194147426
0.446000000000000285,-2.201445527670743196
0.447000000000000286,-2.156793509151744725
0.448000000000000287,-2.112722764949908516
0.449000000000000288,-2.069236458258470357
0.450000000000000289,-2.026337416979018258
0.451000000000000290,-1.984028140594145784
0.452000000000000290,-1.942310807077034074
0.453000000000000291,-1.901187279830346855
0.454000000000000292,-1.860659114647222001
0.455000000000000293,-1.820727566687222687
0.456000000000000294,-1.781393597460574796
0.457000000000000295,-1.742657881814121623
0.458000000000000296,-1.704520814912757753
0.459000000000000297,-1.666982519210362002
0.460000000000000298,-1.630042851404445603
0.461000000000000298,-1.593701409369072231
0.462000000000000299,-1.557957539060742524
0.463000000000000300,-1.522810341392229816
0.464000000000000301,-1.488258679069613510
0.465000000000000302,-1.454301183387953111
0.466000000000000303,-1.420936260981216392
0.467000000000000304,-1.388162100522415399
0.468000000000000305,-1.355976679370046956
0.469000000000000306,-1.324377770157096235
0.470000000000000306,-1.293362947319229628
0.471000000000000307,-1.262929593558774322
0.472000000000000308,-1.233074906241510726
0.473000000000000309,-1.203795903723301475
0.474000000000000310,-1.175089431603922652
0.475000000000000311,-1.146952168905468028
0.476000000000000312,-1.119380634173133604
0.477000000000000313,-1.092371191495995930
0.478000000000000314,-1.065920056445927688
0.479000000000000314,-1.040023301932731181
0.480000000000000315,-1.014676863973752008
0.481000000000000316,-0.989876547376487226
0.482000000000000317,-0.965618031332705629
0.483000000000000318,-0.941896874922867555
0.484000000000000319,-0.918708522529649185
0.485000000000000320,-0.896048309159633183
0.486000000000000321,-0.873911465672213117
0.487000000000000322,-0.852293123915003115
0.488000000000000322,-0.831188321765062077
0.489000000000000323,-0.810592008075461168
0.490000000000000324,-0.790499047526696863
0.491000000000000325,-0.770904225382686770
0.492000000000000326,-0.751802252151072770
0.493000000000000327,-0.733187768147743113
0.494000000000000328,-0.715055347965519061
0.495000000000000329,-0.697399504847031948
0.496000000000000330,-0.680214694961960520
0.497000000000000330,-0.663495321588802200
0.498000000000000331,-0.647235739201466709
0.499000000000000332,-0.631430257461077060
0.500000000000000333,-0.616073145113364418
0.501000000000000334,-0.601158633792146957
0.502000000000000335,-0.586680921729471505
0.503000000000000336,-0.572634177372995157
0.504000000000000337,-0.559012542911271226
0.505000000000000338,-0.545810137707666176
0.506000000000000338,-0.533021061643665917
0.507000000000000339,-0.520639398372352957
0.508000000000000340,-0.508659218482941045
0.509000000000000341,-0.497074582577243240
0.510000000000000342,-0.485879544258991658
0.511000000000000343,-0.475068153036982577
0.512000000000000344,-0.464634457143038471
0.513000000000000345,-0.454572506265820020
0.514000000000000346,-0.444876354201535318
0.515000000000000346,-0.435540061422624913
0.516000000000000347,-0.426557697565519756
0.517000000000000348,-0.417923343838636718
0.518000000000000349,-0.409631095351685737
0.519000000000000350,-0.401675063367511131
0.520000000000000351,-0.394049377477625196
0.521000000000000352,-0.386748187702612101
0.522000000000000353,-0.379765666518633249
0.523000000000000353,-0.373096010811212075
0.524000000000000354,-0.366733443757564337
0.525000000000000355,-0.360672216638676879
0.526000000000000356,-0.354906610582367110
0.527000000000000357,-0.349430938238610100
0.528000000000000358,-0.344239545388304369
0.529000000000000359,-0.339326812486808127
0.530000000000000360,-0.334687156143426701
0.531000000000000361,-0.330315030538144039
0.532000000000000361,-0.326204928776810177
0.533000000000000362,-0.322351384186079226
0.534000000000000363,-0.318748971549282611
0.535000000000000364,-0.315392308284516310
0.536000000000000365,-0.312276055566161281
0.537000000000000366,-0.309394919391067169
0.538000000000000367,-0.306743651590605404
0.539000000000000368,-0.304317050789841725
0.540000000000000369,-0.302109963314979080
0.541000000000000369,-0.300117284050318567
0.542000000000000370,-0.298333957245893622
0.543000000000000371,-0.296754977276959875
0.544000000000000372,-0.295375389356520190
0.545000000000000373,-0.294190290202020477
0.546000000000000374,-0.293194828657367790
0.547000000000000375,-0.292384206271408209
0.548000000000000376,-0.291753677833977432
0.549000000000000377,-0.291298551870630085
0.550000000000000377,-0.291014191097127894
0.551000000000000378,-0.290896012834808093
0.552000000000000379,-0.290939489387829764
0.553000000000000380,-0.291140148383425945
0.554000000000000381,-0.291493573076133383
0.555000000000000382,-0.291995402617062694
0.556000000000000383,-0.292641332289199085
0.557000000000000384,-0.293427113709732068
0.558000000000000385,-0.294348555000389700
0.559000000000000385,-0.295401520926749150
0.560000000000000386,-0.296581933007442455
0.561000000000000387,-0.297885769594233074
0.562000000000000388,-0.299309065923836548
0.563000000000000389,-0.300847914142418404
0.564000000000000390,-0.302498463303631393
0.565000000000000391,-0.304256919341077070
0.566000000000000392,-0.306119545016034167
0.567000000000000393,-0.308082659841303008
0.568000000000000393,-0.310142639981974333
0.569000000000000394,-0.312295918133951134
0.570000000000000395,-0.314538983380979797
0.571000000000000396,-0.316868381031006952
0.572000000000000397,-0.319280712432602143
0.573000000000000398,-0.321772634772171329
0.574000000000000399,-0.324340860852741664
0.575000000000000400,-0.326982158854977889
0.576000000000000401,-0.329693352081164293
0.577000000000000401,-0.332471318682825367
0.578000000000000402,-0.335312991372659575
0.579000000000000403,-0.338215357121421256
0.580000000000000404,-0.341175456840424662
0.581000000000000405,-0.344190385050267611
0.582000000000000406,-0.347257289536392011
0.583000000000000407,-0.350373370992098032
0.584000000000000408,-0.353535882649555933
0.585000000000000409,-0.356742129899420779
0.586000000000000409,-0.359989469899597903
0.587000000000000410,-0.363275311173677173
0.588000000000000411,-0.366597113199597535
0.589000000000000412,-0.369952385989035681
0.590000000000000413,-0.373338689658025580
0.591000000000000414,-0.376753633989302061
0.592000000000000415,-0.380194877986840873
0.593000000000000416,-0.383660129423061214
0.594000000000000417,-0.387147144379141772
0.595000000000000417,-0.390653726778888877
0.596000000000000418,-0.394177727916588727
0.597000000000000419,-0.397717045979250339
0.598000000000000420,-0.401269625563656529
0.599000000000000421,-0.404833457188599144
0.600000000000000422,-0.408406576802701538
0.601000000000000423,-0.411987065288173748
0.602000000000000424,-0.415573047960882014
0.603000000000000425,-0.419162694067074626
0.604000000000000425,-0.422754216277094197
0.605000000000000426,-0.426345870176411790
0.606000000000000427,-0.429935953754318256
0.607000000000000428,-0.433522806890528023
0.608000000000000429,-0.437104810840086788
0.609000000000000430,-0.440680387716749444
0.610000000000000431,-0.444247999975234564
0.611000000000000432,-0.447806149892536198
0.612000000000000433,-0.451353379048579639
0.613000000000000433,-0.454888267806511426
