# hydroxyapatite-010-ph14_DMEP-JS
# h[nm],U(h)[kJ/mol]
0.149999999999999994,146.158331017775878991
0.150999999999999995,143.048534170587146264
0.151999999999999996,140.105542812422186216
0.152999999999999997,137.197014397237353478
0.153999999999999998,134.283870099564893508
0.154999999999999999,131.368582755579097920
0.156000000000000000,128.467929279367041318
0.157000000000000001,125.599918151374666309
0.158000000000000002,122.778549766013810540
0.159000000000000002,120.012607290061353638
0.160000000000000003,117.306281545808673172
0.161000000000000004,114.660426629631615469
0.162000000000000005,112.073839912880160341
0.163000000000000006,109.544305116638227560
0.164000000000000007,107.069325542147524288
0.165000000000000008,104.646568254951787935
0.166000000000000009,102.274078732005420989
0.167000000000000010,99.950334045088709445
0.168000000000000010,97.674196221864960421
0.169000000000000011,95.444814886231455375
0.170000000000000012,93.261514559882670028
0.171000000000000013,91.123689594101989542
0.172000000000000014,89.030719630229199879
0.173000000000000015,86.981910975362183081
0.174000000000000016,84.976464118446102702
0.175000000000000017,83.013464406687816677
0.176000000000000018,81.091891210380751431
0.177000000000000018,79.210640308172827417
0.178000000000000019,77.368554366765749819
0.179000000000000020,75.564456982306381860
0.180000000000000021,73.797186578213739949
0.181000000000000022,72.065627360303381010
0.182000000000000023,70.368735410272961417
0.183000000000000024,68.705558788482562704
0.184000000000000025,67.075251182259378879
0.185000000000000026,65.477079164070460138
0.186000000000000026,63.910423516899811602
0.187000000000000027,62.374775353335621730
0.188000000000000028,60.869727916666477086
0.189000000000000029,59.394965025347552512
0.190000000000000030,57.950247125349029886
0.191000000000000031,56.535395865807416271
0.192000000000000032,55.150278027825855531
0.193000000000000033,53.794789527662736361
0.194000000000000034,52.468840094973359101
0.195000000000000034,51.172339102955902490
0.196000000000000035,49.905182906815355182
0.197000000000000036,48.667243934637305358
0.198000000000000037,47.458361673708829187
0.199000000000000038,46.278335607384732953
0.200000000000000039,45.126920083585005727
0.201000000000000040,44.003821035929533423
0.202000000000000041,42.908694431796050139
0.203000000000000042,41.841146287238920820
0.204000000000000042,40.800734065479332457
0.205000000000000043,39.786969262183831120
0.206000000000000044,38.799320975538876155
0.207000000000000045,37.837220260782302717
0.208000000000000046,36.900065076009084919
0.209000000000000047,35.987225637472739947
0.210000000000000048,35.098050017125906663
0.211000000000000049,34.231869831786852387
0.212000000000000050,33.388005891224125321
0.213000000000000050,32.565773690900648774
0.214000000000000051,31.764488653514227678
0.215000000000000052,30.983471041341978491
0.216000000000000053,30.222050478375603433
0.217000000000000054,29.479570037051125553
0.218000000000000055,28.755389858843830808
0.219000000000000056,28.048890291002386732
0.220000000000000057,27.359474533173390398
0.221000000000000058,26.686570797618600182
0.222000000000000058,26.029633995173092842
0.223000000000000059,25.388146966103764868
0.224000000000000060,24.761621280679630530
0.225000000000000061,24.149597638663230725
0.226000000000000062,23.551645900182258231
0.227000000000000063,22.967364782660219191
0.228000000000000064,22.396381259791102281
0.229000000000000065,21.838349699050468189
0.230000000000000066,21.292950774060216190
0.231000000000000066,20.759890187369357761
0.232000000000000067,20.238897237983206168
0.233000000000000068,19.729723266357645173
0.234000000000000069,19.232140007661179482
0.235000000000000070,18.745937881969844341
0.236000000000000071,18.270924247767659665
0.237000000000000072,17.806921642736870837
0.238000000000000073,17.353766033390261470
0.239000000000000073,16.911305092667124228
0.240000000000000074,16.479396522219396104
0.241000000000000075,16.057906433789892020
0.242000000000000076,15.646707801851935216
0.243000000000000077,15.245678997559616974
0.244000000000000078,14.854702412065591943
0.245000000000000079,14.473663175408484349
0.246000000000000080,14.102447975461718244
0.247000000000000081,13.740943979873287972
0.248000000000000081,13.389037862512832788
0.249000000000000082,13.046614934677146280
0.250000000000000111,12.713558380183732410
0.251000000000000112,12.389748592500767543
0.252000000000000113,12.075062611212882047
0.253000000000000114,11.769373654401757534
0.254000000000000115,11.472550742916691746
0.255000000000000115,11.184458412019052886
0.256000000000000116,10.904956505494803665
0.257000000000000117,10.633900047033380432
0.258000000000000118,10.371139183461838940
0.259000000000000119,10.116519194289413264
0.260000000000000120,9.869880561953831233
0.261000000000000121,9.631059097158134463
0.262000000000000122,9.399886113737114357
0.263000000000000123,9.176188647590398872
0.264000000000000123,8.959789714356348966
0.265000000000000124,8.750508600672345594
0.266000000000000125,8.548161184066218610
0.267000000000000126,8.352560276745716550
0.268000000000000127,8.163515988792566347
0.269000000000000128,7.980836106521536522
0.270000000000000129,7.804326482027596157
0.271000000000000130,7.633791430213451079
0.272000000000000131,7.469034129861663374
0.273000000000000131,7.309857025587530366
0.274000000000000132,7.156062227778822837
0.275000000000000133,7.007451907893482712
0.276000000000000134,6.863828686745766738
0.277000000000000135,6.724996013662847716
0.278000000000000136,6.590758534636107058
0.279000000000000137,6.460922447824285264
0.280000000000000138,6.335295844987324010
0.281000000000000139,6.213689037640413027
0.282000000000000139,6.095914866916484876
0.283000000000000140,5.981788996312205953
0.284000000000000141,5.871130186667188333
0.285000000000000142,5.763760552888566480
0.286000000000000143,5.659505802083381276
0.287000000000000144,5.558195452899949096
0.288000000000000145,5.459663036005748538
0.289000000000000146,5.363746275745400638
0.290000000000000147,5.270287253126269889
0.291000000000000147,5.179132550373667598
0.292000000000000148,5.090133377381020452
0.293000000000000149,5.003145680455018507
0.294000000000000150,4.918030233820551267
0.295000000000000151,4.834652714406686869
0.296000000000000152,4.752883760483493703
0.297000000000000153,4.672599014759844849
0.298000000000000154,4.593679152586260805
0.299000000000000155,4.516009895933575713
0.300000000000000155,4.439482013839159080
0.301000000000000156,4.363991310027758530
0.302000000000000157,4.289438598423847893
0.303000000000000158,4.215729667277972936
0.304000000000000159,4.142775232630343751
0.305000000000000160,4.070490881832452779
0.306000000000000161,3.998797007840835249
0.307000000000000162,3.927618734987952109
0.308000000000000163,3.856885836922836042
0.309000000000000163,3.786532647399688756
0.310000000000000164,3.716497964575841362
0.311000000000000165,3.646724949461990661
0.312000000000000166,3.577161019147615750
0.313000000000000167,3.507757735403080002
0.314000000000000168,3.438470689237632882
0.315000000000000169,3.369259381969147427
0.316000000000000170,3.300087103337662420
0.317000000000000171,3.230920807170380105
0.318000000000000171,3.161730985081322221
0.319000000000000172,3.092491538663747264
0.320000000000000173,3.023179650609000291
0.321000000000000174,2.953775655160600699
0.322000000000000175,2.884262908287973382
0.323000000000000176,2.814627657940130145
0.324000000000000177,2.744858914715880616
0.325000000000000178,2.674948323263949934
0.326000000000000179,2.604890034703586377
0.327000000000000179,2.534680580334335964
0.328000000000000180,2.464318746882059319
0.329000000000000181,2.393805453507552805
0.330000000000000182,2.323143630784236802
0.331000000000000183,2.252338101831807382
0.332000000000000184,2.181395465774518261
0.333000000000000185,2.110323983674844417
0.334000000000000186,2.039133467076287065
0.335000000000000187,1.967835169273058016
0.336000000000000187,1.896441679408739089
0.337000000000000188,1.824966819491768533
0.338000000000000189,1.753425544401350233
0.339000000000000190,1.681833844944625955
0.340000000000000191,1.610208654013625118
0.341000000000000192,1.538567755878686549
0.342000000000000193,1.466929698644536151
0.343000000000000194,1.395313709884715481
0.344000000000000195,1.323739615461033470
0.345000000000000195,1.252227761525360084
0.346000000000000196,1.180798939693467720
0.347000000000000197,1.109474315372717568
0.348000000000000198,1.038275359218627569
0.349000000000000199,0.967223781688974382
0.350000000000000200,0.896341470658171602
0.351000000000000201,0.825650432049483074
0.352000000000000202,0.755172733437835642
0.353000000000000203,0.684930450571563543
0.354000000000000203,0.614945616757693214
0.355000000000000204,0.545240175051921239
0.356000000000000205,0.475835933191396721
0.357000000000000206,0.406754521205667463
0.358000000000000207,0.338017351639243568
0.359000000000000208,0.269645582316902943
0.360000000000000209,0.201660081581397865
0.361000000000000210,0.134081395932171443
0.362000000000000210,0.066929719992232156
0.363000000000000211,0.000224868729978658
0.364000000000000212,-0.066013748137990672
0.365000000000000213,-0.131767149637174452
0.366000000000000214,-0.197016804992810934
0.367000000000000215,-0.261744653128891558
0.368000000000000216,-0.325933120282475952
0.369000000000000217,-0.389565135806334006
0.370000000000000218,-0.452624146232841362
0.371000000000000218,-0.515094127670816637
0.372000000000000219,-0.576959596606393843
0.373000000000000220,-0.638205619177962924
0.374000000000000221,-0.698817818993939466
0.375000000000000222,-0.758782383561082296
0.376000000000000223,-0.818086069389868720
0.377000000000000224,-0.876716205841798768
0.378000000000000225,-0.934660697782393357
0.379000000000000226,-0.991908027101921386
0.380000000000000226,-1.048447253164687787
0.381000000000000227,-1.104268012245714470
0.382000000000000228,-1.159360516012571063
0.383000000000000229,-1.213715549108086655
0.384000000000000230,-1.267324465888217677
0.385000000000000231,-1.320179186367836266
0.386000000000000232,-1.372272191425172316
0.387000000000000233,-1.423596517314489773
0.388000000000000234,-1.474145749534390593
0.389000000000000234,-1.523914016098039781
0.390000000000000235,-1.572895980249435555
0.391000000000000236,-1.621086832668658051
0.392000000000000237,-1.668482283207130434
0.393000000000000238,-1.715078552192522920
0.394000000000000239,-1.760872361341185410
0.395000000000000240,-1.805860924314616422
0.396000000000000241,-1.850041936954857080
0.397000000000000242,-1.893413567232159922
0.398000000000000242,-1.935974444937011096
0.399000000000000243,-1.977723651146829242
0.400000000000000244,-2.018660707496604090
0.401000000000000245,-2.058785565281158636
0.402000000000000246,-2.098098594415327423
0.403000000000000247,-2.136600572277279841
0.404000000000000248,-2.174292672458692177
0.405000000000000249,-2.211176453444402057
0.406000000000000250,-2.247253847242855151
0.407000000000000250,-2.282527147987620353
0.408000000000000251,-2.316999000528993324
0.409000000000000252,-2.350672389033693133
0.410000000000000253,-2.383550625609571760
0.411000000000000254,-2.415637338971221570
0.412000000000000255,-2.446936463161365261
0.413000000000000256,-2.477452226342079733
0.414000000000000257,-2.507189139668700939
0.415000000000000258,-2.536151986258780244
0.416000000000000258,-2.564345810267186554
0.417000000000000259,-2.591775906077938174
0.418000000000000260,-2.618447807622431789
0.419000000000000261,-2.644367277832965435
0.420000000000000262,-2.669540298239771126
0.421000000000000263,-2.693973058719153268
0.422000000000000264,-2.717671947399378229
0.423000000000000265,-2.740643540730744565
0.424000000000000266,-2.762894593725339298
0.425000000000000266,-2.784432030371469136
0.426000000000000267,-2.805262934227318095
0.427000000000000268,-2.825394539197754185
0.428000000000000269,-2.844834220497701516
0.429000000000000270,-2.863589485805098533
0.430000000000000271,-2.881667966605941267
0.431000000000000272,-2.899077409733517907
0.432000000000000273,-2.915825669103499607
0.433000000000000274,-2.931920697646233531
0.434000000000000274,-2.947370539437164094
0.435000000000000275,-2.962183322025960130
0.436000000000000276,-2.976367248964689516
0.437000000000000277,-2.989930592534957743
0.438000000000000278,-3.002881686673721795
0.439000000000000279,-3.015228920097256626
0.440000000000000280,-3.026980729622358091
0.441000000000000281,-3.038145593683785339
0.442000000000000282,-3.048732026046690358
0.443000000000000282,-3.058748569712462562
0.444000000000000283,-3.068203791016424820
0.445000000000000284,-3.077106273915459766
0.446000000000000285,-3.085464614463589328
0.447000000000000286,-3.093287415473409574
0.448000000000000287,-3.100583281360944188
0.449000000000000288,-3.107360813171683223
0.450000000000000289,-3.113628603785137727
0.451000000000000290,-3.119395233295312320
0.452000000000000290,-3.124669264564429838
0.453000000000000291,-3.129459238946994848
0.454000000000000292,-3.133773672181386694
0.455000000000000293,-3.137621050445989379
0.456000000000000294,-3.141009826576848685
0.457000000000000295,-3.143948416443826499
0.458000000000000296,-3.146445195482072688
0.459000000000000297,-3.148508495375777816
0.460000000000000298,-3.150146600890917803
0.461000000000000298,-3.151367746853893426
0.462000000000000299,-3.152180115272796179
0.463000000000000300,-3.152591832598071520
0.464000000000000301,-3.152610967119405139
0.465000000000000302,-3.152245526495515371
0.466000000000000303,-3.151503455413690258
0.467000000000000304,-3.150392633375825646
0.468000000000000305,-3.148920872607708255
0.469000000000000306,-3.147095916088404888
0.470000000000000306,-3.144925435696590110
0.471000000000000307,-3.142417030470530115
0.472000000000000308,-3.139578224978762933
0.473000000000000309,-3.136416467798259333
0.474000000000000310,-3.132939130096977109
0.475000000000000311,-3.129153504317849332
0.476000000000000312,-3.125066802961127710
0.477000000000000313,-3.120686157462144728
0.478000000000000314,-3.116018617161512072
0.479000000000000314,-3.111071148364957129
0.480000000000000315,-3.105850633489822599
0.481000000000000316,-3.100363870295545610
0.482000000000000317,-3.094617571195237726
0.483000000000000318,-3.088618362645742188
0.484000000000000319,-3.082372784613429673
0.485000000000000320,-3.075887290113140438
0.486000000000000321,-3.069168244817698010
0.487000000000000322,-3.062221926735458677
0.488000000000000322,-3.055054525953361466
0.489000000000000323,-3.047672144443183129
0.490000000000000324,-3.040080795928479684
0.491000000000000325,-3.032286405809963448
0.492000000000000326,-3.024294811146979622
0.493000000000000327,-3.016111760692942845
0.494000000000000328,-3.007742914982419524
0.495000000000000329,-2.999193846467881563
0.496000000000000330,-2.990470039703875038
0.497000000000000330,-2.981576891576789290
0.498000000000000331,-2.972519711577986889
0.499000000000000332,-2.963303722118616257
0.500000000000000333,-2.953934058884056579
0.501000000000000334,-2.944415771226196021
0.502000000000000335,-2.934753822591811723
0.503000000000000336,-2.924953090985242365
0.504000000000000337,-2.915018369463717285
0.505000000000000338,-2.904954366663647480
0.506000000000000338,-2.894765707356311779
0.507000000000000339,-2.884456933031388282
0.508000000000000340,-2.874032502506765674
0.509000000000000341,-2.863496792563275939
0.510000000000000342,-2.852854098602795041
0.511000000000000343,-2.842108635328450372
0.512000000000000344,-2.831264537445507212
0.513000000000000345,-2.820325860381683647
0.514000000000000346,-2.809296581025665596
0.515000000000000346,-2.798180598482526982
0.516000000000000347,-2.786981734844927949
0.517000000000000348,-2.775703735978998221
0.518000000000000349,-2.764350272323679469
0.519000000000000350,-2.752924939702614537
0.520000000000000351,-2.741431260147408455
0.521000000000000352,-2.729872682731428135
0.522000000000000353,-2.718252584413004325
0.523000000000000353,-2.706574270887275091
0.524000000000000354,-2.694840977445694286
0.525000000000000355,-2.683055869842353669
0.526000000000000356,-2.671222045166304682
0.527000000000000357,-2.659342532719109364
0.528000000000000358,-2.647420294896799753
0.529000000000000359,-2.635458228075575615
0.530000000000000360,-2.623459163500461599
0.531000000000000361,-2.611425868176321607
0.532000000000000361,-2.599361045760527400
0.533000000000000362,-2.587267337456662375
0.534000000000000363,-2.575147322908688974
0.535000000000000364,-2.563003521094987303
0.536000000000000365,-2.550838391221696977
0.537000000000000366,-2.538654333614906555
0.538000000000000367,-2.526453690611065728
0.539000000000000368,-2.514238747445308952
0.540000000000000369,-2.502011733137056826
0.541000000000000369,-2.489774821372621183
0.542000000000000370,-2.477530131384245049
0.543000000000000371,-2.465279728825330974
0.544000000000000372,-2.453025626641360368
0.545000000000000373,-2.440769785936230285
0.546000000000000374,-2.428514116833631498
0.547000000000000375,-2.416260479333125932
0.548000000000000376,-2.404010684160697853
0.549000000000000377,-2.391766493613403988
0.550000000000000377,-2.379529622397922317
0.551000000000000378,-2.367301738462668226
0.552000000000000379,-2.355084463823356788
0.553000000000000380,-2.342879375381646589
0.554000000000000381,-2.330688005736739843
0.555000000000000382,-2.318511843989781163
0.556000000000000383,-2.306352336540712145
0.557000000000000384,-2.294210887877620397
0.558000000000000385,-2.282088861358231746
0.559000000000000385,-2.269987579983533177
0.560000000000000386,-2.257908327163338225
0.561000000000000387,-2.245852347473654920
0.562000000000000388,-2.233820847405774135
0.563000000000000389,-2.221814996106971307
0.564000000000000390,-2.209835926112704740
0.565000000000000391,-2.197884734070249646
0.566000000000000392,-2.185962481453675998
0.567000000000000393,-2.174070195270146222
0.568000000000000393,-2.162208868757379943
0.569000000000000394,-2.150379462072351089
0.570000000000000395,-2.138582902971116528
0.571000000000000396,-2.126820087479698085
0.572000000000000397,-2.115091880556115633
0.573000000000000398,-2.103399116743402075
0.574000000000000399,-2.091742600813716102
0.575000000000000400,-2.080123108403449717
0.576000000000000401,-2.068541386639367818
0.577000000000000401,-2.056998154755826924
0.578000000000000402,-2.045494104702982874
0.579000000000000403,-2.034029901746069235
0.580000000000000404,-2.022606185055804140
0.581000000000000405,-2.011223568289824293
0.582000000000000406,-1.999882640165317582
0.583000000000000407,-1.988583965022768130
0.584000000000000408,-1.977328083380948787
0.585000000000000409,-1.966115512483131322
0.586000000000000409,-1.954946746834575588
0.587000000000000410,-1.943822258731405794
0.588000000000000411,-1.932742498780797735
0.589000000000000412,-1.921707896412695460
0.590000000000000413,-1.910718860382955686
0.591000000000000414,-1.899775779268096043
0.592000000000000415,-1.888879021951666459
0.593000000000000416,-1.878028938102282552
0.594000000000000417,-1.867225858643435377
0.595000000000000417,-1.856470096215160126
0.596000000000000418,-1.845761945627526712
0.597000000000000419,-1.835101684306192693
0.598000000000000420,-1.824489572729934395
0.599000000000000421,-1.813925854860350739
0.600000000000000422,-1.803410758563753991
0.601000000000000423,-1.792944496025331347
0.602000000000000424,-1.782527264155707503
0.603000000000000425,-1.772159244989931937
0.604000000000000425,-1.761840606078995508
0.605000000000000426,-1.751571500873974063
0.606000000000000427,-1.741352069102897193
0.607000000000000428,-1.731182437140327934
0.608000000000000429,-1.721062718369932298
0.609000000000000430,-1.710993013539890750
0.610000000000000431,-1.700973411111461164
0.611000000000000432,-1.691003987600611769
0.612000000000000433,-1.681084807912907708
0.613000000000000433,-1.671215925671716507
0.614000000000000434,-1.661397383539816586
