# hydroxyapatite-010-ph14_ALASCA-AC
# h[nm],U(h)[kJ/mol]
0.149999999999999994,65.287580825914417915
0.150999999999999995,64.348443584814248197
0.151999999999999996,63.217725034818798235
0.152999999999999997,62.056887713814958829
0.153999999999999998,60.924711523189571949
0.154999999999999999,59.832067519371477715
0.156000000000000000,58.771337033005259798
0.157000000000000001,57.730964372391397887
0.158000000000000002,56.701662037550320861
0.159000000000000002,55.678218188013488543
0.160000000000000003,54.659219890893588456
0.161000000000000004,53.645984447300619991
0.162000000000000005,52.641370035219154033
0.163000000000000006,51.648772147260750387
0.164000000000000007,50.671408479135322978
0.165000000000000008,49.711889604836336787
0.166000000000000009,48.772025695054288974
0.167000000000000010,47.852805219240011070
0.168000000000000010,46.954484287830602796
0.169000000000000011,46.076735641721370484
0.170000000000000012,45.218818927128779706
0.171000000000000013,44.379745975106125400
0.172000000000000014,43.558425033182352593
0.173000000000000015,42.753775854174143944
0.174000000000000016,41.964813296183756108
0.175000000000000017,41.190700920739189428
0.176000000000000018,40.430778368876417517
0.177000000000000018,39.684567424787260848
0.178000000000000019,38.951761980176030420
0.179000000000000020,38.232206869022910212
0.180000000000000021,37.525869971099851341
0.181000000000000022,36.832811246673365702
0.182000000000000023,36.153151580006181121
0.183000000000000024,35.487043552493446441
0.184000000000000025,34.834645584504777105
0.185000000000000026,34.196100302920044101
0.186000000000000026,33.571517517767162531
0.187000000000000027,32.960961824436331824
0.188000000000000028,32.364444579108138100
0.189000000000000029,31.781919812027716432
0.190000000000000030,31.213283532228608408
0.191000000000000031,30.658375824274834542
0.192000000000000032,30.116985129376484309
0.193000000000000033,29.588854128034256519
0.194000000000000034,29.073686689011061901
0.195000000000000034,28.571155411452870965
0.196000000000000035,28.080909356585561198
0.197000000000000036,27.602581637321286223
0.198000000000000037,27.135796604385593156
0.199000000000000038,26.680176433444124484
0.200000000000000039,26.235346977339805363
0.201000000000000040,25.800942799888730406
0.202000000000000041,25.376611352270991517
0.203000000000000042,24.962016289887181131
0.204000000000000042,24.556839956958867788
0.205000000000000043,24.160785088682626309
0.206000000000000044,23.773575797092348694
0.207000000000000045,23.394957917709113815
0.208000000000000046,23.024698800350233086
0.209000000000000047,22.662586629902520485
0.210000000000000048,22.308429362173434640
0.211000000000000049,21.962053356791674474
0.212000000000000050,21.623301784140977588
0.213000000000000050,21.292032877010576897
0.214000000000000051,20.968118090486850491
0.215000000000000052,20.651440225979506238
0.216000000000000053,20.341891567484900349
0.217000000000000054,20.039372070492980527
0.218000000000000055,19.743787636536932695
0.219000000000000056,19.455048499413869934
0.220000000000000057,19.173067742671076275
0.221000000000000058,18.897759962126247757
0.222000000000000058,18.629040082003388790
0.223000000000000059,18.366822328734780712
0.224000000000000060,18.111019362592550408
0.225000000000000061,17.861541564049943531
0.226000000000000062,17.618296469096542012
0.227000000000000063,17.381188345602510026
0.228000000000000064,17.150117901196068715
0.229000000000000065,16.924982111935527485
0.230000000000000066,16.705674160271936302
0.231000000000000066,16.492083470358522845
0.232000000000000067,16.284095828620628765
0.233000000000000068,16.081593577607328882
0.234000000000000069,15.884455871459897125
0.235000000000000070,15.692558981812766206
0.236000000000000071,15.505776643552973582
0.237000000000000072,15.323980430571822353
0.238000000000000073,15.147040152418309589
0.239000000000000073,14.974824263584048722
0.240000000000000074,14.807200277989755577
0.241000000000000075,14.644035182088591895
0.242000000000000076,14.485195840834023784
0.243000000000000077,14.330549391568490947
0.244000000000000078,14.179963621663166151
0.245000000000000079,14.033307326471675225
0.246000000000000080,13.890450644845477868
0.247000000000000081,13.751265370092090379
0.248000000000000081,13.615625234837429147
0.249000000000000082,13.483406168778373058
0.250000000000000111,13.354486528782132382
0.251000000000000112,13.228747301205348919
0.252000000000000113,13.106072276669873844
0.253000000000000114,12.986348197846449892
0.254000000000000115,12.869464881063843009
0.255000000000000115,12.755315312783213955
0.256000000000000116,12.643795722158165162
0.257000000000000117,12.534805631043415275
0.258000000000000118,12.428247882923205481
0.259000000000000119,12.324028652306855847
0.260000000000000120,12.222057436187430568
0.261000000000000121,12.122247029183027323
0.262000000000000122,12.024513483981767337
0.263000000000000123,11.928776058694550599
0.264000000000000123,11.834957152685962711
0.265000000000000124,11.742982232406710352
0.266000000000000125,11.652779748692669415
0.267000000000000126,11.564281046927934682
0.268000000000000127,11.477420271394771945
0.269000000000000128,11.392134265053265096
0.270000000000000129,11.308362465909704397
0.271000000000000130,11.226046801046569712
0.272000000000000131,11.145131579299846436
0.273000000000000131,11.065563383482054149
0.274000000000000132,10.987290962963179197
0.275000000000000133,10.910265127337105184
0.276000000000000134,10.834438641818961102
0.277000000000000135,10.759766124939684317
0.278000000000000136,10.686203949028346472
0.279000000000000137,10.613710143900659588
0.280000000000000138,10.542244304104299246
0.281000000000000139,10.471767500007770124
0.282000000000000139,10.402242192960152067
0.283000000000000140,10.333632154694038618
0.284000000000000141,10.265902391093298718
0.285000000000000142,10.199019070401007525
0.286000000000000143,10.132949455900760682
0.287000000000000144,10.067661843066876060
0.288000000000000145,10.003125501144848997
0.289000000000000146,9.939310619093783217
0.290000000000000147,9.876188255795790738
0.291000000000000147,9.813730294414856559
0.292000000000000148,9.751909400767896585
0.293000000000000149,9.690698985554401901
0.294000000000000150,9.630073170277528405
0.295000000000000151,9.570006756678413495
0.296000000000000152,9.510475199497326670
0.297000000000000153,9.451454582368921109
0.298000000000000154,9.392921596654824512
0.299000000000000155,9.334853523014610133
0.300000000000000155,9.277228215515595622
0.301000000000000156,9.220024088082979574
0.302000000000000157,9.163220103094079860
0.303000000000000158,9.106795761923946131
0.304000000000000159,9.050731097254182345
0.305000000000000160,8.995006666962190423
0.306000000000000161,8.939603549414240291
0.307000000000000162,8.884503339992519955
0.308000000000000163,8.829688148693692895
0.309000000000000163,8.775140598644147971
0.310000000000000164,8.720843825385198755
0.311000000000000165,8.666781476789697791
0.312000000000000166,8.612937713480013358
0.313000000000000167,8.559297209625624347
0.314000000000000168,8.505845154007305453
0.315000000000000169,8.452567251243031876
0.316000000000000170,8.399449723079307262
0.317000000000000171,8.346479309659564194
0.318000000000000171,8.293643270689505798
0.319000000000000172,8.240929386426834924
0.320000000000000173,8.188325958430493046
0.321000000000000174,8.135821810011680810
0.322000000000000175,8.083406286335984348
0.323000000000000176,8.031069254132525259
0.324000000000000177,7.978801100972449767
0.325000000000000178,7.926592734085089020
0.326000000000000179,7.874435578685746506
0.327000000000000179,7.822321575794528137
0.328000000000000180,7.770243179530579525
0.329000000000000181,7.718193353870819173
0.330000000000000182,7.666165568866581737
0.331000000000000183,7.614153796315710210
0.332000000000000184,7.562152504891214377
0.333000000000000185,7.510156654731200199
0.334000000000000186,7.458161691497728896
0.335000000000000187,7.406163539915222138
0.336000000000000187,7.354158596801449121
0.337000000000000188,7.302143723606521419
0.338000000000000189,7.250116238477279929
0.339000000000000190,7.198073907866188392
0.340000000000000191,7.146014937705551517
0.341000000000000192,7.093937964168989474
0.342000000000000193,7.041842044043335136
0.343000000000000194,6.989726644735060113
0.344000000000000195,6.937591633935966229
0.345000000000000195,6.885437268973511493
0.346000000000000196,6.833264185871540164
0.347000000000000197,6.781073388147373926
0.348000000000000198,6.728866235371425475
0.349000000000000199,6.676644431515398992
0.350000000000000200,6.624410013115046070
0.351000000000000201,6.572165337273238706
0.352000000000000202,6.519913069528707084
0.353000000000000203,6.467656171615433713
0.354000000000000203,6.415397889137201659
0.355000000000000204,6.363141739181150669
0.356000000000000205,6.310891497893660329
0.357000000000000206,6.258651188041072899
0.358000000000000207,6.206425066577176963
0.359000000000000208,6.154217612238499058
0.360000000000000209,6.102033513187597791
0.361000000000000210,6.049877654723916365
0.362000000000000210,5.997755107080633863
0.363000000000000211,5.945671113325272650
0.364000000000000212,5.893631077380836025
0.365000000000000213,5.841640552183385182
0.366000000000000214,5.789705227991050585
0.367000000000000215,5.737830920858576711
0.368000000000000216,5.686023561290568296
0.369000000000000217,5.634289183085807728
0.370000000000000218,5.582633912383995423
0.371000000000000218,5.531063956925528657
0.372000000000000219,5.479585595533955633
0.373000000000000220,5.428205167829996292
0.374000000000000221,5.376929064185168805
0.375000000000000222,5.325763715922241737
0.376000000000000223,5.274715585768936066
0.377000000000000224,5.223791158570635140
0.378000000000000225,5.172996932266995529
0.379000000000000226,5.122339409136762889
0.380000000000000226,5.071825087314317138
0.381000000000000227,5.021460452580861045
0.382000000000000228,4.971251970432562395
0.383000000000000229,4.921206078427247554
0.384000000000000230,4.871329178810814398
0.385000000000000231,4.821627631423808680
0.386000000000000232,4.772107746888267776
0.387000000000000233,4.722775780074241148
0.388000000000000234,4.673637923845104680
0.389000000000000234,4.624700303080201635
0.390000000000000235,4.575968968972992101
0.391000000000000236,4.527449893602486952
0.392000000000000237,4.479148964775331088
0.393000000000000238,4.431071981135630722
0.394000000000000239,4.383224647539200269
0.395000000000000240,4.335612570688689438
0.396000000000000241,4.288241255025715404
0.397000000000000242,4.241116098875892249
0.398000000000000242,4.194242390842413570
0.399000000000000243,4.147625306443651461
0.400000000000000244,4.101269904989972126
0.401000000000000245,4.055181126694859195
0.402000000000000246,4.009363790015306961
0.403000000000000247,3.963822589216161596
0.404000000000000248,3.918562092153153653
0.405000000000000249,3.873586738269108931
0.406000000000000250,3.828900836797854090
0.407000000000000250,3.784508565170123351
0.408000000000000251,3.740413967615865865
0.409000000000000252,3.696620953957169498
0.410000000000000253,3.653133298586072719
0.411000000000000254,3.609954639621470562
0.412000000000000255,3.567088478239333060
0.413000000000000256,3.524538178170407043
0.414000000000000257,3.482306965359680540
0.415000000000000258,3.440397927781767784
0.416000000000000258,3.398814015406554923
0.417000000000000259,3.357558040309347014
0.418000000000000260,3.316632676919914591
0.419000000000000261,3.276040462404788745
0.420000000000000262,3.235783797177322008
0.421000000000000263,3.195864945529959478
0.422000000000000264,3.156286036383425753
0.423000000000000265,3.117049064147378701
0.424000000000000266,3.078155889687378188
0.425000000000000266,3.039608241392961041
0.426000000000000267,3.001407716341762288
0.427000000000000268,2.963555781554713775
0.428000000000000269,2.926053775337430274
0.429000000000000270,2.888902908703010919
0.430000000000000271,2.852104266871576588
0.431000000000000272,2.815658810841946913
0.432000000000000273,2.779567379031042673
0.433000000000000274,2.743830688976602428
0.434000000000000274,2.708449339098974562
0.435000000000000275,2.673423810517876031
0.436000000000000276,2.638754468920050833
0.437000000000000277,2.604441566473926439
0.438000000000000278,2.570485243787467677
0.439000000000000279,2.536885531905530122
0.440000000000000280,2.503642354343114995
0.441000000000000281,2.470755529151102525
0.442000000000000282,2.438224771011030079
0.443000000000000282,2.406049693355751806
0.444000000000000283,2.374229810512756611
0.445000000000000284,2.342764539867197904
0.446000000000000285,2.311653204041631771
0.447000000000000286,2.280895033089700874
0.448000000000000287,2.250489166701042709
0.449000000000000288,2.220434656414798091
0.450000000000000289,2.190730467839230755
0.451000000000000290,2.161375482875050213
0.452000000000000290,2.132368501940125949
0.453000000000000291,2.103708246193394249
0.454000000000000292,2.075393359755845601
0.455000000000000293,2.047422411926560493
0.456000000000000294,2.019793899391889358
0.457000000000000295,1.992506248425916393
0.458000000000000296,1.965557817080482383
0.459000000000000297,1.938946897363086563
0.460000000000000298,1.912671717401094540
0.461000000000000298,1.886730443590767026
0.462000000000000299,1.861121182729676082
0.463000000000000300,1.835841984131182159
0.464000000000000301,1.810890841719706046
0.465000000000000302,1.786265696105622469
0.466000000000000303,1.761964436638626452
0.467000000000000304,1.737984903438555051
0.468000000000000305,1.714324889402686791
0.469000000000000306,1.690982142188584447
0.470000000000000306,1.667954366171646496
0.471000000000000307,1.645239224376584541
0.472000000000000308,1.622834340382096396
0.473000000000000309,1.600737300198039836
0.474000000000000310,1.578945654114552566
0.475000000000000311,1.557456918522475586
0.476000000000000312,1.536268577704681615
0.477000000000000313,1.515378085597714586
0.478000000000000314,1.494782867523469116
0.479000000000000314,1.474480321890446533
0.480000000000000315,1.454467821864322108
0.481000000000000316,1.434742717007528201
0.482000000000000317,1.415302334887635682
0.483000000000000318,1.396143982654318716
0.484000000000000319,1.377264948584765225
0.485000000000000320,1.358662503597421800
0.486000000000000321,1.340333902733956251
0.487000000000000322,1.322276386609419152
0.488000000000000322,1.304487182830577741
0.489000000000000323,1.286963507382428817
0.490000000000000324,1.269702565982929299
0.491000000000000325,1.252701555406029454
0.492000000000000326,1.235957664773083220
0.493000000000000327,1.219468076812768143
0.494000000000000328,1.203229969089664397
0.495000000000000329,1.187240515201631430
0.496000000000000330,1.171496885946221145
0.497000000000000330,1.155996250456255980
0.498000000000000331,1.140735777304901388
0.499000000000000332,1.125712635580380594
0.500000000000000333,1.110923995930643615
0.501000000000000334,1.096367031578274531
0.502000000000000335,1.082038919305887692
0.503000000000000336,1.067936840412366806
0.504000000000000337,1.054057981640221797
0.505000000000000338,1.040399536074427145
0.506000000000000338,1.026958704013070545
0.507000000000000339,1.013732693810148744
0.508000000000000340,1.000718722690907114
0.509000000000000341,0.987914017540056477
0.510000000000000342,0.975315815663273078
0.511000000000000343,0.962921365522341199
0.512000000000000344,0.950727927444357079
0.513000000000000345,0.938732774305375273
0.514000000000000346,0.926933192188890032
0.515000000000000346,0.915326481019591909
0.516000000000000347,0.903909955172778501
0.517000000000000348,0.892680944059847548
0.518000000000000349,0.881636792690291715
0.519000000000000350,0.870774862210605072
0.520000000000000351,0.860092530420545787
0.521000000000000352,0.849587192267131419
0.522000000000000353,0.839256260316867397
0.523000000000000353,0.829097165206533981
0.524000000000000354,0.819107356073054405
0.525000000000000355,0.809284300962795355
0.526000000000000356,0.799625487220769537
0.527000000000000357,0.790128421860135766
0.528000000000000358,0.780790631912425481
0.529000000000000359,0.771609664758923897
0.530000000000000360,0.762583088443618884
0.531000000000000361,0.753708491968122063
0.532000000000000361,0.744983485568988080
0.533000000000000362,0.736405700977839195
0.534000000000000363,0.727972791664705965
0.535000000000000364,0.719682433064965155
0.536000000000000365,0.711532322790318972
0.537000000000000366,0.703520180824161345
0.538000000000000367,0.695643749701774228
0.539000000000000368,0.687900794675694316
0.540000000000000369,0.680289103866680511
0.541000000000000369,0.672806488400615299
0.542000000000000370,0.665450782531779139
0.543000000000000371,0.658219843752793743
0.544000000000000372,0.651111552891665335
0.545000000000000373,0.644123814196255751
0.546000000000000374,0.637254555406542300
0.547000000000000375,0.630501727815035329
0.548000000000000376,0.623863306315679766
0.549000000000000377,0.617337289441601045
0.550000000000000377,0.610921699392004358
0.551000000000000378,0.604614582048610183
0.552000000000000379,0.598414006981885849
0.553000000000000380,0.592318067447453966
0.554000000000000381,0.586324880372965040
0.555000000000000382,0.580432586335728695
0.556000000000000383,0.574639349531464783
0.557000000000000384,0.568943357734394972
0.558000000000000385,0.563342822249051189
0.559000000000000385,0.557835977854028608
0.560000000000000386,0.552421082737990732
0.561000000000000387,0.547096418428207443
0.562000000000000388,0.541860289711901366
0.563000000000000389,0.536711024550641236
0.564000000000000390,0.531646973988089577
0.565000000000000391,0.526666512051322089
0.566000000000000392,0.521768035645997941
0.567000000000000393,0.516949964445597820
0.568000000000000393,0.512210740775007389
0.569000000000000394,0.507548829488651210
0.570000000000000395,0.502962717843414509
0.571000000000000396,0.498450915366601077
0.572000000000000397,0.494011953719102781
0.573000000000000398,0.489644386554047351
0.574000000000000399,0.485346789371089382
0.575000000000000400,0.481117759366583742
0.576000000000000401,0.476955915279828169
0.577000000000000401,0.472859897235554771
0.578000000000000402,0.468828366582899392
0.579000000000000403,0.464860005731001613
0.580000000000000404,0.460953517981423366
0.581000000000000405,0.457107627357584423
0.582000000000000406,0.453321078431352498
0.583000000000000407,0.449592636146990299
0.584000000000000408,0.445921085642596082
0.585000000000000409,0.442305232069212573
0.586000000000000409,0.438743900407759901
0.587000000000000410,0.435235935283921183
0.588000000000000411,0.431780200781170020
0.589000000000000412,0.428375580252028265
0.590000000000000413,0.425020976127742256
0.591000000000000414,0.421715309726481469
0.592000000000000415,0.418457521060196513
0.593000000000000416,0.415246568640273594
0.594000000000000417,0.412081429282097844
0.595000000000000417,0.408961097908639659
0.596000000000000418,0.405884587353206150
0.597000000000000419,0.402850928161426924
0.598000000000000420,0.399859168392636244
0.599000000000000421,0.396908373420700122
0.600000000000000422,0.393997625734435086
0.601000000000000423,0.391126024737702360
0.602000000000000424,0.388292686549261024
0.603000000000000425,0.385496743802476893
0.604000000000000425,0.382737345445007482
0.605000000000000426,0.380013656538495337
0.606000000000000427,0.377324858058389667
0.607000000000000428,0.374670146693981854
0.608000000000000429,0.372048734648688539
0.609000000000000430,0.369459849440716970
0.610000000000000431,0.366902733704130013
0.611000000000000432,0.364376644990418108
0.612000000000000433,0.361880855570622717
0.613000000000000433,0.359414652238083054
0.614000000000000434,0.356977336111870713
0.615000000000000435,0.354568222440964198
0.616000000000000436,0.352186640409232476
0.617000000000000437,0.349831932941254642
0.618000000000000438,0.347503456509064168
0.619000000000000439,0.345200580939845181
0.620000000000000440,0.342922689224628208
