# hydroxyapatite-010-ph14_SERSCA-AC
# h[nm],U(h)[kJ/mol]
0.149999999999999994,53.250275292722960785
0.150999999999999995,51.693987959585591341
0.151999999999999996,50.456781847283288300
0.152999999999999997,49.326562313358635947
0.153999999999999998,48.213044543212909332
0.154999999999999999,47.088527229573465149
0.156000000000000000,45.953870205156505335
0.157000000000000001,44.820024862169944413
0.158000000000000002,43.698867253122074317
0.159000000000000002,42.599361782085267691
0.160000000000000003,41.526590868160084824
0.161000000000000004,40.482169012446618694
0.162000000000000005,39.465189214327509148
0.163000000000000006,38.473243555669974114
0.164000000000000007,37.503298730166264363
0.165000000000000008,36.552346133985750498
0.166000000000000009,35.617821658389019035
0.167000000000000010,34.697826945859652881
0.168000000000000010,33.791197528131149852
0.169000000000000011,32.897464161210123734
0.170000000000000012,32.016748174042263031
0.171000000000000013,31.149623584817060618
0.172000000000000014,30.296970299727291831
0.173000000000000015,29.459835039229876230
0.174000000000000016,28.639310242094730086
0.175000000000000017,27.836436206748157218
0.176000000000000018,27.052128064839109811
0.177000000000000018,26.287126665710587758
0.178000000000000019,25.541970869140239841
0.179000000000000020,24.816987885420918047
0.180000000000000021,24.112297975601016731
0.181000000000000022,23.427829868873068619
0.182000000000000023,22.763343538351911377
0.183000000000000024,22.118457400027097037
0.184000000000000025,21.492677487714360041
0.185000000000000026,20.885426656329698858
0.186000000000000026,20.296072341243679205
0.187000000000000027,19.723951830913318162
0.188000000000000028,19.168394381713721231
0.189000000000000029,18.628739813553544025
0.190000000000000030,18.104353473203985914
0.191000000000000031,17.594637643361025425
0.192000000000000032,17.099039615312584317
0.193000000000000033,16.617056738677462135
0.194000000000000034,16.148238820260470305
0.195000000000000034,15.692188272640223090
0.196000000000000035,15.248558418161980654
0.197000000000000036,14.817050341332096863
0.198000000000000037,14.397408657208751848
0.199000000000000038,13.989416529469599126
0.200000000000000039,13.592890232863798161
0.201000000000000040,13.207673513477416805
0.202000000000000041,12.833631958786828164
0.203000000000000042,12.470647549432937851
0.204000000000000042,12.118613527147116926
0.205000000000000043,11.777429679047179079
0.206000000000000044,11.446998108036435582
0.207000000000000045,11.127219532479335484
0.208000000000000046,10.817990135701355925
0.209000000000000047,10.519198967040534143
0.210000000000000048,10.230725880935345629
0.211000000000000049,9.952439988576440300
0.212000000000000050,9.684198587645587608
0.213000000000000050,9.425846529266381779
0.214000000000000051,9.177215977145705139
0.215000000000000052,8.938126511652518147
0.216000000000000053,8.708385530939187547
0.217000000000000054,8.487788901862073132
0.218000000000000055,8.276121815132535531
0.219000000000000056,8.073159801586241358
0.220000000000000057,7.878669869485582566
0.221000000000000058,7.692411726186698218
0.222000000000000058,7.514139051152065818
0.223000000000000059,7.343600791045462373
0.224000000000000060,7.180542451400791393
0.225000000000000061,7.024707363026928775
0.226000000000000062,6.875837904831310077
0.227000000000000063,6.733676668066316040
0.228000000000000064,6.597967550090089617
0.229000000000000065,6.468456768563828341
0.230000000000000066,6.344893789568359033
0.231000000000000066,6.227032165409203124
0.232000000000000067,6.114630279893535914
0.233000000000000068,6.007452000611745113
0.234000000000000069,5.905267239252531830
0.235000000000000070,5.807852422237603562
0.236000000000000071,5.714990874997087467
0.237000000000000072,5.626473124037396190
0.238000000000000073,5.542097121597994835
0.239000000000000073,5.461668398171537042
0.240000000000000074,5.385000148491076999
0.241000000000000075,5.311913256787064164
0.242000000000000076,5.242236267202566857
0.243000000000000077,5.175805305243971866
0.244000000000000078,5.112463956051132463
0.245000000000000079,5.052063105110169872
0.246000000000000080,4.994460746815878593
0.247000000000000081,4.939521766030980032
0.248000000000000081,4.887117697496593749
0.249000000000000082,4.837126467631112092
0.250000000000000111,4.789432122921594370
0.251000000000000112,4.743924548769601124
0.252000000000000113,4.700499182308042201
0.253000000000000114,4.659056722362596936
0.254000000000000115,4.619502839394164617
0.255000000000000115,4.581747887931894248
0.256000000000000116,4.545706623691730286
0.257000000000000117,4.511297927275895958
0.258000000000000118,4.478444536065607551
0.259000000000000119,4.447072785653794824
0.260000000000000120,4.417112361917697960
0.261000000000000121,4.388496064603074842
0.262000000000000122,4.361159583082549140
0.263000000000000123,4.335041284760461799
0.264000000000000123,4.310082016424513718
0.265000000000000124,4.286224918690798802
0.266000000000000125,4.263415253551885442
0.267000000000000126,4.241600244917569817
0.268000000000000127,4.220728931933104278
0.269000000000000128,4.200752034769808851
0.270000000000000129,4.181621832506602132
0.271000000000000130,4.163292052657393327
0.272000000000000131,4.145717771847406752
0.273000000000000131,4.128855327100338535
0.274000000000000132,4.112662237166953894
0.275000000000000133,4.097097133303105210
0.276000000000000134,4.082119698890706694
0.277000000000000135,4.067690617287668786
0.278000000000000136,4.053771527291589294
0.279000000000000137,4.040324985606376096
0.280000000000000138,4.027314435709979712
0.281000000000000139,4.014704182534687860
0.282000000000000139,4.002459372388137204
0.283000000000000140,3.990545977562702795
0.284000000000000141,3.978930785103061307
0.285000000000000142,3.967581389225505184
0.286000000000000143,3.956466186907992899
0.287000000000000144,3.945554376196393154
0.288000000000000145,3.934815956799444958
0.289000000000000146,3.924221732572664934
0.290000000000000147,3.913743315518986243
0.291000000000000147,3.903353130961661144
0.292000000000000148,3.893024423572094772
0.293000000000000149,3.882731263962112767
0.294000000000000150,3.872448555576315954
0.295000000000000151,3.862152041645347644
0.296000000000000152,3.851818311985541587
0.297000000000000153,3.841424809453604095
0.298000000000000154,3.830949835887630606
0.299000000000000155,3.820372557386836121
0.300000000000000155,3.809673008802645366
0.301000000000000156,3.798832097332776048
0.302000000000000157,3.787831605127691681
0.303000000000000158,3.776654190835565750
0.304000000000000159,3.765283390027243549
0.305000000000000160,3.753703614457187143
0.306000000000000161,3.741900150129462865
0.307000000000000162,3.729859154150041434
0.308000000000000163,3.717567650357714193
0.309000000000000163,3.705013523735961378
0.310000000000000164,3.692185513617190828
0.311000000000000165,3.679073205698843996
0.312000000000000166,3.665667022898125627
0.313000000000000167,3.651958215078440873
0.314000000000000168,3.637938847686263077
0.315000000000000169,3.623601789341871271
0.316000000000000170,3.608940698431596594
0.317000000000000171,3.593950008752559544
0.318000000000000171,3.578624914263818901
0.319000000000000172,3.562961352999964415
0.320000000000000173,3.546955990205021614
0.321000000000000174,3.530606200745696643
0.322000000000000175,3.513910050863812806
0.323000000000000176,3.496866279328120442
0.324000000000000177,3.479474278045724844
0.325000000000000178,3.461734072192997669
0.326000000000000179,3.443646299925215537
0.327000000000000179,3.425212191723304933
0.328000000000000180,3.406433549434887631
0.329000000000000181,3.387312725065476204
0.330000000000000182,3.367852599374200562
0.331000000000000183,3.348056560326660325
0.332000000000000184,3.327928481455749044
0.333000000000000185,3.307472700179348912
0.334000000000000186,3.286693996121726968
0.335000000000000187,3.265597569483427609
0.336000000000000187,3.244189019502230931
0.337000000000000188,3.222474323045619204
0.338000000000000189,3.200459813372917406
0.339000000000000190,3.178152159103045271
0.340000000000000191,3.155558343421662304
0.341000000000000192,3.132685643559100619
0.342000000000000193,3.109541610568466119
0.343000000000000194,3.086134049430939719
0.344000000000000195,3.062470999513328351
0.345000000000000195,3.038560715400651979
0.346000000000000196,3.014411648124663223
0.347000000000000197,2.990032426807079258
0.348000000000000198,2.965431840734440438
0.349000000000000199,2.940618821879605882
0.350000000000000200,2.915602427883090098
0.351000000000000201,2.890391825505694179
0.352000000000000202,2.864996274562244150
0.353000000000000203,2.839425112344579727
0.354000000000000203,2.813687738540484151
0.355000000000000204,2.787793600653735382
0.356000000000000205,2.761752179929069406
0.357000000000000206,2.735572977784546111
0.358000000000000207,2.709265502752582044
0.359000000000000208,2.682839257929705568
0.360000000000000209,2.656303728933973041
0.361000000000000210,2.629668372368039186
0.362000000000000210,2.602942604784794334
0.363000000000000211,2.576135792151636572
0.364000000000000212,2.549257239808623066
0.365000000000000213,2.522316182914929872
0.366000000000000214,2.495321777377366157
0.367000000000000215,2.468283091254016792
0.368000000000000216,2.441209096625457597
0.369000000000000217,2.414108661925544741
0.370000000000000218,2.386990544723135432
0.371000000000000218,2.359863384945802167
0.372000000000000219,2.332735698536096525
0.373000000000000220,2.305615871530617422
0.374000000000000221,2.278512154551857627
0.375000000000000222,2.251432657702485685
0.376000000000000223,2.224385345851511708
0.377000000000000224,2.197378034301643801
0.378000000000000225,2.170418384826906522
0.379000000000000226,2.143513902069587473
0.380000000000000226,2.116671930285347170
0.381000000000000227,2.089899650425431687
0.382000000000000228,2.063204077544761095
0.383000000000000229,2.036592058524755888
0.384000000000000230,2.010070270099748146
0.385000000000000231,1.983645217175834308
0.386000000000000232,1.957323231431206789
0.387000000000000233,1.931110470186920836
0.388000000000000234,1.905012915537318552
0.389000000000000234,1.879036373729317644
0.390000000000000235,1.853186474780019521
0.391000000000000236,1.827468672322135834
0.392000000000000237,1.801888243666983858
0.393000000000000238,1.776450290074894411
0.394000000000000239,1.751159737223126900
0.395000000000000240,1.726021335861523287
0.396000000000000241,1.701039662646364192
0.397000000000000242,1.676219121143072810
0.398000000000000242,1.651563942988642619
0.399000000000000243,1.627078189204885117
0.400000000000000244,1.602765751653787429
0.401000000000000245,1.578630354626505916
0.402000000000000246,1.554675556557794547
0.403000000000000247,1.530904751857810053
0.404000000000000248,1.507321172853548719
0.405000000000000249,1.483927891832339752
0.406000000000000250,1.460727823180119067
0.407000000000000250,1.437723725607357839
0.408000000000000251,1.414918204455831052
0.409000000000000252,1.392313714079579823
0.410000000000000253,1.369912560293703008
0.411000000000000254,1.347716902884786405
0.412000000000000255,1.325728758177065147
0.413000000000000256,1.303950001648557677
0.414000000000000257,1.282382370591735654
0.415000000000000258,1.261027466813380737
0.416000000000000258,1.239886759368620250
0.417000000000000259,1.218961587324253193
0.418000000000000260,1.198253162546719874
0.419000000000000261,1.177762572510269390
0.420000000000000262,1.157490783121077005
0.421000000000000263,1.137438641553224716
0.422000000000000264,1.117606879092733596
0.423000000000000265,1.097996113985897360
0.424000000000000266,1.078606854288454597
0.425000000000000266,1.059439500712260784
0.426000000000000267,1.040494349466301927
0.427000000000000268,1.021771595089055129
0.428000000000000269,1.003271333269377896
0.429000000000000270,0.984993563653252080
0.430000000000000271,0.966938192633851612
0.431000000000000272,0.949105036122579904
0.432000000000000273,0.931493822298851137
0.433000000000000274,0.914104194336512244
0.434000000000000274,0.896935713104957566
0.435000000000000275,0.879987859843128772
0.436000000000000276,0.863260038804677721
0.437000000000000277,0.846751579872729976
0.438000000000000278,0.830461741142787369
0.439000000000000279,0.814389711472413014
0.440000000000000280,0.798534612996465332
0.441000000000000281,0.782895503606753862
0.442000000000000282,0.767471379395050946
0.443000000000000282,0.752261177058556441
0.444000000000000283,0.737263776266940840
0.445000000000000284,0.722478001990216723
0.446000000000000285,0.707902626786767186
0.447000000000000286,0.693536373050915755
0.448000000000000287,0.679377915219555928
0.449000000000000288,0.665425881937360852
0.450000000000000289,0.651678858180221199
0.451000000000000290,0.638135387336602911
0.452000000000000290,0.624793973246568712
0.453000000000000291,0.611653082198303943
0.454000000000000292,0.598711144882003166
0.455000000000000293,0.585966558301059370
0.456000000000000294,0.573417687640536466
0.457000000000000295,0.561062868092956690
0.458000000000000296,0.548900406641482208
0.459000000000000297,0.536928583800614923
0.460000000000000298,0.525145655314570581
0.461000000000000298,0.513549853813550228
0.462000000000000299,0.502139390428121613
0.463000000000000300,0.490912456362008309
0.464000000000000301,0.479867224423578098
0.465000000000000302,0.469001850516381769
0.466000000000000303,0.458314475089086848
0.467000000000000304,0.447803224545216594
0.468000000000000305,0.437466212613102812
0.469000000000000306,0.427301541676486984
0.470000000000000306,0.417307304066227569
0.471000000000000307,0.407481583313607287
0.472000000000000308,0.397822455365714756
0.473000000000000309,0.388327989763415593
0.474000000000000310,0.378996250782467403
0.475000000000000311,0.369825298538263458
0.476000000000000312,0.360813190054825372
0.477000000000000313,0.351957980298533368
0.478000000000000314,0.343257723177233687
0.479000000000000314,0.334710472505249768
0.480000000000000315,0.326314282934917821
0.481000000000000316,0.318067210855221494
0.482000000000000317,0.309967315258133425
0.483000000000000318,0.302012658573257764
0.484000000000000319,0.294201307471386175
0.485000000000000320,0.286531333637576935
0.486000000000000321,0.279000814514349771
0.487000000000000322,0.271607834015627436
0.488000000000000322,0.264350483212025977
0.489000000000000323,0.257226860988100214
0.490000000000000324,0.250235074672153446
0.491000000000000325,0.243373240639222027
0.492000000000000326,0.236639484887842644
0.493000000000000327,0.230031943591181731
0.494000000000000328,0.223548763623165836
0.495000000000000329,0.217188103060149990
0.496000000000000330,0.210948131658780957
0.497000000000000330,0.204827031310564817
0.498000000000000331,0.198822996473793673
0.499000000000000332,0.192934234583348574
0.500000000000000333,0.187158966438967678
0.501000000000000334,0.181495426572552215
0.502000000000000335,0.175941863595043380
0.503000000000000336,0.170496540523439655
0.504000000000000337,0.165157735088475421
0.505000000000000338,0.159923740023518390
0.506000000000000338,0.154792863335197234
0.507000000000000339,0.149763428556276723
0.508000000000000340,0.144833774981313473
0.509000000000000341,0.140002257885565889
0.510000000000000342,0.135267248727688638
0.511000000000000343,0.130627135336662314
0.512000000000000344,0.126080322083476692
0.513000000000000345,0.121625230038013815
0.514000000000000346,0.117260297111596690
0.515000000000000346,0.112983978185670589
0.516000000000000347,0.108794745227060924
0.517000000000000348,0.104691087390229101
0.518000000000000349,0.100671511106987355
0.519000000000000350,0.096734540164058969
0.520000000000000351,0.092878715768934791
0.521000000000000352,0.089102596604384410
0.522000000000000353,0.085404758872081946
0.523000000000000353,0.081783796325658548
0.524000000000000354,0.078238320293627678
0.525000000000000355,0.074766959692516621
0.526000000000000356,0.071368361030580529
0.527000000000000357,0.068041188402454017
0.528000000000000358,0.064784123475075756
0.529000000000000359,0.061595865465248333
0.530000000000000360,0.058475131109141619
0.531000000000000361,0.055420654624070885
0.532000000000000361,0.052431187662868070
0.533000000000000362,0.049505499261151595
0.534000000000000363,0.046642375777793552
0.535000000000000364,0.043840620828870483
0.536000000000000365,0.041099055215402268
0.537000000000000366,0.038416516845127216
0.538000000000000367,0.035791860648618570
0.539000000000000368,0.033223958489966066
0.540000000000000369,0.030711699072317588
0.541000000000000369,0.028253987838493623
0.542000000000000370,0.025849746866956534
0.543000000000000371,0.023497914763326123
0.544000000000000372,0.021197446547707742
0.545000000000000373,0.018947313538034895
0.546000000000000374,0.016746503229643151
0.547000000000000375,0.014594019171301275
0.548000000000000376,0.012488880837877492
0.549000000000000377,0.010430123499866162
0.550000000000000377,0.008416798089936051
0.551000000000000378,0.006447971066721880
0.552000000000000379,0.004522724276000045
0.553000000000000380,0.002640154809458495
0.554000000000000381,0.000799374861207935
0.555000000000000382,-0.001000488417807221
0.556000000000000383,-0.002760293067303277
0.557000000000000384,-0.004480882466960922
0.558000000000000385,-0.006163085487332465
0.559000000000000385,-0.007807716642249263
0.560000000000000386,-0.009415576242578027
0.561000000000000387,-0.010987450551186217
0.562000000000000388,-0.012524111938993965
0.563000000000000389,-0.014026319041995606
0.564000000000000390,-0.015494816919110010
0.565000000000000391,-0.016930337210766179
0.566000000000000392,-0.018333598298096842
0.567000000000000393,-0.019705305462647104
0.568000000000000393,-0.021046151046472429
0.569000000000000394,-0.022356814612550836
0.570000000000000395,-0.023637963105404426
0.571000000000000396,-0.024890251011821206
0.572000000000000397,-0.026114320521623768
0.573000000000000398,-0.027310801688365350
0.574000000000000399,-0.028480312589893586
0.575000000000000400,-0.029623459488694669
0.576000000000000401,-0.030740836991939458
0.577000000000000401,-0.031833028211178130
0.578000000000000402,-0.032900604921589395
0.579000000000000403,-0.033944127720731146
0.580000000000000404,-0.034964146186742019
0.581000000000000405,-0.035961199035903002
0.582000000000000406,-0.036935814279535698
0.583000000000000407,-0.037888509380155332
0.584000000000000408,-0.038819791406846035
0.585000000000000409,-0.039730157189797444
0.586000000000000409,-0.040620093473953497
0.587000000000000410,-0.041490077071751716
0.588000000000000411,-0.042340575014866565
0.589000000000000412,-0.043172044704971449
0.590000000000000413,-0.043984934063430473
0.591000000000000414,-0.044779681679920927
0.592000000000000415,-0.045556716959931950
0.593000000000000416,-0.046316460271116265
0.594000000000000417,-0.047059323088457707
0.595000000000000417,-0.047785708138245606
0.596000000000000418,-0.048496009540793694
0.597000000000000419,-0.049190612951923195
0.598000000000000420,-0.049869895703143374
0.599000000000000421,-0.050534226940549098
0.600000000000000422,-0.051183967762384985
0.601000000000000423,-0.051819471355263526
0.602000000000000424,-0.052441083129037280
0.603000000000000425,-0.053049140850299589
0.604000000000000425,-0.053643974774478867
0.605000000000000426,-0.054225907776554963
0.606000000000000427,-0.054795255480354778
0.607000000000000428,-0.055352326386420049
0.608000000000000429,-0.055897421998460414
0.609000000000000430,-0.056430836948348495
0.610000000000000431,-0.056952859119686436
0.611000000000000432,-0.057463769769909037
0.612000000000000433,-0.057963843650935834
0.613000000000000433,-0.058453349128364286
0.614000000000000434,-0.058932548299195343
0.615000000000000435,-0.059401697108097881
0.616000000000000436,-0.059861045462200460
0.617000000000000437,-0.060310837344427479
0.618000000000000438,-0.060751310925359278
0.619000000000000439,-0.061182698673627779
0.620000000000000440,-0.061605227464854750
