# hydroxyapatite-010-ph14_CS-11530-AC
# h[nm],U(h)[kJ/mol]
0.149999999999999994,140.677273316497689848
0.150999999999999995,138.049090620226422743
0.151999999999999996,135.389248998511277478
0.152999999999999997,132.770140400712023165
0.153999999999999998,130.218664488208730745
0.154999999999999999,127.738304723676790786
0.156000000000000000,125.322294506020597282
0.157000000000000001,122.960976314211762883
0.158000000000000002,120.645503154986997174
0.159000000000000002,118.369339558156795533
0.160000000000000003,116.128525016561340522
0.161000000000000004,113.921315736442437583
0.162000000000000005,111.747581751782973924
0.163000000000000006,109.608175968218034768
0.164000000000000007,107.504386994437510339
0.165000000000000008,105.437521921936308900
0.166000000000000009,103.408626226701201745
0.167000000000000010,101.418326799161107488
0.168000000000000010,99.466774440977360427
0.169000000000000011,97.553659588304938666
0.170000000000000012,95.678276520598458887
0.171000000000000013,93.839614893116987560
0.172000000000000014,92.036461810406436257
0.173000000000000015,90.267502059188444719
0.174000000000000016,88.531408106298613347
0.175000000000000017,86.826914831292853592
0.176000000000000018,85.152876639298114014
0.177000000000000018,83.508306610071187492
0.178000000000000019,81.892398754515454584
0.179000000000000020,80.304535362637892604
0.180000000000000021,78.744281935145082230
0.181000000000000022,77.211372388108799214
0.182000000000000023,75.705687189929861347
0.183000000000000024,74.227226903278918257
0.184000000000000025,72.776083319870039645
0.185000000000000026,71.352410038498121025
0.186000000000000026,69.956393981294084483
0.187000000000000027,68.588228994587240095
0.188000000000000028,67.248092356147637361
0.189000000000000029,65.936124720564464496
0.190000000000000030,64.652413784794347862
0.191000000000000031,63.396981748450443206
0.192000000000000032,62.169776477480183985
0.193000000000000033,60.970666152926106918
0.194000000000000034,59.799437094761266565
0.195000000000000034,58.655794389963503477
0.196000000000000035,57.539364919432046008
0.197000000000000036,56.449702365478628963
0.198000000000000037,55.386293786103394154
0.199000000000000038,54.348567360118089198
0.200000000000000039,53.335900934864341139
0.201000000000000040,52.347631042721467054
0.202000000000000041,51.383062091205616184
0.203000000000000042,50.441475472083354248
0.204000000000000042,49.522138375828852475
0.205000000000000043,48.624312137601371830
0.206000000000000044,47.747259978694373217
0.207000000000000045,46.890254042391823930
0.208000000000000046,46.052581654883411488
0.209000000000000047,45.233550770067651570
0.210000000000000048,44.432494581602085759
0.211000000000000049,43.648775306467022972
0.212000000000000050,42.881787161712239254
0.213000000000000050,42.130958570155598863
0.214000000000000051,41.395753641839675652
0.215000000000000052,40.675672986309521661
0.216000000000000053,39.970253916547960671
0.217000000000000054,39.279070108994766031
0.218000000000000055,38.601730785781199984
0.219000000000000056,37.937879485420161529
0.220000000000000057,37.287192486970141658
0.221000000000000058,36.649376950396266750
0.222000000000000058,36.024168832702912368
0.223000000000000059,35.411330635624366892
0.224000000000000060,34.810649036406672963
0.225000000000000061,34.221932448659167392
0.226000000000000062,33.645008555530935723
0.227000000000000063,33.079721852694021322
0.228000000000000064,32.525931233885920335
0.229000000000000065,31.983507647157392029
0.230000000000000066,31.452331845551348977
0.231000000000000066,30.932292251750773460
0.232000000000000067,30.423282952315794603
0.233000000000000068,29.925201833504310400
0.234000000000000069,29.437948867354258198
0.235000000000000070,28.961424553704233631
0.236000000000000071,28.495528521143587142
0.237000000000000072,28.040158287508472057
0.238000000000000073,27.595208178466474891
0.239000000000000073,27.160568400947852297
0.240000000000000074,26.736124266668376492
0.241000000000000075,26.321755559732189056
0.242000000000000076,25.917336041282709402
0.243000000000000077,25.522733083367111107
0.244000000000000078,25.137807423574816568
0.245000000000000079,24.762413031583598411
0.246000000000000080,24.396397078480259069
0.247000000000000081,24.039599999595061774
0.248000000000000081,23.691855641586212045
0.249000000000000082,23.352991484612992679
0.250000000000000111,23.022828930629309241
0.251000000000000112,22.701183649099043294
0.252000000000000113,22.387865971766309769
0.253000000000000114,22.082681328496342132
0.254000000000000115,21.785430716624535563
0.255000000000000115,21.495911196702241597
0.256000000000000116,21.213916407999104052
0.257000000000000117,20.939237097606060445
0.258000000000000118,20.671661657472547802
0.259000000000000119,20.410976664200568109
0.260000000000000120,20.156967416901750312
0.261000000000000121,19.909418468897616350
0.262000000000000122,19.668114149502599730
0.263000000000000123,19.432839072573806050
0.264000000000000123,19.203378628935173111
0.265000000000000124,18.979519460188321034
0.266000000000000125,18.761049911803105772
0.267000000000000126,18.547760463740246450
0.268000000000000127,18.339444137192359108
0.269000000000000128,18.135896876341043082
0.270000000000000129,17.936917904314150007
0.271000000000000130,17.742310052790692509
0.272000000000000131,17.551880064940501569
0.273000000000000131,17.365438871603171123
0.274000000000000132,17.182801840806213534
0.275000000000000133,17.003789000896617267
0.276000000000000134,16.828225237714615758
0.277000000000000135,16.655940466373870379
0.278000000000000136,16.486769778329659175
0.279000000000000137,16.320553564517403800
0.280000000000000138,16.157137615428901256
0.281000000000000139,15.996373199063807391
0.282000000000000139,15.838117117750840634
0.283000000000000140,15.682231744877459079
0.284000000000000141,15.528585042599811317
0.285000000000000142,15.377050561627322978
0.286000000000000143,15.227507424189294483
0.287000000000000144,15.079840291295969479
0.288000000000000145,14.933939315403202741
0.289000000000000146,14.789700079580700987
0.290000000000000147,14.647023524267812178
0.291000000000000147,14.505815862680620398
0.292000000000000148,14.365988485908342653
0.293000000000000149,14.227457858708328686
0.294000000000000150,14.090145406976546383
0.295000000000000151,13.953977397835322094
0.296000000000000152,13.818884813243082377
0.297000000000000153,13.684803217991845514
0.298000000000000154,13.551672622918147226
0.299000000000000155,13.419437344111926791
0.300000000000000155,13.288045858866251336
0.301000000000000156,13.157450659069169774
0.302000000000000157,13.027608102696746073
0.303000000000000158,12.898478264025275308
0.304000000000000159,12.770024783139220403
0.305000000000000160,12.642214715271499870
0.306000000000000161,12.515018380473000192
0.307000000000000162,12.388409214069806552
0.308000000000000163,12.262363618329420234
0.309000000000000163,12.136860815720901030
0.310000000000000164,12.011882704119248189
0.311000000000000165,11.887413714270625320
0.312000000000000166,11.763440669803205907
0.313000000000000167,11.639952650037553639
0.314000000000000168,11.516940855821536260
0.315000000000000169,11.394398478586825973
0.316000000000000170,11.272320572797942972
0.317000000000000171,11.150703931940125102
0.318000000000000171,11.029546968168821408
0.319000000000000172,10.908849595721868297
0.320000000000000173,10.788613118174904315
0.321000000000000174,10.668840119601496141
0.322000000000000175,10.549534359681626228
0.323000000000000176,10.430700672785812699
0.324000000000000177,10.312344871046834172
0.325000000000000178,10.194473651417078841
0.326000000000000179,10.077094506696603560
0.327000000000000179,9.960215640505369450
0.328000000000000180,9.843845886162315040
0.329000000000000181,9.727994629424316031
0.330000000000000182,9.612671735029417519
0.331000000000000183,9.497887476980805488
0.332000000000000184,9.383652472501200492
0.333000000000000185,9.269977619581169392
0.334000000000000186,9.156874038039527264
0.335000000000000187,9.044353014009363534
0.336000000000000187,8.932425947759238483
0.337000000000000188,8.821104304756053338
0.338000000000000189,8.710399569872890879
0.339000000000000190,8.600323204643412822
0.340000000000000191,8.490886607462572400
0.341000000000000192,8.382101076632061165
0.342000000000000193,8.273977776148447205
0.343000000000000194,8.166527704131285148
0.344000000000000195,8.059761663788849617
0.345000000000000195,7.953690236819076276
0.346000000000000196,7.848323759144325784
0.347000000000000197,7.743672298879221039
0.348000000000000198,7.639745636432155429
0.349000000000000199,7.536553246642401227
0.350000000000000200,7.434104282856290880
0.351000000000000201,7.332407562847764737
0.352000000000000202,7.231471556490552288
0.353000000000000203,7.131304375091163550
0.354000000000000203,7.031913762294121462
0.355000000000000204,6.933307086473211811
0.356000000000000205,6.835491334524732565
0.357000000000000206,6.738473106981130556
0.358000000000000207,6.642258614366136626
0.359000000000000208,6.546853674714704141
0.360000000000000209,6.452263712183713196
0.361000000000000210,6.358493756682119802
0.362000000000000210,6.265548444451501275
0.363000000000000211,6.173432019530753045
0.364000000000000212,6.082148336041125702
0.365000000000000213,5.991700861230371267
0.366000000000000214,5.902092679217266102
0.367000000000000215,5.813326495380309211
0.368000000000000216,5.725404641336682587
0.369000000000000217,5.638329080460281695
0.370000000000000218,5.552101413889614534
0.371000000000000218,5.466722886979028750
0.372000000000000219,5.382194396148732629
0.373000000000000220,5.298516496091421502
0.374000000000000221,5.215689407295499791
0.375000000000000222,5.133713023846945944
0.376000000000000223,5.052586921473820603
0.377000000000000224,4.972310365799609500
0.378000000000000225,4.892882320773296101
0.379000000000000226,4.814301457246136451
0.380000000000000226,4.736566161666608821
0.381000000000000227,4.659674544867103307
0.382000000000000228,4.583624450917264781
0.383000000000000229,4.508413466020722460
0.384000000000000230,4.434038927433419985
0.385000000000000231,4.360497932383143649
0.386000000000000232,4.287787346971526858
0.387000000000000233,4.215903815040833003
0.388000000000000234,4.144843766989483314
0.389000000000000234,4.074603428521223591
0.390000000000000235,4.005178829314254507
0.391000000000000236,3.936565811597681375
0.392000000000000237,3.868760038623706432
0.393000000000000238,3.801757003025080905
0.394000000000000239,3.735552035048292474
0.395000000000000240,3.670140310653864812
0.396000000000000241,3.605516859476064262
0.397000000000000242,3.541676572635149345
0.398000000000000242,3.478614210396007600
0.399000000000000243,3.416324409667963469
0.400000000000000244,3.354801691340981051
0.401000000000000245,3.294040467454337318
0.402000000000000246,3.234035048194499495
0.403000000000000247,3.174779648719286751
0.404000000000000248,3.116268395806246705
0.405000000000000249,3.058495334323441117
0.406000000000000250,3.001454433521533627
0.407000000000000250,2.945139593146287815
0.408000000000000251,2.889544649371244667
0.409000000000000252,2.834663380550546563
0.410000000000000253,2.780489512792343021
0.411000000000000254,2.727016725353494930
0.412000000000000255,2.674238655856681746
0.413000000000000256,2.622148905331127100
0.414000000000000257,2.570741043078685895
0.415000000000000258,2.520008611366971074
0.416000000000000258,2.469945129951693463
0.417000000000000259,2.420544100430376488
0.418000000000000260,2.371799010429933574
0.419000000000000261,2.323703337630622645
0.420000000000000262,2.276250553629215023
0.421000000000000263,2.229434127644088992
0.422000000000000264,2.183247530065407727
0.423000000000000265,2.137684235853285042
0.424000000000000266,2.092737727787176372
0.425000000000000266,2.048401499569746598
0.426000000000000267,2.004669058788451697
0.427000000000000268,1.961533929738207949
0.428000000000000269,1.918989656108542663
0.429000000000000270,1.877029803538609043
0.430000000000000271,1.835647962043543746
0.431000000000000272,1.794837748315547543
0.432000000000000273,1.754592807903243568
0.433000000000000274,1.714906817272670692
0.434000000000000274,1.675773485753387693
0.435000000000000275,1.637186557373159435
0.436000000000000276,1.599139812584566389
0.437000000000000277,1.561627069886945662
0.438000000000000278,1.524642187347054811
0.439000000000000279,1.488179064021702303
0.440000000000000280,1.452231641285663288
0.441000000000000281,1.416793904068163412
0.442000000000000282,1.381859882000975315
0.443000000000000282,1.347423650481460289
0.444000000000000283,1.313479331653467197
0.445000000000000284,1.280021095309254120
0.446000000000000285,1.247043159715340410
0.447000000000000286,1.214539792365209703
0.448000000000000287,1.182505310661791764
0.449000000000000288,1.150934082532430791
0.450000000000000289,1.119820526979164788
0.451000000000000290,1.089159114566949027
0.452000000000000290,1.058944367852425739
0.453000000000000291,1.029170861755848376
0.454000000000000292,0.999833223878576427
0.455000000000000293,0.970926134768619775
0.456000000000000294,0.942444328136560316
0.457000000000000295,0.914382591024141100
0.458000000000000296,0.886735763927779308
0.459000000000000297,0.859498740879144352
0.460000000000000298,0.832666469484899530
0.461000000000000298,0.806233950927677911
0.462000000000000299,0.780196239930218693
0.463000000000000300,0.754548444684636666
0.464000000000000301,0.729285726748619245
0.465000000000000302,0.704403300910400709
0.466000000000000303,0.679896435024196277
0.467000000000000304,0.655760449817797353
0.468000000000000305,0.631990718673959728
0.469000000000000306,0.608582667387114973
0.470000000000000306,0.585531773896904584
0.471000000000000307,0.562833568000046247
0.472000000000000308,0.540483631041870138
0.473000000000000309,0.518477595588859197
0.474000000000000310,0.496811145083583816
0.475000000000000311,0.475480013483129405
0.476000000000000312,0.454479984882378119
0.477000000000000313,0.433806893123105275
0.478000000000000314,0.413456621390180579
0.479000000000000314,0.393425101795773613
0.480000000000000315,0.373708314952675036
0.481000000000000316,0.354302289537648751
0.482000000000000317,0.335203101845763407
0.483000000000000318,0.316406875336576854
0.484000000000000319,0.297909780173024774
0.485000000000000320,0.279708032753840707
0.486000000000000321,0.261797895240217959
0.487000000000000322,0.244175675077508814
0.488000000000000322,0.226837724512656186
0.489000000000000323,0.209780440107965038
0.490000000000000324,0.193000262251903809
0.491000000000000325,0.176493674667517281
0.492000000000000326,0.160257203919024649
0.493000000000000327,0.144287418917107418
0.494000000000000328,0.128580930423477457
0.495000000000000329,0.113134390555097220
0.496000000000000330,0.097944492288651389
0.497000000000000330,0.083007968965512186
0.498000000000000331,0.068321593797828498
0.499000000000000332,0.053882179375926320
0.500000000000000333,0.039686577177467708
0.501000000000000334,0.025731677078742621
0.502000000000000335,0.012014406868299955
0.503000000000000336,-0.001468268236671122
0.504000000000000337,-0.014719346071027850
0.505000000000000338,-0.027741787999100254
0.506000000000000338,-0.040538519388661862
0.507000000000000339,-0.053112430081222593
0.508000000000000340,-0.065466374858388757
0.509000000000000341,-0.077603173904193662
0.510000000000000342,-0.089525613263109968
0.511000000000000343,-0.101236445293710189
0.512000000000000344,-0.112738389117702467
0.513000000000000345,-0.124034131064306496
0.514000000000000346,-0.135126325109825640
0.515000000000000346,-0.146017593312270766
0.516000000000000347,-0.156710526240973369
0.517000000000000348,-0.167207683401118606
0.518000000000000349,-0.177511593653073507
0.519000000000000350,-0.187624755626504575
0.520000000000000351,-0.197549638129158739
0.521000000000000352,-0.207288680550363841
0.522000000000000353,-0.216844293259074755
0.523000000000000353,-0.226218857996578787
0.524000000000000354,-0.235414728263726947
0.525000000000000355,-0.244434229702740730
0.526000000000000356,-0.253279660473547552
0.527000000000000357,-0.261953291624672124
0.528000000000000358,-0.270457367458679820
0.529000000000000359,-0.278794105892169908
0.530000000000000360,-0.286965698810333181
0.531000000000000361,-0.294974312416123707
0.532000000000000361,-0.302822087574036725
0.533000000000000362,-0.310511140148537534
0.534000000000000363,-0.318043561337157610
0.535000000000000364,-0.325421417998340901
0.536000000000000365,-0.332646752974009141
0.537000000000000366,-0.339721585406966786
0.538000000000000367,-0.346647911053112379
0.539000000000000368,-0.353427702588600345
0.540000000000000369,-0.360062909911901097
0.541000000000000369,-0.366555460440927072
0.542000000000000370,-0.372907259405151570
0.543000000000000371,-0.379120190132908041
0.544000000000000372,-0.385196114333840212
0.545000000000000373,-0.391136872376605105
0.546000000000000374,-0.396944283561891154
0.547000000000000375,-0.402620146390788025
0.548000000000000376,-0.408166238828620187
0.549000000000000377,-0.413584318564257980
0.550000000000000377,-0.418876123265044420
0.551000000000000378,-0.424043370827300703
0.552000000000000379,-0.429087759622613529
0.553000000000000380,-0.434010968739846903
0.554000000000000381,-0.438814658223017962
0.555000000000000382,-0.443500469305127987
0.556000000000000383,-0.448070024637917563
0.557000000000000384,-0.452524928517756553
0.558000000000000385,-0.456866767107601046
0.559000000000000385,-0.461097108655185994
0.560000000000000386,-0.465217503707490265
0.561000000000000387,-0.469229485321529860
0.562000000000000388,-0.473134569271551064
0.563000000000000389,-0.476934254252741663
0.564000000000000390,-0.480630022081446728
0.565000000000000391,-0.484223337892030314
0.566000000000000392,-0.487715650330393824
0.567000000000000393,-0.491108391744285722
0.568000000000000393,-0.494402978370377610
0.569000000000000394,-0.497600810518256664
0.570000000000000395,-0.500703272751367501
0.571000000000000396,-0.503711734064924088
0.572000000000000397,-0.506627548060955890
0.573000000000000398,-0.509452053120441173
0.574000000000000399,-0.512186572572668308
0.575000000000000400,-0.514832414861841725
0.576000000000000401,-0.517390873711001342
0.577000000000000401,-0.519863228283348855
0.578000000000000402,-0.522250743340986423
0.579000000000000403,-0.524554669401132379
0.580000000000000404,-0.526776242889945068
0.581000000000000405,-0.528916686293878557
0.582000000000000406,-0.530977208308760384
0.583000000000000407,-0.532959003986534618
0.584000000000000408,-0.534863254879801020
0.585000000000000409,-0.536691129184159288
0.586000000000000409,-0.538443781878400918
0.587000000000000410,-0.540122354862664134
0.588000000000000411,-0.541727977094489055
0.589000000000000412,-0.543261764722950180
0.590000000000000413,-0.544724821220791133
0.591000000000000414,-0.546118237514696236
0.592000000000000415,-0.547443092113702900
0.593000000000000416,-0.548700451235793807
0.594000000000000417,-0.549891368932727165
0.595000000000000417,-0.551016887213166884
0.596000000000000418,-0.552078036164076802
0.597000000000000419,-0.553075834070532957
0.598000000000000420,-0.554011287533866637
0.599000000000000421,-0.554885391588295751
0.600000000000000422,-0.555699129815995896
0.601000000000000423,-0.556453474460662290
0.602000000000000424,-0.557149386539647962
0.603000000000000425,-0.557787815954668198
0.604000000000000425,-0.558369701601074242
0.605000000000000426,-0.558895971475816600
0.606000000000000427,-0.559367542784069194
0.607000000000000428,-0.559785322044511147
0.608000000000000429,-0.560150205193427508
0.609000000000000430,-0.560463077687476718
0.610000000000000431,-0.560724814605326860
0.611000000000000432,-0.560936280748064786
0.612000000000000433,-0.561098330738459827
0.613000000000000433,-0.561211809119117055
0.614000000000000434,-0.561277550449507889
0.615000000000000435,-0.561296379401930556
0.616000000000000436,-0.561269110856397413
