# hydroxyapatite-010-ph14_CS-11727-AC
# h[nm],U(h)[kJ/mol]
0.149999999999999994,94.721726485749996982
0.150999999999999995,92.649657187935304137
0.151999999999999996,90.728271769855126649
0.152999999999999997,88.896285058934125800
0.153999999999999998,87.121540674578582752
0.154999999999999999,85.388515348664640214
0.156000000000000000,83.690612672739774780
0.157000000000000001,82.025578326553187480
0.158000000000000002,80.392908311349103201
0.159000000000000002,78.792495871660861440
0.160000000000000003,77.224020414897282194
0.161000000000000004,75.686757573755571116
0.162000000000000005,74.179608288421391649
0.163000000000000006,72.701223898032679926
0.164000000000000007,71.250156061840314692
0.165000000000000008,69.824993547726720067
0.166000000000000009,68.424468586711427065
0.167000000000000010,67.047527803236164345
0.168000000000000010,65.693369591077470204
0.169000000000000011,64.361453192407864776
0.170000000000000012,63.051485987779130937
0.171000000000000013,61.763395504897530941
0.172000000000000014,60.497291982341565131
0.173000000000000015,59.253426347987080192
0.174000000000000016,58.032147415348120489
0.175000000000000017,56.833861093901056449
0.176000000000000018,55.658993519406500639
0.177000000000000018,54.507959265673640914
0.178000000000000019,53.381135204543284090
0.179000000000000020,52.278840126751696005
0.180000000000000021,51.201319906364368251
0.181000000000000022,50.148737766378914671
0.182000000000000023,49.121169063420033751
0.183000000000000024,48.118599936975279263
0.184000000000000025,47.140929147188259662
0.185000000000000026,46.187972441013904756
0.186000000000000026,45.259468828104147065
0.187000000000000027,44.355088205905431664
0.188000000000000028,43.474439840875064078
0.189000000000000029,42.617081283950739135
0.190000000000000030,41.782527369368658299
0.191000000000000031,40.970259013746577637
0.192000000000000032,40.179731595111306319
0.193000000000000033,39.410382748084479942
0.194000000000000034,38.661639461163446185
0.195000000000000034,37.932924404780450800
0.196000000000000035,37.223661454753646183
0.197000000000000036,36.533280405225148968
0.198000000000000037,35.861220888726585088
0.199000000000000038,35.206935539213183972
0.200000000000000039,34.569892447393741008
0.201000000000000040,33.949576967086535717
0.202000000000000041,33.345492937265795774
0.203000000000000042,32.757163387505094931
0.204000000000000042,32.184130795204623610
0.205000000000000043,31.625956961787743182
0.206000000000000044,31.082222572392861792
0.207000000000000045,30.552526499840034546
0.208000000000000046,30.036484909136692778
0.209000000000000047,29.533730213771463013
0.210000000000000048,29.043909929753930044
0.211000000000000049,28.566685467974004098
0.212000000000000050,28.101730900122571910
0.213000000000000050,27.648731728251370043
0.214000000000000051,27.207383683138107955
0.215000000000000052,26.777391572027500644
0.216000000000000053,26.358468192080316328
0.217000000000000054,25.950333322007470116
0.218000000000000055,25.552712800904920698
0.219000000000000056,25.165337700239895469
0.220000000000000057,24.787943592258773862
0.221000000000000058,24.420269915780675518
0.222000000000000058,24.062059438384316934
0.223000000000000059,23.713057812369154220
0.224000000000000060,23.373013220547612434
0.225000000000000061,23.041676106876526120
0.226000000000000062,22.718798986136540918
0.227000000000000063,22.404136326289499692
0.228000000000000064,22.097444496760818566
0.229000000000000065,21.798481775679924510
0.230000000000000066,21.507008409044050978
0.231000000000000066,21.222786714826476384
0.232000000000000067,20.945581225208801612
0.233000000000000068,20.675158860359431401
0.234000000000000069,20.411289127490427120
0.235000000000000070,20.153744339286216558
0.236000000000000071,19.902299846197728073
0.237000000000000072,19.656734277521564991
0.238000000000000073,19.416829786626021104
0.239000000000000073,19.182372296135412171
0.240000000000000074,18.953151739332462000
0.241000000000000075,18.728962294481100059
0.242000000000000076,18.509602609201760259
0.243000000000000077,18.294876012445026703
0.244000000000000078,18.084590712003770108
0.245000000000000079,17.878559975876029853
0.246000000000000080,17.676602296138959503
0.247000000000000081,17.478541534317500350
0.248000000000000081,17.284207047528347800
0.249000000000000082,17.093433794951373272
0.250000000000000111,16.906062424425901014
0.251000000000000112,16.721939339189173523
0.252000000000000113,16.540916744969397456
0.253000000000000114,16.362852677817659952
0.254000000000000115,16.187611013211316902
0.255000000000000115,16.015061457089093011
0.256000000000000116,15.845079519585144823
0.257000000000000117,15.677546472317407833
0.258000000000000118,15.512349290157056103
0.259000000000000119,15.349380578460051439
0.260000000000000120,15.188538486782274362
0.261000000000000121,15.029726610126690645
0.262000000000000122,14.872853878785599946
0.263000000000000123,14.717834437845539242
0.264000000000000123,14.564587517416816453
0.265000000000000124,14.413037294636257712
0.266000000000000125,14.263112748470636149
0.267000000000000126,14.114747508321423553
0.268000000000000127,13.967879697398723593
0.269000000000000128,13.822451771795886799
0.270000000000000129,13.678410356155652039
0.271000000000000130,13.535706076775568363
0.272000000000000131,13.394293392954978117
0.273000000000000131,13.254130427339134712
0.274000000000000132,13.115178795967798564
0.275000000000000133,12.977403438687497683
0.276000000000000134,12.840772450537841110
0.277000000000000135,12.705256914674384561
0.278000000000000136,12.570830737342646444
0.279000000000000137,12.437470485371429518
0.280000000000000138,12.305155226608125218
0.281000000000000139,12.173866373674517405
0.282000000000000139,12.043587531379085220
0.283000000000000140,11.914304348081071083
0.284000000000000141,11.786004371262404078
0.285000000000000142,11.658676907526560385
0.286000000000000143,11.532312887208128416
0.287000000000000144,11.406904733743784774
0.288000000000000145,11.282446237923931420
0.289000000000000146,11.158932437115421266
0.290000000000000147,11.036359499518102467
0.291000000000000147,10.914724613493133276
0.292000000000000148,10.794025881977336923
0.293000000000000149,10.674262221976592357
0.294000000000000150,10.555433269111663463
0.295000000000000151,10.437539287171876623
0.296000000000000152,10.320581082616046231
0.297000000000000153,10.204559923945424771
0.298000000000000154,10.089477465860593242
0.299000000000000155,9.975335678102576153
0.300000000000000155,9.862136778868505260
0.301000000000000156,9.749883172683400545
0.302000000000000157,9.638577392601996863
0.303000000000000158,9.528222046608419760
0.304000000000000159,9.418819768076046373
0.305000000000000160,9.310373170145888722
0.306000000000000161,9.202884803878424336
0.307000000000000162,9.096357120031427712
0.308000000000000163,8.990792434314858639
0.309000000000000163,8.886192895972927275
0.310000000000000164,8.782560459543365283
0.311000000000000165,8.679896859644330220
0.312000000000000166,8.578203588640450405
0.313000000000000167,8.477481877040995428
0.314000000000000168,8.377732676485177166
0.315000000000000169,8.278956645171872353
0.316000000000000170,8.181154135593953214
0.317000000000000171,8.084325184440206868
0.318000000000000171,7.988469504531478194
0.319000000000000172,7.893586478660829187
0.320000000000000173,7.799675155211583721
0.321000000000000174,7.706734245430810759
0.322000000000000175,7.614762122239954856
0.323000000000000176,7.523756820468392448
0.324000000000000177,7.433716038399910353
0.325000000000000178,7.344637140526448782
0.326000000000000179,7.256517161407595395
0.327000000000000179,7.169352810538794252
0.328000000000000180,7.083140478135382168
0.329000000000000181,6.997876241743942849
0.330000000000000182,6.913555873596661350
0.331000000000000183,6.830174848628509210
0.332000000000000184,6.747728353081271280
0.333000000000000185,6.666211293622472667
0.334000000000000186,6.585618306911115383
0.335000000000000187,6.505943769546151501
0.336000000000000187,6.427181808337268265
0.337000000000000188,6.349326310841337140
0.338000000000000189,6.272370936111317796
0.339000000000000190,6.196309125607942114
0.340000000000000191,6.121134114227851697
0.341000000000000192,6.046838941404973689
0.342000000000000193,5.973416462245132230
0.343000000000000194,5.900859358656774134
0.344000000000000195,5.829160150443660982
0.345000000000000195,5.758311206327965337
0.346000000000000196,5.688304754874947911
0.347000000000000197,5.619132895292888286
0.348000000000000198,5.550787608084196911
0.349000000000000199,5.483260765526122071
0.350000000000000200,5.416544141961380454
0.351000000000000201,5.350629423881266611
0.352000000000000202,5.285508219785656436
0.353000000000000203,5.221172069806153893
0.354000000000000203,5.157612455080344382
0.355000000000000204,5.094820806866810159
0.356000000000000205,5.032788515392020656
0.357000000000000206,4.971506938421635269
0.358000000000000207,4.910967409550210050
0.359000000000000208,4.851161246204480193
0.360000000000000209,4.792079757356451530
0.361000000000000210,4.733714250943946489
0.362000000000000210,4.676056040996881435
0.363000000000000211,4.619096454468762047
0.364000000000000212,4.562826837773672040
0.365000000000000213,4.507238563029750011
0.366000000000000214,4.452323034011056002
0.367000000000000215,4.398071691810229389
0.368000000000000216,4.344476020215013889
0.369000000000000217,4.291527550802401336
0.370000000000000218,4.239217867754415892
0.371000000000000218,4.187538612400239835
0.372000000000000219,4.136481487489662712
0.373000000000000220,4.086038261203191801
0.374000000000000221,4.036200770904584623
0.375000000000000222,3.986960926641764047
0.376000000000000223,3.938310714402258661
0.377000000000000224,3.890242199129697376
0.378000000000000225,3.842747527507862859
0.379000000000000226,3.795818930519137435
0.380000000000000226,3.749448725784063186
0.381000000000000227,3.703629319689105248
0.382000000000000228,3.658353209309500365
0.383000000000000229,3.613612984134286332
0.384000000000000230,3.569401327600589813
0.385000000000000231,3.525711018444142919
0.386000000000000232,3.482534931873197959
0.387000000000000233,3.439866040572677974
0.388000000000000234,3.397697415545668065
0.389000000000000234,3.356022226798994090
0.390000000000000235,3.314833743879785466
0.391000000000000236,3.274125336269667397
0.392000000000000237,3.233890473643234120
0.393000000000000238,3.194122725997250001
0.394000000000000239,3.154815763657036864
0.395000000000000240,3.115963357166215530
0.396000000000000241,3.077559377065974378
0.397000000000000242,3.039597793569844608
0.398000000000000242,3.002072676139783347
0.399000000000000243,2.964978192969333293
0.400000000000000244,2.928308610379318999
0.401000000000000245,2.892058292131508335
0.402000000000000246,2.856221698665508679
0.403000000000000247,2.820793386263912517
0.404000000000000248,2.785768006150654230
0.405000000000000249,2.751140303527327191
0.406000000000000250,2.716905116552081889
0.407000000000000250,2.683057375265534894
0.408000000000000251,2.649592100467974554
0.409000000000000252,2.616504402552022324
0.410000000000000253,2.583789480294697682
0.411000000000000254,2.551442619612725338
0.412000000000000255,2.519459192284774662
0.413000000000000256,2.487834654644090815
0.414000000000000257,2.456564546244998759
0.415000000000000258,2.425644488506379481
0.416000000000000258,2.395070183335337610
0.417000000000000259,2.364837411733891948
0.418000000000000260,2.334942032391597699
0.419000000000000261,2.305379980266692552
0.420000000000000262,2.276147265158397826
0.421000000000000263,2.247239970272693288
0.422000000000000264,2.218654250783981929
0.423000000000000265,2.190386332394704816
0.424000000000000266,2.162432509895021671
0.425000000000000266,2.134789145724508508
0.426000000000000267,2.107452668537655338
0.427000000000000268,2.080419571774927423
0.428000000000000269,2.053686412241002124
0.429000000000000270,2.027249808691677480
0.430000000000000271,2.001106440430908240
0.431000000000000272,1.975253045919253880
0.432000000000000273,1.949686421395020464
0.433000000000000274,1.924403419509213675
0.434000000000000274,1.899400947975359966
0.435000000000000275,1.874675968235220536
0.436000000000000276,1.850225494141251703
0.437000000000000277,1.826046590656675850
0.438000000000000278,1.802136372573917011
0.439000000000000279,1.778492003252071685
0.440000000000000280,1.755110693374047459
0.441000000000000281,1.731989699723965881
0.442000000000000282,1.709126323985237006
0.443000000000000282,1.686517911559865635
0.444000000000000283,1.664161850409276111
0.445000000000000284,1.642055569917053592
0.446000000000000285,1.620196539773863575
0.447000000000000286,1.598582268884767954
0.448000000000000287,1.577210304299184740
0.449000000000000288,1.556078230163578491
0.450000000000000289,1.535183666697033988
0.451000000000000290,1.514524269189779115
0.452000000000000290,1.494097727024661149
0.453000000000000291,1.473901762721626429
0.454000000000000292,1.453934131005129693
0.455000000000000293,1.434192617894435973
0.456000000000000294,1.414675039816721602
0.457000000000000295,1.395379242742845971
0.458000000000000296,1.376303101345677238
0.459000000000000297,1.357444518180780602
0.460000000000000298,1.338801422889299264
0.461000000000000298,1.320371771422827578
0.462000000000000299,1.302153545290029246
0.463000000000000300,1.284144750824784076
0.464000000000000301,1.266343418475584626
0.465000000000000302,1.248747602115932942
0.466000000000000303,1.231355378375424525
0.467000000000000304,1.214164845991234198
0.468000000000000305,1.197174125179713666
0.469000000000000306,1.180381357027748601
0.470000000000000306,1.163784702903551516
0.471000000000000307,1.147382343886598211
0.472000000000000308,1.131172480216301235
0.473000000000000309,1.115153330759103056
0.474000000000000310,1.099323132493656097
0.475000000000000311,1.083680140013667526
0.476000000000000312,1.068222625048132812
0.477000000000000313,1.052948875998487743
0.478000000000000314,1.037857197492414674
0.479000000000000314,1.022945909953854926
0.480000000000000315,1.008213349188896490
0.481000000000000316,0.993657865987149003
0.482000000000000317,0.979277825738247287
0.483000000000000318,0.965071608063091113
0.484000000000000319,0.951037606459470330
0.485000000000000320,0.937174227961707018
0.486000000000000321,0.923479892813926062
0.487000000000000322,0.909953034156602669
0.488000000000000322,0.896592097726049531
0.489000000000000323,0.883395541566429188
0.490000000000000324,0.870361835753984847
0.491000000000000325,0.857489462133112168
0.492000000000000326,0.844776914063939066
0.493000000000000327,0.832222696181045385
0.494000000000000328,0.819825324163013569
0.495000000000000329,0.807583324512439860
0.496000000000000330,0.795495234346127011
0.497000000000000330,0.783559601195042310
0.498000000000000331,0.771774982813842492
0.499000000000000332,0.760139946999542682
0.500000000000000333,0.748653071419056682
0.501000000000000334,0.737312943445344482
0.502000000000000335,0.726118160001787971
0.503000000000000336,0.715067327414574572
0.504000000000000337,0.704159061272748632
0.505000000000000338,0.693391986295681662
0.506000000000000338,0.682764736207667644
0.507000000000000339,0.672275953619369870
0.508000000000000340,0.661924289915878483
0.509000000000000341,0.651708405151078085
0.510000000000000342,0.641626967948125237
0.511000000000000343,0.631678655405722211
0.512000000000000344,0.621862153010023677
0.513000000000000345,0.612176154551873020
0.514000000000000346,0.602619362049164886
0.515000000000000346,0.593190485674122137
0.516000000000000347,0.583888243685257158
0.517000000000000348,0.574711362363787059
0.518000000000000349,0.565658575954334331
0.519000000000000350,0.556728626609671151
0.520000000000000351,0.547920264339357366
0.521000000000000352,0.539232246962016215
0.522000000000000353,0.530663340061152122
0.523000000000000353,0.522212316944235644
0.524000000000000354,0.513877958604959328
0.525000000000000355,0.505659053688444105
0.526000000000000356,0.497554398459271741
0.527000000000000357,0.489562796772149533
0.528000000000000358,0.481683060045076439
0.529000000000000359,0.473914007234852996
0.530000000000000360,0.466254464814806202
0.531000000000000361,0.458703266754562133
0.532000000000000361,0.451259254501758300
0.533000000000000362,0.443921276965551281
0.534000000000000363,0.436688190501813456
0.535000000000000364,0.429558858899855345
0.536000000000000365,0.422532153370626218
0.537000000000000366,0.415606952536198726
0.538000000000000367,0.408782142420516581
0.539000000000000368,0.402056616441215042
0.540000000000000369,0.395429275402488567
0.541000000000000369,0.388899027488849136
0.542000000000000370,0.382464788259747890
0.543000000000000371,0.376125480644895260
0.544000000000000372,0.369880034940267444
0.545000000000000373,0.363727388804667040
0.546000000000000374,0.357666487256776744
0.547000000000000375,0.351696282672654459
0.548000000000000376,0.345815734783549211
0.549000000000000377,0.340023810674026705
0.550000000000000377,0.334319484780275566
0.551000000000000378,0.328701738888614092
0.552000000000000379,0.323169562134045130
0.553000000000000380,0.317721950998883451
0.554000000000000381,0.312357909311364534
0.555000000000000382,0.307076448244162692
0.556000000000000383,0.301876586312843032
0.557000000000000384,0.296757349374101476
0.558000000000000385,0.291717770623855233
0.559000000000000385,0.286756890595057268
0.560000000000000386,0.281873757155239990
0.561000000000000387,0.277067425503750520
0.562000000000000388,0.272336958168633347
0.563000000000000389,0.267681425003121476
0.564000000000000390,0.263099903181730987
0.565000000000000391,0.258591477195906971
0.566000000000000392,0.254155238849215759
0.567000000000000393,0.249790287252026205
0.568000000000000393,0.245495728815710634
0.569000000000000394,0.241270677246290477
0.570000000000000395,0.237114253537536929
0.571000000000000396,0.233025585963518106
0.572000000000000397,0.229003810070537661
0.573000000000000398,0.225048068668498802
0.574000000000000399,0.221157511821644309
0.575000000000000400,0.217331296838675664
0.576000000000000401,0.213568588262256387
0.577000000000000401,0.209868557857840671
0.578000000000000402,0.206230384601884476
0.579000000000000403,0.202653254669395461
0.580000000000000404,0.199136361420797686
0.581000000000000405,0.195678905388167346
0.582000000000000406,0.192280094260771472
0.583000000000000407,0.188939142869949034
0.584000000000000408,0.185655273173315954
0.585000000000000409,0.182427714238294791
0.586000000000000409,0.179255702224984603
0.587000000000000410,0.176138480368328187
0.588000000000000411,0.173075298959655649
0.589000000000000412,0.170065415327511238
0.590000000000000413,0.167108093817857600
0.591000000000000414,0.164202605773592802
0.592000000000000415,0.161348229513423591
0.593000000000000416,0.158544250310089951
0.594000000000000417,0.155789960367944541
0.595000000000000417,0.153084658799880119
0.596000000000000418,0.150427651603653123
0.597000000000000419,0.147818251637553716
0.598000000000000420,0.145255778595487939
0.599000000000000421,0.142739558981426068
0.600000000000000422,0.140268926083263329
0.601000000000000423,0.137843219946106460
0.602000000000000424,0.135461787344945878
0.603000000000000425,0.133123981756772869
0.604000000000000425,0.130829163332151083
0.605000000000000426,0.128576698866207956
0.606000000000000427,0.126365961769095397
0.607000000000000428,0.124196332035941021
0.608000000000000429,0.122067196216235005
0.609000000000000430,0.119977947382761060
0.610000000000000431,0.117927985099984228
0.611000000000000432,0.115916715391982977
0.612000000000000433,0.113943550709895328
0.613000000000000433,0.112007909898899444
0.614000000000000434,0.110109218164749917
0.615000000000000435,0.108246907039869500
0.616000000000000436,0.106420414349029852
0.617000000000000437,0.104629184174584777
0.618000000000000438,0.102872666821328673
0.619000000000000439,0.101150318780961118
0.620000000000000440,0.099461602696157309
