# hydroxyapatite-010-ph14_CS-28994-AC
# h[nm],U(h)[kJ/mol]
0.149999999999999994,82.825846755840089486
0.150999999999999995,81.093025604304827425
0.151999999999999996,79.428028250337789018
0.152999999999999997,77.813117667846000813
0.153999999999999998,76.237476909461051378
0.154999999999999999,74.694521418847998007
0.156000000000000000,73.180272447474749242
0.157000000000000001,71.692357079598764358
0.158000000000000002,70.229381439702905254
0.159000000000000002,68.790530585998439506
0.160000000000000003,67.375310507189126952
0.161000000000000004,65.983382773860995485
0.162000000000000005,64.614461978742511405
0.163000000000000006,63.268256906216571167
0.164000000000000007,61.944442387972131314
0.165000000000000008,60.642652302898682137
0.166000000000000009,59.362486410981134100
0.167000000000000010,58.103525318812089040
0.168000000000000010,56.865349167587190493
0.169000000000000011,55.647556743515181665
0.170000000000000012,54.449782678663645186
0.171000000000000013,53.271711244059702040
0.172000000000000014,52.113085932769436681
0.173000000000000015,50.973714586827853168
0.174000000000000016,49.853470242415852454
0.175000000000000017,48.752288162961534113
0.176000000000000018,47.670159715042537130
0.177000000000000018,46.607123835040837889
0.178000000000000019,45.563256854331200429
0.179000000000000020,44.538661415672628152
0.180000000000000021,43.533455140109921899
0.181000000000000022,42.547759606521751152
0.182000000000000023,41.581690096895840725
0.183000000000000024,40.635346448845133693
0.184000000000000025,39.708805249787559433
0.185000000000000026,38.802113509453718621
0.186000000000000026,37.915283862014732108
0.187000000000000027,37.048291277716799641
0.188000000000000028,36.201071206898568278
0.189000000000000029,35.373519036229573942
0.190000000000000030,34.565490706919042907
0.191000000000000031,33.776804326097433773
0.192000000000000032,33.007242593953556309
0.193000000000000033,32.256555868824484890
0.194000000000000034,31.524465698621963128
0.195000000000000034,30.810668658167536194
0.196000000000000035,30.114840346777690172
0.197000000000000036,29.436639417538465580
0.198000000000000037,28.775711528066874934
0.199000000000000038,28.131693121290958004
0.200000000000000039,27.504214963182629816
0.201000000000000040,26.892905381901243800
0.202000000000000041,26.297393169051098027
0.203000000000000042,25.717310118450392054
0.204000000000000042,25.152293190786100041
0.205000000000000043,24.601986303715605686
0.206000000000000044,24.066041756367091864
0.207000000000000045,23.544121304841638675
0.208000000000000046,23.035896911325572489
0.209000000000000047,22.541051193909023453
0.210000000000000048,22.059277607320151304
0.211000000000000049,21.590280386682639602
0.212000000000000050,21.133774287244754930
0.213000000000000050,20.689484152973786735
0.214000000000000051,20.257144346109875244
0.215000000000000052,19.836498068373863646
0.216000000000000053,19.427296602657548874
0.217000000000000054,19.029298501811005906
0.218000000000000055,18.642268748687758517
0.219000000000000056,18.265977909008920932
0.220000000000000057,17.900201295939968560
0.221000000000000058,17.544718162609662215
0.222000000000000058,17.199310936191444910
0.223000000000000059,16.863764504662366761
0.224000000000000060,16.537865564984542743
0.225000000000000061,16.221402039247955429
0.226000000000000062,15.914162563287334251
0.227000000000000063,15.615936050452564388
0.228000000000000064,15.326511331576616826
0.229000000000000065,15.045676870747584530
0.230000000000000066,14.773220555250077268
0.231000000000000066,14.508929556988226395
0.232000000000000067,14.252590261829316987
0.233000000000000068,14.003988262603163761
0.234000000000000069,13.762908410944683979
0.235000000000000070,13.529134922763358162
0.236000000000000071,13.302451531849536437
0.237000000000000072,13.082641685969912615
0.238000000000000073,12.869488779749669760
0.239000000000000073,12.662776418673995948
0.240000000000000074,12.462288708652677016
0.241000000000000075,12.267810565768593634
0.242000000000000076,12.079128041060693377
0.243000000000000077,11.896028655465523016
0.244000000000000078,11.718301740348346485
0.245000000000000079,11.545738779386924833
0.246000000000000080,11.378133747920397667
0.247000000000000081,11.215283446235165599
0.248000000000000081,11.056987823623664724
0.249000000000000082,10.903050290414975976
0.250000000000000111,10.753278015533336287
0.251000000000000112,10.607482207489104198
0.252000000000000113,10.465478377041907976
0.253000000000000114,10.327086580096967339
0.254000000000000115,10.192131639698606804
0.255000000000000115,10.060443346270533382
0.256000000000000116,9.931856635517638310
0.257000000000000117,9.806211743649342338
0.258000000000000118,9.683354339809062239
0.259000000000000119,9.563135635798120759
0.260000000000000120,9.445412473365582429
0.261000000000000121,9.330047389498883348
0.262000000000000122,9.216908660293468003
0.263000000000000123,9.105870324104747837
0.264000000000000123,8.996812184792364775
0.265000000000000124,8.889619795956809511
0.266000000000000125,8.784184427142161411
0.267000000000000126,8.680403013037766513
0.268000000000000127,8.578178086756626186
0.269000000000000128,8.477417698300536486
0.270000000000000129,8.378035319342592047
0.271000000000000130,8.279949735467400984
0.272000000000000131,8.183084927009726783
0.273000000000000131,8.087369939623965109
0.274000000000000132,7.992738745700705749
0.275000000000000133,7.899130097724182065
0.276000000000000134,7.806487374635716847
0.277000000000000135,7.714758422234957891
0.278000000000000136,7.623895388612855761
0.279000000000000137,7.533854555569179823
0.280000000000000138,7.444596166923423297
0.281000000000000139,7.356084254581662485
0.282000000000000139,7.268286463174069567
0.283000000000000140,7.181173874028944581
0.284000000000000141,7.094720829199343548
0.285000000000000142,7.008904756208748310
0.286000000000000143,6.923705994132252961
0.287000000000000144,6.839107621580865271
0.288000000000000145,6.755095287107698354
0.289000000000000146,6.671657042507757929
0.290000000000000147,6.588783179436513926
0.291000000000000147,6.506466069727959045
0.292000000000000148,6.424700009749406249
0.293000000000000149,6.343481069089043523
0.294000000000000150,6.262806943832376128
0.295000000000000151,6.182676814645988728
0.296000000000000152,6.103091209851216448
0.297000000000000153,6.024051873636305565
0.298000000000000154,5.945561639523890385
0.299000000000000155,5.867624309180586195
0.300000000000000155,5.790244536627588090
0.301000000000000156,5.713427717885340762
0.302000000000000157,5.637179886061036704
0.303000000000000158,5.561507611865842193
0.304000000000000159,5.486417909528208625
0.305000000000000160,5.411918148051244160
0.306000000000000161,5.338015967745209700
0.307000000000000162,5.264719201951073124
0.308000000000000163,5.192035803857502074
0.309000000000000163,5.119973778301583955
0.310000000000000164,5.048541118432906316
0.311000000000000165,4.977745747111461228
0.312000000000000166,4.907595462901751304
0.313000000000000167,4.838097890518794131
0.314000000000000168,4.769260435576115675
0.315000000000000169,4.701090243481198527
0.316000000000000170,4.633594162320394005
0.317000000000000171,4.566778709572558270
0.318000000000000171,4.500650042489101388
0.319000000000000172,4.435213931976875301
0.320000000000000173,4.370475739820339101
0.321000000000000174,4.306440399079694004
0.322000000000000175,4.243112397502723177
0.323000000000000176,4.180495763789653374
0.324000000000000177,4.118594056552376870
0.325000000000000178,4.057410355811926550
0.326000000000000179,3.996947256880859722
0.327000000000000179,3.937206866480631895
0.328000000000000180,3.878190800947386663
0.329000000000000181,3.819900186383500706
0.330000000000000182,3.762335660616277444
0.331000000000000183,3.705497376829256950
0.332000000000000184,3.649385008736142133
0.333000000000000185,3.593997757171751850
0.334000000000000186,3.539334357978994205
0.335000000000000187,3.485393091075600580
0.336000000000000187,3.432171790588913751
0.337000000000000188,3.379667855951976385
0.338000000000000189,3.327878263858676355
0.339000000000000190,3.276799580980541915
0.340000000000000191,3.226427977352522625
0.341000000000000192,3.176759240339543489
0.342000000000000193,3.127788789100413247
0.343000000000000194,3.079511689469964786
0.344000000000000195,3.031922669184980990
0.345000000000000195,2.985016133383469494
0.346000000000000196,2.938786180311383500
0.347000000000000197,2.893226617174801785
0.348000000000000198,2.848330976079664900
0.349000000000000199,2.804092530005075190
0.350000000000000200,2.760504308759840875
0.351000000000000201,2.717559114875686355
0.352000000000000202,2.675249539394001452
0.353000000000000203,2.633567977506376501
0.354000000000000203,2.592506644012437356
0.355000000000000204,2.552057588561647439
0.356000000000000205,2.512212710648630054
0.357000000000000206,2.472963774334485443
0.358000000000000207,2.434302422669334387
0.359000000000000208,2.396220191793837273
0.360000000000000209,2.358708524699887565
0.361000000000000210,2.321758784633183303
0.362000000000000210,2.285362268122386187
0.363000000000000211,2.249510217621829344
0.364000000000000212,2.214193833756648466
0.365000000000000213,2.179404287161114340
0.366000000000000214,2.145132729902667457
0.367000000000000215,2.111370306485871762
0.368000000000000216,2.078108164431905713
0.369000000000000217,2.045337464430889263
0.370000000000000218,2.013049390065414723
0.371000000000000218,1.981235157105166067
0.372000000000000219,1.949886022373456651
0.373000000000000220,1.918993292187724631
0.374000000000000221,1.888548330376971673
0.375000000000000222,1.858542565880079822
0.376000000000000223,1.828967499929654794
0.377000000000000224,1.799814712827001673
0.378000000000000225,1.771075870314348766
0.379000000000000226,1.742742729551206793
0.380000000000000226,1.714807144702150010
0.381000000000000227,1.687261072144030649
0.382000000000000228,1.660096575300849420
0.383000000000000229,1.633305829115074825
0.384000000000000230,1.606881124164477814
0.385000000000000231,1.580814870433789876
0.386000000000000232,1.555099600750901034
0.387000000000000233,1.529727973897300197
0.388000000000000234,1.504692777402869996
0.389000000000000234,1.479986930035052328
0.390000000000000235,1.455603483992676583
0.391000000000000236,1.431535626814688822
0.392000000000000237,1.407776683014130281
0.393000000000000238,1.384320115447640109
0.394000000000000239,1.361159526430842259
0.395000000000000240,1.338288658609819048
0.396000000000000241,1.315701395598884771
0.397000000000000242,1.293391762394781708
0.398000000000000242,1.271353925577229704
0.399000000000000243,1.249582193305804667
0.400000000000000244,1.228071015122797149
0.401000000000000245,1.206814981571658008
0.402000000000000246,1.185808823640509324
0.403000000000000247,1.165047412039887487
0.404000000000000248,1.144525756323840682
0.405000000000000249,1.124239003863212405
0.406000000000000250,1.104182438679818246
0.407000000000000250,1.084351480149936098
0.408000000000000251,1.064741681585382516
0.409000000000000252,1.045348728700193686
0.410000000000000253,1.026168437970721659
0.411000000000000254,1.007196754896719337
0.412000000000000255,0.988429752170796427
0.413000000000000256,0.969863627763309033
0.414000000000000257,0.951494702929678526
0.415000000000000258,0.933319420146684231
0.416000000000000258,0.915334340984284678
0.417000000000000259,0.897536143919081320
0.418000000000000260,0.879921622095465317
0.419000000000000261,0.862487681040165155
0.420000000000000262,0.845231336335753092
0.421000000000000263,0.828149711258370003
0.422000000000000264,0.811240034384841380
0.423000000000000265,0.794499637173973094
0.424000000000000266,0.777925951526728610
0.425000000000000266,0.761516507329753067
0.426000000000000267,0.745268929986462325
0.427000000000000268,0.729180937939763685
0.428000000000000269,0.713250340190261012
0.429000000000000270,0.697475033813588663
0.430000000000000271,0.681853001480365095
0.431000000000000272,0.666382308982027327
0.432000000000000273,0.651061102765694288
0.433000000000000274,0.635887607480955075
0.434000000000000274,0.620860123541368436
0.435000000000000275,0.605977024703283185
0.436000000000000276,0.591236755664397373
0.437000000000000277,0.576637829684366721
0.438000000000000278,0.562178826229600026
0.439000000000000279,0.547858388644204330
0.440000000000000280,0.533675221848973425
0.441000000000000281,0.519628090070127113
0.442000000000000282,0.505715814599343338
0.443000000000000282,0.491937271586622926
0.444000000000000283,0.478291389867252725
0.445000000000000284,0.464777148824135011
0.446000000000000285,0.451393576286585829
0.447000000000000286,0.438139746466565339
0.448000000000000287,0.425014777933320265
0.449000000000000288,0.412017831627144004
0.450000000000000289,0.399148108913036426
0.451000000000000290,0.386404849674835404
0.452000000000000290,0.373787330450347011
0.453000000000000291,0.361294862607955791
0.454000000000000292,0.348926790565027900
0.455000000000000293,0.336682490048442640
0.456000000000000294,0.324561366397446094
0.457000000000000295,0.312562852908981170
0.458000000000000296,0.300686409225589202
0.459000000000000297,0.288931519765899647
0.460000000000000298,0.277297692197672419
0.461000000000000298,0.265784455953322896
0.462000000000000299,0.254391360787758147
0.463000000000000300,0.243117975378378759
0.464000000000000301,0.231963885966967875
0.465000000000000302,0.220928695043231260
0.466000000000000303,0.210012020069642702
0.467000000000000304,0.199213492247246604
0.468000000000000305,0.188532755322048384
0.469000000000000306,0.177969464431543406
0.470000000000000306,0.167523284990931692
0.471000000000000307,0.157193891618577913
0.472000000000000308,0.146980967100154319
0.473000000000000309,0.136884201390965604
0.474000000000000310,0.126903290655920375
0.475000000000000311,0.117037936346524596
0.476000000000000312,0.107287844314370745
0.477000000000000313,0.097652723960448135
0.478000000000000314,0.088132287419724120
0.479000000000000314,0.078726248780290081
0.480000000000000315,0.069434323336488579
0.481000000000000316,0.060256226875315733
0.482000000000000317,0.051191674995469526
0.483000000000000318,0.042240382458346049
0.484000000000000319,0.033402062570323167
0.485000000000000320,0.024676426595640642
0.486000000000000321,0.016063183199182162
0.487000000000000322,0.007562037918475384
0.488000000000000322,-0.000827307335760574
0.489000000000000323,-0.009105154751258327
0.490000000000000324,-0.017271811058689957
0.491000000000000325,-0.025327587949704355
0.492000000000000326,-0.033272802469197706
0.493000000000000327,-0.041107777382519917
0.494000000000000328,-0.048832841518269297
0.495000000000000329,-0.056448330087396782
0.496000000000000330,-0.063954584979235368
0.497000000000000330,-0.071351955035206679
0.498000000000000331,-0.078640796300765634
0.499000000000000332,-0.085821472256331549
0.500000000000000333,-0.092894354027809850
0.501000000000000334,-0.099859820577335695
0.502000000000000335,-0.106718258874920188
0.503000000000000336,-0.113470064051573893
0.504000000000000337,-0.120115639534573604
0.505000000000000338,-0.126655397165437389
0.506000000000000338,-0.133089757301244893
0.507000000000000339,-0.139419148899877166
0.508000000000000340,-0.145644009589748047
0.509000000000000341,-0.151764785724633505
0.510000000000000342,-0.157781932424110594
0.511000000000000343,-0.163695913600216403
0.512000000000000344,-0.169507201970810428
0.513000000000000345,-0.175216279060211033
0.514000000000000346,-0.180823635187628284
0.515000000000000346,-0.186329769443872445
0.516000000000000347,-0.191735189656858623
0.517000000000000348,-0.197040412346413979
0.518000000000000349,-0.202245962668822166
0.519000000000000350,-0.207352374351620794
0.520000000000000351,-0.212360189619065082
0.521000000000000352,-0.217269959108755739
0.522000000000000353,-0.222082241779799183
0.523000000000000353,-0.226797604813001069
0.524000000000000354,-0.231416623503448327
0.525000000000000355,-0.235939881145917157
0.526000000000000356,-0.240367968913481750
0.527000000000000357,-0.244701485729725304
0.528000000000000358,-0.248941038134918274
0.529000000000000359,-0.253087240146519454
0.530000000000000360,-0.257140713114359265
0.531000000000000361,-0.261102085570860898
0.532000000000000361,-0.264971993076610679
0.533000000000000362,-0.268751078061612081
0.534000000000000363,-0.272439989662538129
0.535000000000000364,-0.276039383556292761
0.536000000000000365,-0.279549921790148315
0.537000000000000366,-0.282972272608792041
0.538000000000000367,-0.286307110278496757
0.539000000000000368,-0.289555114908756295
0.540000000000000369,-0.292716972271569342
0.541000000000000369,-0.295793373618694233
0.542000000000000370,-0.298785015497039896
0.543000000000000371,-0.301692599562504826
0.544000000000000372,-0.304516832392426384
0.545000000000000373,-0.307258425296891402
0.546000000000000374,-0.309918094129111643
0.547000000000000375,-0.312496559095047755
0.548000000000000376,-0.314994544562508139
0.549000000000000377,-0.317412778869870293
0.550000000000000377,-0.319751994134647666
0.551000000000000378,-0.322012926062022253
0.552000000000000379,-0.324196313753561671
0.553000000000000380,-0.326302899516235201
0.554000000000000381,-0.328333428671899075
0.555000000000000382,-0.330288649367414866
0.556000000000000383,-0.332169312385483029
0.557000000000000384,-0.333976170956404306
0.558000000000000385,-0.335709980570811195
0.559000000000000385,-0.337371498793555769
0.560000000000000386,-0.338961485078837832
0.561000000000000387,-0.340480700586686225
0.562000000000000388,-0.341929908000891625
0.563000000000000389,-0.343309871348516205
0.564000000000000390,-0.344621355821033482
0.565000000000000391,-0.345865127597219213
0.566000000000000392,-0.347041953667856506
0.567000000000000393,-0.348152601662357231
0.568000000000000393,-0.349197839677336586
0.569000000000000394,-0.350178436107246527
0.570000000000000395,-0.351095159477125551
0.571000000000000396,-0.351948778277494267
0.572000000000000397,-0.352740060801512045
0.573000000000000398,-0.353469774984387364
0.574000000000000399,-0.354138688245136113
0.575000000000000400,-0.354747567330710611
0.576000000000000401,-0.355297178162532812
0.577000000000000401,-0.355788285685516459
0.578000000000000402,-0.356221653719551667
0.579000000000000403,-0.356598044813514037
0.580000000000000404,-0.356918220101856476
0.581000000000000405,-0.357182939163735447
0.582000000000000406,-0.357392959884778594
0.583000000000000407,-0.357549038321441248
0.584000000000000408,-0.357651928568023636
0.585000000000000409,-0.357702382626333804
0.586000000000000409,-0.357701150278001645
0.587000000000000410,-0.357648978959502151
0.588000000000000411,-0.357546613639816380
0.589000000000000412,-0.357394796700824746
0.590000000000000413,-0.357194267820354461
0.591000000000000414,-0.356945763857941412
0.592000000000000415,-0.356650018743274178
0.593000000000000416,-0.356307763367327390
0.594000000000000417,-0.355919725476169790
0.595000000000000417,-0.355486629567476065
0.596000000000000418,-0.355009196789663029
0.597000000000000419,-0.354488144843736086
0.598000000000000420,-0.353924187887733610
0.599000000000000421,-0.353318036443848293
0.600000000000000422,-0.352670397308146755
0.601000000000000423,-0.351981973462888287
0.602000000000000424,-0.351253463991459625
0.603000000000000425,-0.350485563995863614
0.604000000000000425,-0.349678964516751345
0.605000000000000426,-0.348834352456006858
0.606000000000000427,-0.347952410501842890
0.607000000000000428,-0.347033817056354443
0.608000000000000429,-0.346079246165593268
0.609000000000000430,-0.345089367452027174
0.610000000000000431,-0.344064846049468853
0.611000000000000432,-0.343006342540364162
0.612000000000000433,-0.341914512895461264
0.613000000000000433,-0.340790008415824075
0.614000000000000434,-0.339633475677155516
0.615000000000000435,-0.338445556476405174
0.616000000000000436,-0.337226887780631590
0.617000000000000437,-0.335978101678111762
0.618000000000000438,-0.334699825331635892
