# hydroxyapatite-010-ph14_CS-62242-AC
# h[nm],U(h)[kJ/mol]
0.149999999999999994,93.012011100064654556
0.150999999999999995,90.606169999584807329
0.151999999999999996,88.626479551991167227
0.152999999999999997,86.795572107544458618
0.153999999999999998,84.997911193135479380
0.154999999999999999,83.199246279913296576
0.156000000000000000,81.401247912667443529
0.157000000000000001,79.617467020768003749
0.158000000000000002,77.861793825768955912
0.159000000000000002,76.143909076812477110
0.160000000000000003,74.468378951284563527
0.161000000000000004,72.835427284480346088
0.162000000000000005,71.242286467175560460
0.163000000000000006,69.684559086376381742
0.164000000000000007,68.157335890811594936
0.165000000000000008,66.655991784403681777
0.166000000000000009,65.176672918749943619
0.167000000000000010,63.716528764317828859
0.168000000000000010,62.273755109128970275
0.169000000000000011,60.847510866266212304
0.170000000000000012,59.437761587677485409
0.171000000000000013,58.045090432858657437
0.172000000000000014,56.670505590227847392
0.173000000000000015,55.315263017407460211
0.174000000000000016,53.980715284016810074
0.175000000000000017,52.668191257368768277
0.176000000000000018,51.378907137897066093
0.177000000000000018,50.113906609272120818
0.178000000000000019,48.874026287416164394
0.179000000000000020,47.659881929649401400
0.180000000000000021,46.471870741772114854
0.181000000000000022,45.310185388873328804
0.182000000000000023,44.174835814817768664
0.183000000000000024,43.065675587613640118
0.184000000000000025,41.982430130232486931
0.185000000000000026,40.924724813936023793
0.186000000000000026,39.892111450238729731
0.187000000000000027,38.884092200625723024
0.188000000000000028,37.900140323640812312
0.189000000000000029,36.939717498141391161
0.190000000000000030,36.002287705358320125
0.191000000000000031,35.087327829580544858
0.192000000000000032,34.194335257693005303
0.193000000000000033,33.322832831496086214
0.194000000000000034,32.472371543302642749
0.195000000000000034,31.642531373415874185
0.196000000000000035,30.832920655318964975
0.197000000000000036,30.043174327156350500
0.198000000000000037,29.272951391612558325
0.199000000000000038,28.521931864782903432
0.200000000000000039,27.789813451310227066
0.201000000000000040,27.076308140333274821
0.202000000000000041,26.381138876356761358
0.203000000000000042,25.704036422139818541
0.204000000000000042,25.044736497777680739
0.205000000000000043,24.402977251634865752
0.206000000000000044,23.778497094718886729
0.207000000000000045,23.171032910313257958
0.208000000000000046,22.580318634928886468
0.209000000000000047,22.006084194515235453
0.210000000000000048,21.448054770978234984
0.211000000000000049,20.905950367947106372
0.212000000000000050,20.379485640984817962
0.213000000000000050,19.868369955638883084
0.214000000000000051,19.372307636497829719
0.215000000000000052,18.890998371411956924
0.216000000000000053,18.424137736950566335
0.217000000000000054,17.971417813738064240
0.218000000000000055,17.532527863315060301
0.219000000000000056,17.107155041421968633
0.220000000000000057,16.694985125948445415
0.221000000000000058,16.295703241115671034
0.222000000000000058,15.908994562662721606
0.223000000000000059,15.534544991829296379
0.224000000000000060,15.172041788713496402
0.225000000000000061,14.821174158106453334
0.226000000000000062,14.481633783147753292
0.227000000000000063,14.153115304102772853
0.228000000000000064,13.835316741238125715
0.229000000000000065,13.527939862175770713
0.230000000000000066,13.230690495255966965
0.231000000000000066,12.943278791352792467
0.232000000000000067,12.665419437285752480
0.233000000000000068,12.396831824479018991
0.234000000000000069,12.137240176859373619
0.235000000000000070,11.886373642177787247
0.236000000000000071,11.643966351009130022
0.237000000000000072,11.409757447650303419
0.238000000000000073,11.183491097018434246
0.239000000000000073,10.964916471465221193
0.240000000000000074,10.753787721185672055
0.241000000000000075,10.549863931624731350
0.242000000000000076,10.352909070984889439
0.243000000000000077,10.162691930622228753
0.244000000000000078,9.978986060797145896
0.245000000000000079,9.801569703926022115
0.246000000000000080,9.630225727167891492
0.247000000000000081,9.464741555880166857
0.248000000000000081,9.304909109194008821
0.249000000000000082,9.150524738695569482
0.250000000000000111,9.001389170955730989
0.251000000000000112,8.857307454430113580
0.252000000000000113,8.718088911052550571
0.253000000000000114,8.583547092670450240
0.254000000000000115,8.453499742317452714
0.255000000000000115,8.327768760188376973
0.256000000000000116,8.206180174071578293
0.257000000000000117,8.088564113903753849
0.258000000000000118,7.974754790040961439
0.259000000000000119,7.864590474784672658
0.260000000000000120,7.757913486662654456
0.261000000000000121,7.654570176939328618
0.262000000000000122,7.554410917817291349
0.263000000000000123,7.457290091789967157
0.264000000000000123,7.363066081612792857
0.265000000000000124,7.271601260376201026
0.266000000000000125,7.182761981185990408
0.267000000000000126,7.096418565984981441
0.268000000000000127,7.012445293082237185
0.269000000000000128,6.930720382992248574
0.270000000000000129,6.851125982225047650
0.271000000000000130,6.773548144708260388
0.272000000000000131,6.697876810563352379
0.273000000000000131,6.624005781999622755
0.274000000000000132,6.551832696130662548
0.275000000000000133,6.481258994558098507
0.276000000000000134,6.412189889606539239
0.277000000000000135,6.344534327131269080
0.278000000000000136,6.278204945855486940
0.279000000000000137,6.213118033227740256
0.280000000000000138,6.149193477821297549
0.281000000000000139,6.086354718326155044
0.282000000000000139,6.024528689210799648
0.283000000000000140,5.963645763154826085
0.284000000000000141,5.903639690374890669
0.285000000000000142,5.844447534985578230
0.286000000000000143,5.786009608553063899
0.287000000000000144,5.728269401013896811
0.288000000000000145,5.671173509142808378
0.289000000000000146,5.614671562763385637
0.290000000000000147,5.558716148902846932
0.291000000000000147,5.503262734097996045
0.292000000000000148,5.448269585063047593
0.293000000000000149,5.393697687932229812
0.294000000000000150,5.339510666290656182
0.295000000000000151,5.285674698205786726
0.296000000000000152,5.232158432469883991
0.297000000000000153,5.178932904260146408
0.298000000000000154,5.125971450418935760
0.299000000000000155,5.073249624550935089
0.300000000000000155,5.020745112127849907
0.301000000000000156,4.968437645784412382
0.302000000000000157,4.916308920981673936
0.303000000000000158,4.864342512205692692
0.304000000000000159,4.812523789861055334
0.305000000000000160,4.760839838010042513
0.306000000000000161,4.709279373099052535
0.307000000000000162,4.657832663804725826
0.308000000000000163,4.606491452122953412
0.309000000000000163,4.555248875814562837
0.310000000000000164,4.504099392312162387
0.311000000000000165,4.453038704183417629
0.312000000000000166,4.402063686236902917
0.313000000000000167,4.351172314347770964
0.314000000000000168,4.300363596071672845
0.315000000000000169,4.249637503106976411
0.316000000000000170,4.198994905656966203
0.317000000000000171,4.148437508735824508
0.318000000000000171,4.097967790454609016
0.319000000000000172,4.047588942315952565
0.320000000000000173,3.997304811539380776
0.321000000000000174,3.947119845432415453
0.322000000000000175,3.897039037816345974
0.323000000000000176,3.847067877509581457
0.324000000000000177,3.797212298865952018
0.325000000000000178,3.747478634360063232
0.326000000000000179,3.697873569206846955
0.327000000000000179,3.648404097998056095
0.328000000000000180,3.599077483334126804
0.329000000000000181,3.549901216425956019
0.330000000000000182,3.500882979637742753
0.331000000000000183,3.452030610938602528
0.332000000000000184,3.403352070227919857
0.333000000000000185,3.354855407496707187
0.334000000000000186,3.306548732784875710
0.335000000000000187,3.258440187892325035
0.336000000000000187,3.210537919799858919
0.337000000000000188,3.162850055754502510
0.338000000000000189,3.115384679972371451
0.339000000000000190,3.068149811911129454
0.340000000000000191,3.021153386063412327
0.341000000000000192,2.974403233221544429
0.342000000000000193,2.927907063163753598
0.343000000000000194,2.881672448711468881
0.344000000000000195,2.835706811107417735
0.345000000000000195,2.790017406663930721
0.346000000000000196,2.744611314631286714
0.347000000000000197,2.699495426236016904
0.348000000000000198,2.654676434839569055
0.349000000000000199,2.610160827168221953
0.350000000000000200,2.565954875565704008
0.351000000000000201,2.522064631220732878
0.352000000000000202,2.478495918322438651
0.353000000000000203,2.435254329097464421
0.354000000000000203,2.392345219683492008
0.355000000000000204,2.349773706794942463
0.356000000000000205,2.307544665137556628
0.357000000000000206,2.265662725529650423
0.358000000000000207,2.224132273689056749
0.359000000000000208,2.182957449645773096
0.360000000000000209,2.142142147741495251
0.361000000000000210,2.101690017178613257
0.362000000000000210,2.061604463082139294
0.363000000000000211,2.021888648039527947
0.364000000000000212,1.982545494084375637
0.365000000000000213,1.943577685091333107
0.366000000000000214,1.904987669550720186
0.367000000000000215,1.866777663692583689
0.368000000000000216,1.828949654931059765
0.369000000000000217,1.791505405601287348
0.370000000000000218,1.754446456962069023
0.371000000000000218,1.717774133438835005
0.372000000000000219,1.681489547082518854
0.373000000000000220,1.645593602221054441
0.374000000000000221,1.610087000281449576
0.375000000000000222,1.574970244761356053
0.376000000000000223,1.540243646330088811
0.377000000000000224,1.505907328040259507
0.378000000000000225,1.471961230631981588
0.379000000000000226,1.438405117912797460
0.380000000000000226,1.405238582197193553
0.381000000000000227,1.372461049790785426
0.382000000000000228,1.340071786504874352
0.383000000000000229,1.308069903188132654
0.384000000000000230,1.276454361262973070
0.385000000000000231,1.245223978254867969
0.386000000000000232,1.214377433303872378
0.387000000000000233,1.183913272648105419
0.388000000000000234,1.153829915069935153
0.389000000000000234,1.124125657296044523
0.390000000000000235,1.094798679343465420
0.391000000000000236,1.065847049804125701
0.392000000000000237,1.037268731061182336
0.393000000000000238,1.009061584430919423
0.394000000000000239,0.981223375224630212
0.395000000000000240,0.953751777725364791
0.396000000000000241,0.926644380074966967
0.397000000000000242,0.899898689067321511
0.398000000000000242,0.873512134844136368
0.399000000000000243,0.847482075490116671
0.400000000000000244,0.821805801524697621
0.401000000000000245,0.796480540287934025
0.402000000000000246,0.771503460218584292
0.403000000000000247,0.746871675022631742
0.404000000000000248,0.722582247730956917
0.405000000000000249,0.698632194645077198
0.406000000000000250,0.675018489170245761
0.407000000000000250,0.651738065535401701
0.408000000000000251,0.628787822399764607
0.409000000000000252,0.606164626346088142
0.410000000000000253,0.583865315260811202
0.411000000000000254,0.561886701601542748
0.412000000000000255,0.540225575552552573
0.413000000000000256,0.518878708069001271
0.414000000000000257,0.497842853811005348
0.415000000000000258,0.477114753968535144
0.416000000000000258,0.456691138978518374
0.417000000000000259,0.436568731135476729
0.418000000000000260,0.416744247097227127
0.419000000000000261,0.397214400287254521
0.420000000000000262,0.377975903195469753
0.421000000000000263,0.359025469579098089
0.422000000000000264,0.340359816565648454
0.423000000000000265,0.321975666659806647
0.424000000000000266,0.303869749656275057
0.425000000000000266,0.286038804460617135
0.426000000000000267,0.268479580820159325
0.427000000000000268,0.251188840967069227
0.428000000000000269,0.234163361175781348
0.429000000000000270,0.217399933236910231
0.430000000000000271,0.200895365849860147
0.431000000000000272,0.184646485936312110
0.432000000000000273,0.168650139876818234
0.433000000000000274,0.152903194672694365
0.434000000000000274,0.137402539035405974
0.435000000000000275,0.122145084405695895
0.436000000000000276,0.107127765904583588
0.437000000000000277,0.092347543218455730
0.438000000000000278,0.077801401420404787
0.439000000000000279,0.063486351729923701
0.440000000000000280,0.049399432213118953
0.441000000000000281,0.035537708425524173
0.442000000000000282,0.021898273999536901
0.443000000000000282,0.008478251178596130
0.444000000000000283,-0.004725208699965400
0.445000000000000284,-0.017714924771381525
0.446000000000000285,-0.030493686257281282
0.447000000000000286,-0.043064252125035105
0.448000000000000287,-0.055429350790661268
0.449000000000000288,-0.067591679863558338
0.450000000000000289,-0.079553905931203331
0.451000000000000290,-0.091318664382087716
0.452000000000000290,-0.102888559265205168
0.453000000000000291,-0.114266163184365555
0.454000000000000292,-0.125454017225759051
0.455000000000000293,-0.136454630917145797
0.456000000000000294,-0.147270482217138593
0.457000000000000295,-0.157904017533072982
0.458000000000000296,-0.168357651765992766
0.459000000000000297,-0.178633768381334157
0.460000000000000298,-0.188734719503929227
0.461000000000000298,-0.198662826035971019
0.462000000000000299,-0.208420377796670581
0.463000000000000300,-0.218009633682308579
0.464000000000000301,-0.227432821845506172
0.465000000000000302,-0.236692139892484971
0.466000000000000303,-0.245789755097226115
0.467000000000000304,-0.254727804631394605
0.468000000000000305,-0.263508395808966400
0.469000000000000306,-0.272133606344547530
0.470000000000000306,-0.280605484624404378
0.471000000000000307,-0.288926049989197964
0.472000000000000308,-0.297097293027584530
0.473000000000000309,-0.305121175879746853
0.474000000000000310,-0.312999632550007345
0.475000000000000311,-0.320734569227757227
0.476000000000000312,-0.328327864615850118
0.477000000000000313,-0.335781370265789914
0.478000000000000314,-0.343096910918917919
0.479000000000000314,-0.350276284852980679
0.480000000000000315,-0.357321264233365743
0.481000000000000316,-0.364233595468427485
0.482000000000000317,-0.371014999568258397
0.483000000000000318,-0.377667172506371940
0.484000000000000319,-0.384191785583727352
0.485000000000000320,-0.390590485794585163
0.486000000000000321,-0.396864896193714456
0.487000000000000322,-0.403016616264467220
0.488000000000000322,-0.409047222287262535
0.489000000000000323,-0.414958267708102291
0.490000000000000324,-0.420751283506681062
0.491000000000000325,-0.426427778563731874
0.492000000000000326,-0.431989240027234378
0.493000000000000327,-0.437437133677185674
0.494000000000000328,-0.442772904288563918
0.495000000000000329,-0.447997975992258213
0.496000000000000330,-0.453113752633594991
0.497000000000000330,-0.458121618128318531
0.498000000000000331,-0.463022936815646324
0.499000000000000332,-0.467819053808292584
0.500000000000000333,-0.472511295339180681
0.501000000000000334,-0.477100969104654826
0.502000000000000335,-0.481589364604038228
0.503000000000000336,-0.485977753475337504
0.504000000000000337,-0.490267389826965938
0.505000000000000338,-0.494459510565324556
0.506000000000000338,-0.498555335718120662
0.507000000000000339,-0.502556068753318042
0.508000000000000340,-0.506462896893582371
0.509000000000000341,-0.510276991426176774
0.510000000000000342,-0.513999508008163297
0.511000000000000343,-0.517631586966898594
0.512000000000000344,-0.521174353595704409
0.513000000000000345,-0.524628918444688397
0.514000000000000346,-0.527996377606680944
0.515000000000000346,-0.531277812998203758
0.516000000000000347,-0.534474292635475079
0.517000000000000348,-0.537586870905437886
0.518000000000000349,-0.540616588831743794
0.519000000000000350,-0.543564474335751946
0.520000000000000351,-0.546431542492466837
0.521000000000000352,-0.549218795781497349
0.522000000000000353,-0.551927224332956046
0.523000000000000353,-0.554557806168400225
0.524000000000000354,-0.557111507436769404
0.525000000000000355,-0.559589282645377439
0.526000000000000356,-0.561992074885962700
0.527000000000000357,-0.564320816055859154
0.528000000000000358,-0.566576427074298783
0.529000000000000359,-0.568759818093891645
0.530000000000000360,-0.570871888707327857
0.531000000000000361,-0.572913528149357254
0.532000000000000361,-0.574885615494080571
0.533000000000000362,-0.576789019847610884
0.534000000000000363,-0.578624600536158051
0.535000000000000364,-0.580393207289608637
0.536000000000000365,-0.582095680420621209
0.537000000000000366,-0.583732850999355124
0.538000000000000367,-0.585305541023822151
0.539000000000000368,-0.586814563586015581
0.540000000000000369,-0.588260723033786403
0.541000000000000369,-0.589644815128620881
0.542000000000000370,-0.590967627199310286
0.543000000000000371,-0.592229938291646829
0.544000000000000372,-0.593432519314173290
0.545000000000000373,-0.594576133180072075
0.546000000000000374,-0.595661534945275184
0.547000000000000375,-0.596689471942831617
0.548000000000000376,-0.597660683913658231
0.549000000000000377,-0.598575903133687470
0.550000000000000377,-0.599435854537542778
0.551000000000000378,-0.600241255838750210
0.552000000000000379,-0.600992817646632260
0.553000000000000380,-0.601691243579884683
0.554000000000000381,-0.602337230376953414
0.555000000000000382,-0.602931468003291560
0.556000000000000383,-0.603474639755505415
0.557000000000000384,-0.603967422362553963
0.558000000000000385,-0.604410486083981402
0.559000000000000385,-0.604804494805319726
0.560000000000000386,-0.605150106130702081
0.561000000000000387,-0.605447971472752755
0.562000000000000388,-0.605698736139834493
0.563000000000000389,-0.605903039420727874
0.564000000000000390,-0.606061514666779710
0.565000000000000391,-0.606174789371622280
0.566000000000000392,-0.606243485248501357
0.567000000000000393,-0.606268218305311857
0.568000000000000393,-0.606249598917349530
0.569000000000000394,-0.606188231897904273
0.570000000000000395,-0.606084716566724468
0.571000000000000396,-0.605939646816394561
0.572000000000000397,-0.605753611176745976
0.573000000000000398,-0.605527192877293174
0.574000000000000399,-0.605260969907803870
0.575000000000000400,-0.604955515077034822
0.576000000000000401,-0.604611396069681062
0.577000000000000401,-0.604229175501647342
0.578000000000000402,-0.603809410973619620
0.579000000000000403,-0.603352655123037263
0.580000000000000404,-0.602859455674531253
0.581000000000000405,-0.602330355488827296
0.582000000000000406,-0.601765892610214181
0.583000000000000407,-0.601166600312595722
0.584000000000000408,-0.600533007144196329
0.585000000000000409,-0.599865636970944749
0.586000000000000409,-0.599165009018592709
0.587000000000000410,-0.598431637913638959
0.588000000000000411,-0.597666033723032397
0.589000000000000412,-0.596868701992794848
0.590000000000000413,-0.596040143785510623
0.591000000000000414,-0.595180855716790136
0.592000000000000415,-0.594291329990720985
0.593000000000000416,-0.593372054434337604
0.594000000000000417,-0.592423512531163654
0.595000000000000417,-0.591446183453875673
0.596000000000000418,-0.590440542096068333
0.597000000000000419,-0.589407059103240871
0.598000000000000420,-0.588346200902948313
0.599000000000000421,-0.587258429734231924
0.600000000000000422,-0.586144203676306264
0.601000000000000423,-0.585003976676541138
0.602000000000000424,-0.583838198577807055
0.603000000000000425,-0.582647315145174205
0.604000000000000425,-0.581431768091989154
0.605000000000000426,-0.580191995105399982
0.606000000000000427,-0.578928429871325312
0.607000000000000428,-0.577641502098870996
0.608000000000000429,-0.576331637544298170
0.609000000000000430,-0.574999258034461835
0.610000000000000431,-0.573644781489841660
0.611000000000000432,-0.572268621947121470
0.612000000000000433,-0.570871189581363736
0.613000000000000433,-0.569452890727815464
0.614000000000000434,-0.568014127903334165
0.615000000000000435,-0.566555299827476766
0.616000000000000436,-0.565076801443254784
0.617000000000000437,-0.563579023937607837
