# hydroxyapatite-010-ph14_DIMETHOXYPHENOL-AC
# h[nm],U(h)[kJ/mol]
0.149999999999999994,141.515271151561535135
0.150999999999999995,138.800818848076715994
0.151999999999999996,136.504036095140833140
0.152999999999999997,134.391968388137939883
0.153999999999999998,132.354058708708777203
0.154999999999999999,130.346091085082235850
0.156000000000000000,128.357202279302327952
0.157000000000000001,126.391200510251564992
0.158000000000000002,124.456557989447517798
0.159000000000000002,122.561508972843128618
0.160000000000000003,120.712033977820766495
0.161000000000000004,118.911381175968060120
0.162000000000000005,117.160329253405549821
0.163000000000000006,115.457741393430552534
0.164000000000000007,113.801170716545200889
0.165000000000000008,112.187402221668293123
0.166000000000000009,110.612887083946702660
0.167000000000000010,109.074062948413782692
0.168000000000000010,107.567571999732265908
0.169000000000000011,106.090395520618500314
0.170000000000000012,104.639924572295285543
0.171000000000000013,103.213984449003334021
0.172000000000000014,101.810827461529157745
0.173000000000000015,100.429105357443660296
0.174000000000000016,99.067829759043490867
0.175000000000000017,97.726326577850755939
0.176000000000000018,96.404188474226273797
0.177000000000000018,95.101228021853756900
0.178000000000000019,93.817433227974518672
0.179000000000000020,92.552926364175235108
0.180000000000000021,91.307926599622945218
0.181000000000000022,90.082716632215877439
0.182000000000000023,88.877613330675004022
0.183000000000000024,87.692942292804815452
0.184000000000000025,86.529016163874857170
0.185000000000000026,85.386116525112427666
0.186000000000000026,84.264479143250724746
0.187000000000000027,83.164282360448865461
0.188000000000000028,82.085638395607048778
0.189000000000000029,81.028587321269327504
0.190000000000000030,79.993093474420547295
0.191000000000000031,78.979044054745202175
0.192000000000000032,77.986249660844208620
0.193000000000000033,77.014446514055336479
0.194000000000000034,76.063300121354771477
0.195000000000000034,75.132410133597730351
0.196000000000000035,74.221316163167372792
0.197000000000000036,73.329504335826058536
0.198000000000000037,72.456414364939476513
0.199000000000000038,71.601446951882365966
0.200000000000000039,70.763971333883617376
0.201000000000000040,69.943332819318627003
0.202000000000000041,69.138860170012335971
0.203000000000000042,68.349872709985405095
0.204000000000000042,67.575687059811542667
0.205000000000000043,66.815623414963596360
0.206000000000000044,66.069011304867501622
0.207000000000000045,65.335194786593476124
0.208000000000000046,64.613537042973604230
0.209000000000000047,63.903424369307593622
0.210000000000000048,63.204269545601775349
0.211000000000000049,62.515514602447488812
0.212000000000000050,61.836632998179936749
0.213000000000000050,61.167131232908161564
0.214000000000000051,60.506549931439607803
0.215000000000000052,59.854464432126327722
0.216000000000000053,59.210484922347326631
0.217000000000000054,58.574256163826511568
0.218000000000000055,57.945456852398002923
0.219000000000000056,57.323798657298446813
0.220000000000000057,56.709024984713799711
0.221000000000000058,56.100909509266259079
0.222000000000000058,55.499254515506549978
0.223000000000000059,54.903889089396294310
0.224000000000000060,54.314667197321071512
0.225000000000000061,53.731465687464890379
0.226000000000000062,53.154182245482658686
0.227000000000000063,52.582733333403425036
0.228000000000000064,52.017052137649557153
0.229000000000000065,51.457086549018796973
0.230000000000000066,50.902797194495960298
0.231000000000000066,50.354155537876977178
0.232000000000000067,49.811142063429656446
0.233000000000000068,49.273744554209038427
0.234000000000000069,48.741956474206894256
0.235000000000000070,48.215775461258722601
0.236000000000000071,47.695201935563048323
0.237000000000000072,47.180237826793756994
0.238000000000000073,46.670885421102312307
0.239000000000000073,46.167146327815622442
0.240000000000000074,45.669020564325009559
0.241000000000000075,45.176505756531874169
0.242000000000000076,44.689596451252008080
0.243000000000000077,44.208283536175784434
0.244000000000000078,43.732553762324791080
0.245000000000000079,43.262389363424553324
0.246000000000000080,42.797767766218008489
0.247000000000000081,42.338661385461335840
0.248000000000000081,41.885037497164283593
0.249000000000000082,41.436858183547528256
0.250000000000000111,40.994080343180563375
0.251000000000000112,40.556655759824664642
0.252000000000000113,40.124531223626057397
0.253000000000000114,39.697648698477429718
0.254000000000000115,39.275945529580575055
0.255000000000000115,38.859354685493329384
0.256000000000000116,38.447805029221342465
0.257000000000000117,38.041221613215114417
0.258000000000000118,37.639525993447378482
0.259000000000000119,37.242636558070621788
0.260000000000000120,36.850468866486004060
0.261000000000000121,36.462935994986878541
0.262000000000000122,36.079948885470663811
0.263000000000000123,35.701416694038755395
0.264000000000000123,35.327247136621586776
0.265000000000000124,34.957346829074580796
0.266000000000000125,34.591621619487511907
0.267000000000000126,34.229976910733583395
0.268000000000000127,33.872317971554345206
0.269000000000000128,33.518550234731939952
0.270000000000000129,33.168579581139681522
0.271000000000000130,32.822312608685599855
0.272000000000000131,32.479656885372584441
0.273000000000000131,32.140521185889902256
0.274000000000000132,31.804815711328593864
0.275000000000000133,31.472452291773727495
0.276000000000000134,31.143344571673150512
0.277000000000000135,30.817408178014488840
0.278000000000000136,30.494560871459732709
0.279000000000000137,30.174722680691729693
0.280000000000000138,29.857816020319205563
0.281000000000000139,29.543765792766681244
0.282000000000000139,29.232499474645273096
0.283000000000000140,28.923947188158301458
0.284000000000000141,28.618041758144876496
0.285000000000000142,28.314718755403845307
0.286000000000000143,28.013916526972103327
0.287000000000000144,27.715576214054873816
0.288000000000000145,27.419641758321937175
0.289000000000000146,27.126059897294329204
0.290000000000000147,26.834780149550390149
0.291000000000000147,26.545754790479339391
0.292000000000000148,26.258938819305292611
0.293000000000000149,25.974289918095387009
0.294000000000000150,25.691768403452670100
0.295000000000000151,25.411337171578274763
0.296000000000000152,25.132961637368889996
0.297000000000000153,24.856609668194366236
0.298000000000000154,24.582251512977641994
0.299000000000000155,24.309859727174487176
0.300000000000000155,24.039409094224982510
0.301000000000000156,23.770876544022407018
0.302000000000000157,23.504241068917270496
0.303000000000000158,23.239483637747191835
0.304000000000000159,22.976587108355015943
0.305000000000000160,22.715536139029623541
0.306000000000000161,22.456317099276379423
0.307000000000000162,22.198917980296208441
0.308000000000000163,21.943328305525579225
0.309000000000000163,21.689539041562937882
0.310000000000000164,21.437542509781398081
0.311000000000000165,21.187332298901981886
0.312000000000000166,20.938903178777881209
0.313000000000000167,20.692251015616172083
0.314000000000000168,20.447372688841102928
0.315000000000000169,20.204266009781374436
0.316000000000000170,19.962929642343048897
0.317000000000000171,19.723363025810037641
0.318000000000000171,19.485566299895520359
0.319000000000000172,19.249540232149705332
0.320000000000000173,19.015286147812826556
0.321000000000000174,18.782805862186428669
0.322000000000000175,18.552101615581278793
0.323000000000000176,18.323176010886410126
0.324000000000000177,18.096031953790983948
0.325000000000000178,17.870672595678694705
0.326000000000000179,17.647101279203333490
0.327000000000000179,17.425321486544078198
0.328000000000000180,17.205336790329468499
0.329000000000000181,16.987150807210767312
0.330000000000000182,16.770767154057292458
0.331000000000000183,16.556189406739470371
0.332000000000000184,16.343421061458816013
0.333000000000000185,16.132465498578604013
0.334000000000000186,15.923325948903491067
0.335000000000000187,15.716005462352367061
0.336000000000000187,15.510506878964367417
0.337000000000000188,15.306832802175003749
0.338000000000000189,15.104985574296060591
0.339000000000000190,14.904967254130900400
0.340000000000000191,14.706779596654538267
0.341000000000000192,14.510424034686513650
0.342000000000000193,14.315901662483190293
0.343000000000000194,14.123213221175410226
0.344000000000000195,13.932359085976992574
0.345000000000000195,13.743339255089006556
0.346000000000000196,13.556153340225318260
0.347000000000000197,13.370800558684749149
0.348000000000000198,13.187279726896012022
0.349000000000000199,13.005589255362227874
0.350000000000000200,12.825727144932802304
0.351000000000000201,12.647690984331386943
0.352000000000000202,12.471477948870230534
0.353000000000000203,12.297084800282183537
0.354000000000000203,12.124507887603446221
0.355000000000000204,11.953743149041571314
0.356000000000000205,11.784786114765081422
0.357000000000000206,11.617631910552422170
0.358000000000000207,11.452275262240412701
0.359000000000000208,11.288710500913692769
0.360000000000000209,11.126931568778683612
0.361000000000000210,10.966932025667819772
0.362000000000000210,10.808705056121345578
0.363000000000000211,10.652243476996174465
0.364000000000000212,10.497539745553302382
0.365000000000000213,10.344585967977073082
0.366000000000000214,10.193373908281762041
0.367000000000000215,10.043894997562736293
0.368000000000000216,9.896140343551321550
0.369000000000000217,9.750100740434781699
0.370000000000000218,9.605766678904121392
0.371000000000000218,9.463128356394857832
0.372000000000000219,9.322175687487199269
0.373000000000000220,9.182898314434170928
0.374000000000000221,9.045285617787897081
0.375000000000000222,8.909326727095898235
0.376000000000000223,8.775010531640708322
0.377000000000000224,8.642325691198230686
0.378000000000000225,8.511260646791175333
0.379000000000000226,8.381803631415948530
0.380000000000000226,8.253942680722413883
0.381000000000000227,8.127665643627665304
0.382000000000000228,8.002960192846064302
0.383000000000000229,7.879813835319255944
0.384000000000000230,7.758213922531027151
0.385000000000000231,7.638147660693148211
0.386000000000000232,7.519602120789466326
0.387000000000000233,7.402564248466546815
0.388000000000000234,7.287020873760418738
0.389000000000000234,7.172958720649757147
0.390000000000000235,7.060364416426914147
0.391000000000000236,6.949224500879203958
0.392000000000000237,6.839525435273517751
0.393000000000000238,6.731253611138377835
0.394000000000000239,6.624395358838208736
0.395000000000000240,6.518936955935390465
0.396000000000000241,6.414864635336340548
0.397000000000000242,6.312164593218584585
0.398000000000000242,6.210822996736316881
0.399000000000000243,6.110825991502709442
0.400000000000000244,6.012159708847503836
0.401000000000000245,5.914810272849246431
0.402000000000000246,5.818763807141901445
0.403000000000000247,5.724006441495826714
0.404000000000000248,5.630524318173916853
0.405000000000000249,5.538303598063757605
0.406000000000000250,5.447330466587258613
0.407000000000000250,5.357591139389350943
0.408000000000000251,5.269071867807816112
0.409000000000000252,5.181758944126590549
0.410000000000000253,5.095638706614974645
0.411000000000000254,5.010697544355688038
0.412000000000000255,4.926921901864750986
0.413000000000000256,4.844298283506347502
0.414000000000000257,4.762813257706199899
0.415000000000000258,4.682453460966887526
0.416000000000000258,4.603205601688939552
0.417000000000000259,4.525056463801448103
0.418000000000000260,4.447992910206200357
0.419000000000000261,4.372001886039315721
0.420000000000000262,4.297070421754613179
0.421000000000000263,4.223185636032740220
0.422000000000000264,4.150334738520521149
0.423000000000000265,4.078505032404595276
0.424000000000000266,4.007683916823817860
0.425000000000000266,3.937858889124745243
0.426000000000000267,3.869017546964491849
0.427000000000000268,3.801147590265394172
0.428000000000000269,3.734236823025831598
0.429000000000000270,3.668273154991501972
0.430000000000000271,3.603244603191514184
0.431000000000000272,3.539139293343589454
0.432000000000000273,3.475945461132624814
0.433000000000000274,3.413651453366869593
0.434000000000000274,3.352245729015824516
0.435000000000000275,3.291716860134114686
0.436000000000000276,3.232053532675303931
0.437000000000000277,3.173244547199718824
0.438000000000000278,3.115278819480264083
0.439000000000000279,3.058145381010084041
0.440000000000000280,3.001833379415911995
0.441000000000000281,2.946332078780915520
0.442000000000000282,2.891630859880627291
0.443000000000000282,2.837719220335691350
0.444000000000000283,2.784586774684868260
0.445000000000000284,2.732223254381833666
0.446000000000000285,2.680618507719114696
0.447000000000000286,2.629762499682461119
0.448000000000000287,2.579645311738935298
0.449000000000000288,2.530257141561803813
0.450000000000000289,2.481588302695327375
0.451000000000000290,2.433629224162456861
0.452000000000000290,2.386370450018255873
0.453000000000000291,2.339802638852002570
0.454000000000000292,2.293916563240599338
0.455000000000000293,2.248703109155999691
0.456000000000000294,2.204153275329272965
0.457000000000000295,2.160258172573725322
0.458000000000000296,2.117009023069601703
0.459000000000000297,2.074397159612646035
0.460000000000000298,2.032414024828837817
0.461000000000000298,1.991051170357478028
0.462000000000000299,1.950300256004758426
0.463000000000000300,1.910153048869889902
0.464000000000000301,1.870601422445709261
0.465000000000000302,1.831637355695751257
0.466000000000000303,1.793252932109569375
0.467000000000000304,1.755440338738063932
0.468000000000000305,1.718191865210616287
0.469000000000000306,1.681499902735553942
0.470000000000000306,1.645356943085570123
0.471000000000000307,1.609755577569647045
0.472000000000000308,1.574688495992888182
0.473000000000000309,1.540148485605618900
0.474000000000000310,1.506128430043204292
0.475000000000000311,1.472621308257711759
0.476000000000000312,1.439620193442802787
0.477000000000000313,1.407118251952827581
0.478000000000000314,1.375108742217434621
0.479000000000000314,1.343585013652615956
0.480000000000000315,1.312540505569264937
0.481000000000000316,1.281968746080190957
0.482000000000000317,1.251863351006534675
0.483000000000000318,1.222218022784412828
0.484000000000000319,1.193026549372649514
0.485000000000000320,1.164282803162417501
0.486000000000000321,1.135980739889431268
0.487000000000000322,1.108114397549486929
0.488000000000000322,1.080677895318017168
0.489000000000000323,1.053665432474199859
0.490000000000000324,1.027071287330307614
0.491000000000000325,1.000889816166824264
0.492000000000000326,0.975115452173824337
0.493000000000000327,0.949742704399140436
0.494000000000000328,0.924766156703777265
0.495000000000000329,0.900180466724956552
0.496000000000000330,0.875980364847303905
0.497000000000000330,0.852160653182346239
0.498000000000000331,0.828716204556949165
0.499000000000000332,0.805641961510744076
0.500000000000000333,0.782932935302974031
0.501000000000000334,0.760584204929076080
0.502000000000000335,0.738590916147085941
0.503000000000000336,0.716948280514274727
0.504000000000000337,0.695651574434067554
0.505000000000000338,0.674696138213548013
0.506000000000000338,0.654077375131638106
0.507000000000000339,0.633790750518124391
0.508000000000000340,0.613831790843704206
0.509000000000000341,0.594196082821050853
0.510000000000000342,0.574879272517162088
0.511000000000000343,0.555877064476886784
0.512000000000000344,0.537185220857867129
0.513000000000000345,0.518799560576854502
0.514000000000000346,0.500715958467418121
0.515000000000000346,0.482930344449178706
0.516000000000000347,0.465438702708492635
0.517000000000000348,0.448237070890615485
0.518000000000000349,0.431321539303365920
0.519000000000000350,0.414688250132216052
0.520000000000000351,0.398333396666895490
0.521000000000000352,0.382253222539295057
0.522000000000000353,0.366444020972846563
0.523000000000000353,0.350902134043128366
0.524000000000000354,0.335623951949775401
0.525000000000000355,0.320605912299553597
0.526000000000000356,0.305844499400585779
0.527000000000000357,0.291336243567590025
0.528000000000000358,0.277077720438091202
0.529000000000000359,0.263065550299489748
0.530000000000000360,0.249296397426948063
0.531000000000000361,0.235766969431907697
0.532000000000000361,0.222474016621211662
0.533000000000000362,0.209414331366691492
0.534000000000000363,0.196584747485137767
0.535000000000000364,0.183982139628464630
0.536000000000000365,0.171603422684082602
0.537000000000000366,0.159445551185212281
0.538000000000000367,0.147505518731168517
0.539000000000000368,0.135780357417334518
0.540000000000000369,0.124267137274852432
0.541000000000000369,0.112962965719759903
0.542000000000000370,0.101864987011611771
0.543000000000000371,0.090970381721259569
0.544000000000000372,0.080276366207838512
0.545000000000000373,0.069780192104704944
0.546000000000000374,0.059479145814257353
0.547000000000000375,0.049370548011495610
0.548000000000000376,0.039451753156161916
0.549000000000000377,0.029720149013375607
0.550000000000000377,0.020173156182537299
0.551000000000000378,0.010808227634529733
0.552000000000000379,0.001622848256874576
0.553000000000000380,-0.007385465593100049
0.554000000000000381,-0.016219166527316187
0.555000000000000382,-0.024880676558369431
0.556000000000000383,-0.033372387523357097
0.557000000000000384,-0.041696661500374120
0.558000000000000385,-0.049855831217662419
0.559000000000000385,-0.057852200455664082
0.560000000000000386,-0.065688044442059251
0.561000000000000387,-0.073365610239889190
0.562000000000000388,-0.080887117128918537
0.563000000000000389,-0.088254756980395171
0.564000000000000390,-0.095470694625251845
0.565000000000000391,-0.102537068215946853
0.566000000000000392,-0.109455989582003935
0.567000000000000393,-0.116229544579449270
0.568000000000000393,-0.122859793434160827
0.569000000000000394,-0.129348771079329822
0.570000000000000395,-0.135698487487137420
0.571000000000000396,-0.141910927994692404
0.572000000000000397,-0.147988053624461852
0.573000000000000398,-0.153931801399176976
0.574000000000000399,-0.159744084651426199
0.575000000000000400,-0.165426793327982047
0.576000000000000401,-0.170981794288969452
0.577000000000000401,-0.176410931602049015
0.578000000000000402,-0.181716026831613864
0.579000000000000403,-0.186898879323156131
0.580000000000000404,-0.191961266482956888
0.581000000000000405,-0.196904944053045983
0.582000000000000406,-0.201731646381713592
0.583000000000000407,-0.206443086689498762
0.584000000000000408,-0.211040957330877965
0.585000000000000409,-0.215526930051666898
0.586000000000000409,-0.219902656242228295
0.587000000000000410,-0.224169767186655822
0.588000000000000411,-0.228329874307867720
0.589000000000000412,-0.232384569408879388
0.590000000000000413,-0.236335424910164349
0.591000000000000414,-0.240183994083307761
0.592000000000000415,-0.243931811280979016
0.593000000000000416,-0.247580392163294333
0.594000000000000417,-0.251131233920663166
0.595000000000000417,-0.254585815493233447
0.596000000000000418,-0.257945597786884639
0.597000000000000419,-0.261212023886012279
0.598000000000000420,-0.264386519263002995
0.599000000000000421,-0.267470491984614867
0.600000000000000422,-0.270465332915234058
0.601000000000000423,-0.273372415917080724
0.602000000000000424,-0.276193098047510244
0.603000000000000425,-0.278928719753383736
0.604000000000000425,-0.281580605062574929
0.605000000000000426,-0.284150061772746654
0.606000000000000427,-0.286638381637396855
0.607000000000000428,-0.289046840549191220
0.608000000000000429,-0.291376698720790639
0.609000000000000430,-0.293629200863018469
0.610000000000000431,-0.295805576360616662
0.611000000000000432,-0.297907039445508282
0.612000000000000433,-0.299934789367682697
0.613000000000000433,-0.301890010563744038
0.614000000000000434,-0.303773872823152935
0.615000000000000435,-0.305587531452234107
0.616000000000000436,-0.307332127435944902
