# bi-graphene_HID
# h[nm],U(h)[kJ/mol]
0.200000000000000011,51.507135099427536318
0.201000000000000012,50.347750612303123319
0.202000000000000013,48.921459980342540064
0.203000000000000014,47.407800692578362600
0.204000000000000015,45.896604120400681381
0.205000000000000016,44.425041440883902055
0.206000000000000016,43.001543544973785060
0.207000000000000017,41.620713270934750483
0.208000000000000018,40.272174071262789141
0.209000000000000019,38.945435630233433244
0.210000000000000020,37.632226475075285066
0.211000000000000021,36.327287235882792515
0.212000000000000022,35.028291109198356423
0.213000000000000023,33.735326395970432145
0.214000000000000024,32.450214212540771541
0.215000000000000024,31.175823499810661588
0.216000000000000025,29.915471031704537808
0.217000000000000026,28.672445690680653740
0.218000000000000027,27.449666064999895809
0.219000000000000028,26.249462757303270166
0.220000000000000029,25.073467574744803699
0.221000000000000030,23.922588064453719880
0.222000000000000031,22.797045595931425765
0.223000000000000032,21.696456940126871871
0.224000000000000032,20.619942080977850196
0.225000000000000033,19.566244179032658224
0.226000000000000034,18.533850784368670617
0.227000000000000035,17.521108328535731857
0.228000000000000036,16.526324486950620951
0.229000000000000037,15.547855143789870880
0.230000000000000038,14.584174409136810624
0.231000000000000039,13.633927460436046530
0.232000000000000040,12.695966950793966532
0.233000000000000040,11.769374396058886134
0.234000000000000041,10.853468372886347026
0.235000000000000042,9.947801580690663670
0.236000000000000043,9.052148886501193203
0.237000000000000044,8.166488422695865168
0.238000000000000045,7.290977676854095257
0.239000000000000046,6.425926328250433528
0.240000000000000047,5.571767369088225230
0.241000000000000048,4.729027817925005373
0.242000000000000048,3.898300101127575967
0.243000000000000049,3.080214955311959102
0.244000000000000050,2.275416496312673509
0.245000000000000051,1.484539912608148438
0.246000000000000052,0.708192075738847571
0.247000000000000053,-0.053064781972976947
0.248000000000000054,-0.798726291317427117
0.249000000000000055,-1.528356137814061322
0.250000000000000056,-2.241593363846818843
0.251000000000000056,-2.938156982165352815
0.252000000000000057,-3.617848143091804580
0.253000000000000058,-4.280550124836908665
0.254000000000000059,-4.926226431089265390
0.255000000000000060,-5.554917284524384158
0.256000000000000061,-6.166734800985442355
0.257000000000000062,-6.761857118549454704
0.258000000000000063,-7.340521740068676415
0.259000000000000064,-7.903018328439431528
0.260000000000000064,-8.449681171988830286
0.261000000000000065,-8.980881513995862875
0.262000000000000066,-9.497019916326989275
0.263000000000000067,-9.998518803157939061
0.264000000000000068,-10.485815307332583046
0.265000000000000069,-10.959354519507662928
0.266000000000000070,-11.419583219172164235
0.267000000000000071,-11.866944147145570554
0.268000000000000071,-12.301870861397404155
0.269000000000000072,-12.724783202077549760
0.270000000000000073,-13.136083377529075733
0.271000000000000074,-13.536152670755772220
0.272000000000000075,-13.925348755283891933
0.273000000000000076,-14.304003600509355820
0.274000000000000077,-14.672421939360043908
0.275000000000000078,-15.030880265311463262
0.276000000000000079,-15.379626321349970652
0.277000000000000079,-15.718879040253980861
0.278000000000000080,-16.048828893427419473
0.279000000000000081,-16.369638604347748867
0.280000000000000082,-16.681444182354844941
0.281000000000000083,-16.984356232891634875
0.282000000000000084,-17.278461501298941982
0.283000000000000085,-17.563824608762448776
0.284000000000000086,-17.840489940913535349
0.285000000000000087,-18.108483651809248016
0.286000000000000087,-18.367815748483085514
0.287000000000000088,-18.618482223895572503
0.288000000000000089,-18.860467208860676180
0.289000000000000090,-19.093745116327148992
0.290000000000000091,-19.318282754203785601
0.291000000000000092,-19.534041385698742488
0.292000000000000093,-19.740978718857160601
0.293000000000000094,-19.939050809604943026
0.294000000000000095,-20.128213865114940262
0.295000000000000095,-20.308425936689559421
0.296000000000000096,-20.479648493586179114
0.297000000000000097,-20.641847871291172822
0.298000000000000098,-20.794996589668205189
0.299000000000000099,-20.939074538163961137
0.300000000000000100,-21.074070026849291537
0.301000000000000101,-21.199980703508124691
0.302000000000000102,-21.316814338262606299
0.303000000000000103,-21.424589478347854765
0.304000000000000103,-21.523335976627020472
0.305000000000000104,-21.613095398276218617
0.306000000000000105,-21.693921310776413947
0.307000000000000106,-21.765879462932623767
0.308000000000000107,-21.829047859110261243
0.309000000000000108,-21.883516735241332896
0.310000000000000109,-21.929388443419053800
0.311000000000000110,-21.966777252075797122
0.312000000000000111,-21.995809068836887690
0.313000000000000111,-22.016621093166737211
0.314000000000000112,-22.029361405885055092
0.315000000000000113,-22.034188502534842513
0.316000000000000114,-22.031270777439310393
0.317000000000000115,-22.020785965097118719
0.318000000000000116,-22.002920545342455227
0.319000000000000117,-21.977869118442534102
0.320000000000000118,-21.945833756027315786
0.321000000000000119,-21.907023333448641722
0.322000000000000119,-21.861652848853211140
0.323000000000000120,-21.809942733930867576
0.324000000000000121,-21.752118160969267535
0.325000000000000122,-21.688408350512581535
0.326000000000000123,-21.619045883587578061
0.327000000000000124,-21.544266022128617522
0.328000000000000125,-21.464306040905977824
0.329000000000000126,-21.379404573940863798
0.330000000000000127,-21.289800978078510241
0.331000000000000127,-21.195734716088054483
0.332000000000000128,-21.097444761366663357
0.333000000000000129,-20.995169026045907401
0.334000000000000130,-20.889143814031900348
0.335000000000000131,-20.779603300258010279
0.336000000000000132,-20.666779037189421331
0.337000000000000133,-20.550899489394275577
0.338000000000000134,-20.432189596785189423
0.339000000000000135,-20.310870366939042242
0.340000000000000135,-20.187158496720350342
0.341000000000000136,-20.061266023266071556
0.342000000000000137,-19.933400004235029002
0.343000000000000138,-19.803762227084607872
0.344000000000000139,-19.672548947009449449
0.345000000000000140,-19.539950653062138741
0.346000000000000141,-19.406151861872281472
0.347000000000000142,-19.271330938289466417
0.348000000000000143,-19.135659942195211158
0.349000000000000143,-18.999304500659004447
0.350000000000000144,-18.862423704553943793
0.351000000000000145,-18.725170028696943803
0.352000000000000146,-18.587689274536817408
0.353000000000000147,-18.450120534380221926
0.354000000000000148,-18.312596176119718905
0.355000000000000149,-18.175241847409431273
0.356000000000000150,-18.038176498222235011
0.357000000000000151,-17.901512420715882001
0.358000000000000151,-17.765355305335539526
0.359000000000000152,-17.629804312084619511
0.360000000000000153,-17.494952155905046709
0.361000000000000154,-17.360885205121679320
0.362000000000000155,-17.227683591922364315
0.363000000000000156,-17.095421333865754576
0.364000000000000157,-16.964166465431929964
0.365000000000000158,-16.833981178657257516
0.366000000000000159,-16.704921971922221502
0.367000000000000159,-16.577039805991184096
0.368000000000000160,-16.450380266434599719
0.369000000000000161,-16.324983731596528713
0.370000000000000162,-16.200885545304110735
0.371000000000000163,-16.078116193550599178
0.372000000000000164,-15.956701484417749271
0.373000000000000165,-15.836662730539700306
0.374000000000000166,-15.718016933445221994
0.375000000000000167,-15.600776969151302964
0.376000000000000167,-15.484951774416128245
0.377000000000000168,-15.370546533094728403
0.378000000000000169,-15.257562862074962595
0.379000000000000170,-15.145998996306030193
0.380000000000000171,-15.035849972464552238
0.381000000000000172,-14.927107810836588442
0.382000000000000173,-14.819761695025245984
0.383000000000000174,-14.713798149125205228
0.384000000000000175,-14.609201212034937711
0.385000000000000175,-14.505952608607026733
0.386000000000000176,-14.404031917364843451
0.387000000000000177,-14.303416734540878252
0.388000000000000178,-14.204082834218246134
0.389000000000000179,-14.106004324381592241
0.390000000000000180,-14.009153798707421501
0.391000000000000181,-13.913502483946896149
0.392000000000000182,-13.819020382775420330
0.393000000000000183,-13.725676412004080618
0.394000000000000183,-13.633438536067458813
0.395000000000000184,-13.542273895720660093
0.396000000000000185,-13.452148931895743900
0.397000000000000186,-13.363029504684163840
0.398000000000000187,-13.274881007426944990
0.399000000000000188,-13.187668475908759902
0.400000000000000189,-13.101356692665396153
0.401000000000000190,-13.015910286426398912
0.402000000000000191,-12.931293826726426133
0.403000000000000191,-12.847471913729137327
0.404000000000000192,-12.764409263317535448
0.405000000000000193,-12.682070787513406884
0.406000000000000194,-12.600421670296869436
0.407000000000000195,-12.519427438904296324
0.408000000000000196,-12.439054030689691288
0.409000000000000197,-12.359267855640609923
0.410000000000000198,-12.280035854645026561
0.411000000000000199,-12.201325553610301355
0.412000000000000199,-12.123105113539537570
0.413000000000000200,-12.045343376674276570
0.414000000000000201,-11.968009908815412601
0.415000000000000202,-11.891075037936706948
0.416000000000000203,-11.814509889207638338
0.417000000000000204,-11.738286416543521895
0.418000000000000205,-11.662377430802397527
0.419000000000000206,-11.586756624748849376
0.420000000000000207,-11.511398594905216441
0.421000000000000207,-11.436278860411205116
0.422000000000000208,-11.361373879012026222
0.423000000000000209,-11.286661060295402947
0.424000000000000210,-11.212118776296478018
0.425000000000000211,-11.137726369588786923
0.426000000000000212,-11.063464158978417728
0.427000000000000213,-10.989313442916580854
0.428000000000000214,-10.915256500744627388
0.429000000000000214,-10.841276591883344693
0.430000000000000215,-10.767357953076569288
0.431000000000000216,-10.693485793797098182
0.432000000000000217,-10.619646289920344984
0.433000000000000218,-10.545826575769170930
0.434000000000000219,-10.472014734630620936
0.435000000000000220,-10.398199787842949959
0.436000000000000221,-10.324371682548534324
0.437000000000000222,-10.250521278205726006
0.438000000000000222,-10.176640331950018492
0.439000000000000223,-10.102721482892052407
0.440000000000000224,-10.028758235437262414
0.441000000000000225,-9.954744941709170902
0.442000000000000226,-9.880676783155601939
0.443000000000000227,-9.806549751414115335
0.444000000000000228,-9.732360628510352996
0.445000000000000229,-9.658106966460056952
0.446000000000000230,-9.583787066342811301
0.447000000000000230,-9.509399956912798046
0.448000000000000231,-9.434945372809183439
0.449000000000000232,-9.360423732425861232
0.450000000000000233,-9.285836115497989596
0.451000000000000234,-9.211184240459735051
0.452000000000000235,-9.136470441625409222
0.453000000000000236,-9.061697646243370485
0.454000000000000237,-8.986869351469925604
0.455000000000000238,-8.911989601307601205
0.456000000000000238,-8.837062963550344818
0.457000000000000239,-8.762094506775250480
0.458000000000000240,-8.687089777418862013
0.459000000000000241,-8.612054776973213421
0.460000000000000242,-8.536995939335234596
0.461000000000000243,-8.461920108340601487
0.462000000000000244,-8.386834515511491617
0.463000000000000245,-8.311746758045334360
0.464000000000000246,-8.236664777070227927
0.465000000000000246,-8.161596836190451398
0.466000000000000247,-8.086551500343970744
0.467000000000000248,-8.011537614992050749
0.468000000000000249,-7.936564285659484241
0.469000000000000250,-7.861640857842314922
0.470000000000000251,-7.786776897298468114
0.471000000000000252,-7.711982170735099729
0.472000000000000253,-7.637266626905400813
0.473000000000000254,-7.562640378125752072
0.474000000000000254,-7.488113682223342948
0.475000000000000255,-7.413696924922736464
0.476000000000000256,-7.339400602678940011
0.477000000000000257,-7.265235305963344103
0.478000000000000258,-7.191211703007668987
0.479000000000000259,-7.117340524010354663
0.480000000000000260,-7.043632545808577561
0.481000000000000261,-6.970098577018214669
0.482000000000000262,-6.896749443643372501
0.483000000000000262,-6.823595975156086624
0.484000000000000263,-6.750648991046032776
0.485000000000000264,-6.677919287839484852
0.486000000000000265,-6.605417626585949442
0.487000000000000266,-6.533154720810249394
0.488000000000000267,-6.461141224927276383
0.489000000000000268,-6.389387723116089823
0.490000000000000269,-6.317904718649314688
0.491000000000000270,-6.246702623673588306
0.492000000000000270,-6.175791749436003286
0.493000000000000271,-6.105182296951419119
0.494000000000000272,-6.034884348104802676
0.495000000000000273,-5.964907857182512707
0.496000000000000274,-5.895262642826282651
0.497000000000000275,-5.825958380402960657
0.498000000000000276,-5.757004594783140305
0.499000000000000277,-5.688410653521444260
0.500000000000000222,-5.620185760430816302
0.501000000000000334,-5.552338949543320190
0.502000000000000224,-5.484879079449501482
0.503000000000000336,-5.417814828008123307
0.504000000000000226,-5.351154687418473443
0.505000000000000338,-5.284906959646441749
0.506000000000000227,-5.219079752196543076
0.507000000000000339,-5.153680974220856470
0.508000000000000229,-5.088718332956836399
0.509000000000000341,-5.024199330484941939
0.510000000000000231,-4.960131260797988162
0.511000000000000343,-4.896521207173010204
0.512000000000000233,-4.833376039837506077
0.513000000000000345,-4.770702413921002361
0.514000000000000234,-4.708506767683770633
0.515000000000000346,-4.646795321013578395
0.516000000000000236,-4.585574074182503068
0.517000000000000348,-4.524848806854817163
0.518000000000000238,-4.464625077337953662
0.519000000000000350,-4.404908222067794199
0.520000000000000240,-4.345703355320388539
0.521000000000000352,-4.287015369141606413
0.522000000000000242,-4.228848933486871076
0.523000000000000353,-4.171208496562763379
0.524000000000000243,-4.114098285362833174
0.525000000000000355,-4.057522306389628852
0.526000000000000245,-4.001484346555519878
0.527000000000000357,-3.945987974254478559
0.528000000000000247,-3.891036540597797799
0.529000000000000359,-3.836633180806040766
0.530000000000000249,-3.782780815750455439
0.531000000000000361,-3.729482153636526132
0.532000000000000250,-3.676739691823093459
0.533000000000000362,-3.624555718769965296
0.534000000000000252,-3.572932316107779283
0.535000000000000364,-3.521871360823344954
0.536000000000000254,-3.471374527554471623
0.537000000000000366,-3.421443290987769448
0.538000000000000256,-3.372078928353835714
0.539000000000000368,-3.323282522013491391
0.540000000000000258,-3.275054962129837044
0.541000000000000369,-3.227396949420066274
0.542000000000000259,-3.180308997982089991
0.543000000000000371,-3.133791438190281831
0.544000000000000261,-3.087844419655516592
0.545000000000000373,-3.042467914244314287
0.546000000000000263,-2.997661719152445947
0.547000000000000375,-2.953425460028003435
0.548000000000000265,-2.909758594139816967
0.549000000000000377,-2.866660413586310963
0.550000000000000266,-2.824130048540966165
0.551000000000000378,-2.782166470529916502
0.552000000000000268,-2.740768495737935240
0.553000000000000380,-2.699934788338727465
0.554000000000000270,-2.659663863846021492
0.555000000000000382,-2.619954092481603158
0.556000000000000272,-2.580803702557120438
0.557000000000000384,-2.542210783865978208
0.558000000000000274,-2.504173291082455677
0.559000000000000385,-2.466689047164604354
0.560000000000000275,-2.429755746758269996
0.561000000000000387,-2.393370959599117498
0.562000000000000277,-2.357532133910101191
0.563000000000000389,-2.322236599791623224
0.564000000000000279,-2.287481572601990365
0.565000000000000391,-2.253264156325626821
0.566000000000000281,-2.219581346926859489
0.567000000000000393,-2.186430035686979245
0.568000000000000282,-2.153807012522620745
0.569000000000000394,-2.121708969283254476
0.570000000000000284,-2.090132503026159938
0.571000000000000396,-2.059074119266811387
0.572000000000000286,-2.028530235203221288
0.573000000000000398,-1.998497182912367887
0.574000000000000288,-1.968971212517402147
0.575000000000000400,-1.939948495324039346
0.576000000000000290,-1.911425126924854778
0.577000000000000401,-1.883397130270128672
0.578000000000000291,-1.855860458704151172
0.579000000000000403,-1.828810998965695322
0.580000000000000293,-1.802244574151809386
0.581000000000000405,-1.776156946643733692
0.582000000000000295,-1.750543820994241440
0.583000000000000407,-1.725400846775364982
0.584000000000000297,-1.700723621385902051
0.585000000000000409,-1.676507692817843065
0.586000000000000298,-1.652748562381205044
0.587000000000000410,-1.629441687386534054
0.588000000000000300,-1.606582483784696702
0.589000000000000412,-1.584166328763314091
0.590000000000000302,-1.562188563299564681
0.591000000000000414,-1.540644494668887088
0.592000000000000304,-1.519529398909295059
0.593000000000000416,-1.498838523240984433
0.594000000000000306,-1.478567088441086641
0.595000000000000417,-1.458710291173291207
0.596000000000000307,-1.439263306272234200
0.597000000000000419,-1.420221288982551400
0.598000000000000309,-1.401579377152550876
0.599000000000000421,-1.383332693382394396
0.600000000000000311,-1.365476347126935774
0.601000000000000423,-1.348005436753107578
0.602000000000000313,-1.330915051552097106
0.603000000000000425,-1.314200273706220612
0.604000000000000314,-1.297856180210886112
0.605000000000000426,-1.281877844751546647
0.606000000000000316,-1.266260339536087631
0.607000000000000428,-1.250998737082644974
0.608000000000000318,-1.236088111963315139
0.609000000000000430,-1.221523542503846205
0.610000000000000320,-1.207300112439732676
0.611000000000000432,-1.193412912528947878
0.612000000000000322,-1.179857042121708721
0.613000000000000433,-1.166627610687568817
0.614000000000000323,-1.153719739300276936
0.615000000000000435,-1.141128562080730990
0.616000000000000325,-1.128849227598474725
0.617000000000000437,-1.116876900232133485
0.618000000000000327,-1.105206761489240241
0.619000000000000439,-1.093834011285875540
0.620000000000000329,-1.082753869186618534
0.621000000000000441,-1.071961575605239414
0.622000000000000330,-1.061452392966654168
0.623000000000000442,-1.051221606830583521
0.624000000000000332,-1.041264526977475402
0.625000000000000444,-1.031576488457152996
0.626000000000000334,-1.022152852600720196
0.627000000000000446,-1.012989007996257573
0.628000000000000336,-1.004080371428817120
0.629000000000000448,-0.995422388785254908
0.630000000000000338,-0.987010535924473187
0.631000000000000449,-0.978840319513540669
0.632000000000000339,-0.970907277830334925
0.633000000000000451,-0.963206981533158313
0.634000000000000341,-0.955735034397960148
0.635000000000000453,-0.948487074023672827
0.636000000000000343,-0.941458772506210684
0.637000000000000455,-0.934645837081749975
0.638000000000000345,-0.928044010739764280
0.639000000000000457,-0.921649072806425829
0.640000000000000346,-0.915456839498919650
0.641000000000000458,-0.909463164451224104
0.642000000000000348,-0.903663939211899581
0.643000000000000460,-0.898055093714453356
0.644000000000000350,-0.892632596720851490
0.645000000000000462,-0.887392456238674909
0.646000000000000352,-0.882330719912518546
0.647000000000000464,-0.877443475390145999
0.648000000000000353,-0.872726850663967157
0.649000000000000465,-0.868177014388339274
0.650000000000000355,-0.863790176173280799
0.651000000000000467,-0.859562586855065036
0.652000000000000357,-0.855490538744279938
0.653000000000000469,-0.851570365851829991
0.654000000000000359,-0.847798444093444403
0.655000000000000471,-0.844171191473140903
0.656000000000000361,-0.840685068246234124
0.657000000000000473,-0.837336577062321785
0.658000000000000362,-0.834122263088797000
0.659000000000000474,-0.831038714115335475
