# ZnO1m210NBDry_CYMSCA-AC
# h[nm],U(h)[kJ/mol]
0.149999999999999994,53.943385040232691097
0.150999999999999995,51.237641631667273145
0.151999999999999996,49.780241555437427792
0.152999999999999997,48.550528962052197812
0.153999999999999998,47.192954286122514418
0.154999999999999999,45.658212342084866009
0.156000000000000000,44.011674253004130719
0.157000000000000001,42.339558847849943390
0.158000000000000002,40.709713305183882426
0.159000000000000002,39.160948409650913504
0.160000000000000003,37.705727391712130725
0.161000000000000004,36.337765128910710644
0.162000000000000005,35.040191481209660651
0.163000000000000006,33.792328651494671021
0.164000000000000007,32.574463156243204764
0.165000000000000008,31.370673637136256673
0.166000000000000009,30.170073696841892996
0.167000000000000010,28.966912973922966046
0.168000000000000010,27.759953673006883434
0.169000000000000011,26.551465538954310830
0.170000000000000012,25.346094798960606909
0.171000000000000013,24.149780202708225119
0.172000000000000014,22.968820218612979289
0.173000000000000015,21.809142149231153240
0.174000000000000016,20.675785755198219817
0.175000000000000017,19.572588800639891815
0.176000000000000018,18.502047127835382412
0.177000000000000018,17.465314841692830328
0.178000000000000019,16.462308640894384837
0.179000000000000020,15.491882381823126380
0.180000000000000021,14.552042129833992590
0.181000000000000022,13.640177147627408516
0.182000000000000023,12.753287724330480302
0.183000000000000024,11.888195954882657901
0.184000000000000025,11.041730232760350816
0.185000000000000026,10.210878164472486418
0.186000000000000026,9.392905801564271684
0.187000000000000027,8.585443535517734759
0.188000000000000028,7.786540777006896619
0.189000000000000029,6.994692731243731032
0.190000000000000030,6.208843282945795572
0.191000000000000031,5.428368314936249384
0.192000000000000032,4.653043794409873257
0.193000000000000033,3.883002751446059442
0.194000000000000034,3.118684914844313649
0.195000000000000034,2.360782318263473289
0.196000000000000035,1.610183690948180812
0.197000000000000036,0.867919937511391737
0.198000000000000037,0.135112516569006746
0.199000000000000038,-0.587073933101797563
0.200000000000000039,-1.297473785866699370
0.201000000000000040,-1.994956872468363729
0.202000000000000041,-2.678458912301233230
0.203000000000000042,-3.347005928024789689
0.204000000000000042,-3.999732838115436007
0.205000000000000043,-4.635896577421142695
0.206000000000000044,-5.254884207371459226
0.207000000000000045,-5.856216551624662259
0.208000000000000046,-6.439547935146634927
0.209000000000000047,-7.004662620419766839
0.210000000000000048,-7.551468528775532540
0.211000000000000049,-8.079988812406782017
0.212000000000000050,-8.590351807632112369
0.213000000000000050,-9.082779856113116779
0.214000000000000051,-9.557577431107636912
0.215000000000000052,-10.015118953104657606
0.216000000000000053,-10.455836625485121161
0.217000000000000054,-10.880208567906462847
0.218000000000000055,-11.288747474246559221
0.219000000000000056,-11.681989974151013811
0.220000000000000057,-12.060486833202528345
0.221000000000000058,-12.424794086909161095
0.222000000000000058,-12.775465168333841603
0.223000000000000059,-13.113044058320582508
0.224000000000000060,-13.438059460853931881
0.225000000000000061,-13.751019983946667580
0.226000000000000062,-14.052410288343102351
0.227000000000000063,-14.342688151955432119
0.228000000000000064,-14.622282386985295588
0.229000000000000065,-14.891591538775262649
0.230000000000000066,-15.150983290225838118
0.231000000000000066,-15.400794492756077148
0.232000000000000067,-15.641331743936964571
0.233000000000000068,-15.872872432767795914
0.234000000000000069,-16.095666175795916075
0.235000000000000070,-16.309936570624966379
0.236000000000000071,-16.515883197566314067
0.237000000000000072,-16.713683805042030883
0.238000000000000073,-16.903496619646510624
0.239000000000000073,-17.085462727348673440
0.240000000000000074,-17.259708478021718037
0.241000000000000075,-17.426347871196497863
0.242000000000000076,-17.585484886547124717
0.243000000000000077,-17.737215728050244934
0.244000000000000078,-17.881630955944583405
0.245000000000000079,-18.018817485506669840
0.246000000000000080,-18.148860436213560376
0.247000000000000081,-18.271844819060742537
0.248000000000000081,-18.387857053626621706
0.249000000000000082,-18.496986309919876135
0.250000000000000111,-18.599325673113511925
0.251000000000000112,-18.694973131965902269
0.252000000000000113,-18.784032394069434702
0.253000000000000114,-18.866613533063588903
0.254000000000000115,-18.942833474625096812
0.255000000000000115,-19.012816329419830907
0.256000000000000116,-19.076693582294822704
0.257000000000000117,-19.134604147825989173
0.258000000000000118,-19.186694302940946244
0.259000000000000119,-19.233117507731829932
0.260000000000000120,-19.274034125780914906
0.261000000000000121,-19.309611055365813570
0.262000000000000122,-19.340021282811765246
0.263000000000000123,-19.365443369035723720
0.264000000000000123,-19.386060880000425044
0.265000000000000124,-19.402061771382314248
0.266000000000000125,-19.413637737273340633
0.267000000000000126,-19.420983532195748467
0.268000000000000127,-19.424296275126600619
0.269000000000000128,-19.423774743615325633
0.270000000000000129,-19.419618665444879468
0.271000000000000130,-19.412028014644342022
0.272000000000000131,-19.401202318016242288
0.273000000000000131,-19.387339977703124561
0.274000000000000132,-19.370637614690437545
0.275000000000000133,-19.351289437533331750
0.276000000000000134,-19.329486640005832498
0.277000000000000135,-19.305416830807256900
0.278000000000000136,-19.279263497925001047
0.279000000000000137,-19.251205509746590394
0.280000000000000138,-19.221416654539240199
0.281000000000000139,-19.190065219473147806
0.282000000000000139,-19.157313609955476608
0.283000000000000140,-19.123318009665958073
0.284000000000000141,-19.088228081341910070
0.285000000000000142,-19.052186708049795527
0.286000000000000143,-19.015329774401443785
0.287000000000000144,-18.977785986924111228
0.288000000000000145,-18.939676732575552620
0.289000000000000146,-18.901115974203399617
0.290000000000000147,-18.862210181585084001
0.291000000000000147,-18.823058296545170265
0.292000000000000148,-18.783751730532674884
0.293000000000000149,-18.744374392947793950
0.294000000000000150,-18.705002748435511251
0.295000000000000151,-18.665705901310928994
0.296000000000000152,-18.626545705245050044
0.297000000000000153,-18.587576896320886277
0.298000000000000154,-18.548847247564356877
0.299000000000000155,-18.510397743062735998
0.300000000000000155,-18.472262769803236893
0.301000000000000156,-18.434470325394279655
0.302000000000000157,-18.397042239871797875
0.303000000000000158,-18.359994409839636376
0.304000000000000159,-18.323337043247814648
0.305000000000000160,-18.287074913171981194
0.306000000000000161,-18.251207619022416395
0.307000000000000162,-18.215729853679611949
0.308000000000000163,-18.180631675125273006
0.309000000000000163,-18.145898781211830197
0.310000000000000164,-18.111512786289406307
0.311000000000000165,-18.077451498485878290
0.312000000000000166,-18.043689196513234663
0.313000000000000167,-18.010196904950369401
0.314000000000000168,-17.976942667029163658
0.315000000000000169,-17.943891814026528664
0.316000000000000170,-17.911007230439331295
0.317000000000000171,-17.878249614191922490
0.318000000000000171,-17.845577731196733851
0.319000000000000172,-17.812948663657394377
0.320000000000000173,-17.780318051569803828
0.321000000000000174,-17.747640326940757660
0.322000000000000175,-17.714868940304921097
0.323000000000000176,-17.681956579179480826
0.324000000000000177,-17.648855378151498741
0.325000000000000178,-17.615517120345980828
0.326000000000000179,-17.581893430072774720
0.327000000000000179,-17.547935956497322962
0.328000000000000180,-17.513596548224917626
0.329000000000000181,-17.478827418729323995
0.330000000000000182,-17.443581302595344340
0.331000000000000183,-17.407811602580885335
0.332000000000000184,-17.371472527537093811
0.333000000000000185,-17.334519221255906274
0.334000000000000186,-17.296907882342296148
0.335000000000000187,-17.258595875233893935
0.336000000000000187,-17.219541832514369872
0.337000000000000188,-17.179705748687009503
0.338000000000000189,-17.139049065594615939
0.339000000000000190,-17.097534749687774536
0.340000000000000191,-17.055127361358238147
0.341000000000000192,-17.011793116567577755
0.342000000000000193,-16.967499941011119802
0.343000000000000194,-16.922217517067533521
0.344000000000000195,-16.875917323791238545
0.345000000000000195,-16.828572670211691786
0.346000000000000196,-16.780158722207737299
0.347000000000000197,-16.730652523229217365
0.348000000000000198,-16.680033009139947353
0.349000000000000199,-16.628281017457400282
0.350000000000000200,-16.575379291264646042
0.351000000000000201,-16.521312478068953311
0.352000000000000202,-16.466067123879980727
0.353000000000000203,-16.409631662777730554
0.354000000000000203,-16.351996402237400474
0.355000000000000204,-16.293153504473885107
0.356000000000000205,-16.233096964064678502
0.357000000000000206,-16.171822582104589117
0.358000000000000207,-16.109327937139930498
0.359000000000000208,-16.045612353124433014
0.360000000000000209,-15.980676864632309631
0.361000000000000210,-15.914524179557650641
0.362000000000000210,-15.847158639522158197
0.363000000000000211,-15.778586178206357005
0.364000000000000212,-15.708814277812095384
0.365000000000000213,-15.637851923856596059
0.366000000000000214,-15.565709558491050757
0.367000000000000215,-15.492399032528940239
0.368000000000000216,-15.417933556361862912
0.369000000000000217,-15.342327649932759215
0.370000000000000218,-15.265597091929203444
0.371000000000000218,-15.187758868351391328
0.372000000000000219,-15.108831120602346232
0.373000000000000220,-15.028833093240251628
0.374000000000000221,-14.947785081525514883
0.375000000000000222,-14.865708378887935837
0.376000000000000223,-14.782625224432390354
0.377000000000000224,-14.698558750594358457
0.378000000000000225,-14.613532931049871166
0.379000000000000226,-14.527572528977890087
0.380000000000000226,-14.440703045766719370
0.381000000000000227,-14.352950670249430942
0.382000000000000228,-14.264342228547823410
0.383000000000000229,-14.174905134597835854
0.384000000000000230,-14.084667341424108145
0.385000000000000231,-13.993657293225709282
0.386000000000000232,-13.901903878329610720
0.387000000000000233,-13.809436383063649956
0.388000000000000234,-13.716284446595366830
0.389000000000000234,-13.622478016778938326
0.390000000000000235,-13.528047307047298631
0.391000000000000236,-13.433022754382710318
0.392000000000000237,-13.337434978394512086
0.393000000000000238,-13.241314741529189192
0.394000000000000239,-13.144692910433738220
0.395000000000000240,-13.047600418490137741
0.396000000000000241,-12.950068229535048658
0.397000000000000242,-12.852127302775723905
0.398000000000000242,-12.753808558910218807
0.399000000000000243,-12.655142847456854582
0.400000000000000244,-12.556160915295404124
0.401000000000000245,-12.456893376419859720
0.402000000000000246,-12.357370682900249648
0.403000000000000247,-12.257623097048632843
0.404000000000000248,-12.157680664782541058
0.405000000000000249,-12.057573190177027556
0.406000000000000250,-11.957330211194692637
0.407000000000000250,-11.856980976581425580
0.408000000000000251,-11.756554423914003848
0.409000000000000252,-11.656079158784383054
0.410000000000000253,-11.555583435103999435
0.411000000000000254,-11.455095136510450970
0.412000000000000255,-11.354641758857667355
0.413000000000000256,-11.254250393769785532
0.414000000000000257,-11.153947713237977624
0.415000000000000258,-11.053759955238861679
0.416000000000000258,-10.953712910352242815
0.417000000000000259,-10.853831909355399432
0.418000000000000260,-10.754141811770672632
0.419000000000000261,-10.654666995342493507
0.420000000000000262,-10.555431346419805294
0.421000000000000263,-10.456458251219370226
0.422000000000000264,-10.357770587945298146
0.423000000000000265,-10.259390719739830189
0.424000000000000266,-10.161340488440590235
0.425000000000000266,-10.063641209118966202
0.426000000000000267,-9.966313665374734398
0.427000000000000268,-9.869378105361782616
0.428000000000000269,-9.772854238519954606
0.429000000000000270,-9.676761232988189576
0.430000000000000271,-9.581117713674190739
0.431000000000000272,-9.485941760956155377
0.432000000000000273,-9.391250909992209017
0.433000000000000274,-9.297062150613626841
0.434000000000000274,-9.203391927777877513
0.435000000000000275,-9.110256142558293746
0.436000000000000276,-9.017670153647092235
0.437000000000000277,-8.925648779348993145
0.438000000000000278,-8.834206300043142335
0.439000000000000279,-8.743356461091314813
0.440000000000000280,-8.653112476170743861
0.441000000000000281,-8.563487031010525996
0.442000000000000282,-8.474492287510823729
0.443000000000000282,-8.386139888224553474
0.444000000000000283,-8.298440961181828612
0.445000000000000284,-8.211406125037688852
0.446000000000000285,-8.125045494524238521
0.447000000000000286,-8.039368686188884894
0.448000000000000287,-7.954384824400529297
0.449000000000000288,-7.870102547606450116
0.450000000000000289,-7.786530014822740320
0.451000000000000290,-7.703674912341857528
0.452000000000000290,-7.621544460641295871
0.453000000000000291,-7.540145421477779664
0.454000000000000292,-7.459484105151979350
0.455000000000000293,-7.379566377929094756
0.456000000000000294,-7.300397669601281336
0.457000000000000295,-7.221982981178240557
0.458000000000000296,-7.144326892692776987
0.459000000000000297,-7.067433571108685086
0.460000000000000298,-6.991306778318612025
0.461000000000000298,-6.915949879220195662
0.462000000000000299,-6.841365849859045056
0.463000000000000300,-6.767557285627630037
0.464000000000000301,-6.694526409509633069
0.465000000000000302,-6.622275080359685262
0.466000000000000303,-6.550804801208764516
0.467000000000000304,-6.480116727586048953
0.468000000000000305,-6.410211675848392687
0.469000000000000306,-6.341090131508879679
0.470000000000000306,-6.272752257556506450
0.471000000000000307,-6.205197902759087114
0.472000000000000308,-6.138426609942270851
0.473000000000000309,-6.072437624237467801
0.474000000000000310,-6.007229901292207686
0.475000000000000311,-5.942802115436483845
0.476000000000000312,-5.879152667799326437
0.477000000000000313,-5.816279694369643316
0.478000000000000314,-5.754181073996289975
0.479000000000000314,-5.692854436322178913
0.480000000000000315,-5.632297169647676682
0.481000000000000316,-5.572506428718949856
0.482000000000000317,-5.513479142436937153
0.483000000000000318,-5.455212021483187179
0.484000000000000319,-5.397701565858765704
0.485000000000000320,-5.340944072333011050
0.486000000000000321,-5.284935641798801598
0.487000000000000322,-5.229672186531591827
0.488000000000000322,-5.175149437349376491
0.489000000000000323,-5.121362950671256797
0.490000000000000324,-5.068308115472253128
0.491000000000000325,-5.015980160132370358
0.492000000000000326,-4.964374159177994628
0.493000000000000327,-4.913485039914066377
0.494000000000000328,-4.863307588945421145
0.495000000000000329,-4.813836458586096434
0.496000000000000330,-4.765066173155402041
0.497000000000000330,-4.716991135159781301
0.498000000000000331,-4.669605631359656783
0.499000000000000332,-4.622903838720605840
0.500000000000000333,-4.576879830248254954
0.501000000000000334,-4.531527580706580238
0.502000000000000335,-4.486840972219257928
0.503000000000000336,-4.442813799754040005
0.504000000000000337,-4.399439776489964871
0.505000000000000338,-4.356712539067628676
0.506000000000000338,-4.314625652722645199
0.507000000000000339,-4.273172616302554516
0.508000000000000340,-4.232346867167625426
0.509000000000000341,-4.192141785976026824
0.510000000000000342,-4.152550701353884932
0.511000000000000343,-4.113566894450908507
0.512000000000000344,-4.075183603382297015
0.513000000000000345,-4.037394027557739129
0.514000000000000346,-4.000191331898347968
0.515000000000000346,-3.963568650942479898
0.516000000000000347,-3.927519092841382786
0.517000000000000348,-3.892035743245841672
0.518000000000000349,-3.857111669084707817
0.519000000000000350,-3.822739922236699783
0.520000000000000351,-3.788913543096493530
0.521000000000000352,-3.755625564036407127
0.522000000000000353,-3.722869012764992824
0.523000000000000353,-3.690636915583709765
0.524000000000000354,-3.658922300543234307
0.525000000000000355,-3.627718200500565704
0.526000000000000356,-3.597017656078479231
0.527000000000000357,-3.566813718528706545
0.528000000000000358,-3.537099452500238606
0.529000000000000359,-3.507867938714345435
0.530000000000000360,-3.479112276547655203
0.531000000000000361,-3.450825586524914890
0.532000000000000361,-3.423001012722863834
0.533000000000000362,-3.395631725086801112
0.534000000000000363,-3.368710921661358437
0.535000000000000364,-3.342231830737005360
0.536000000000000365,-3.316187712913875263
0.537000000000000366,-3.290571863084436721
0.538000000000000367,-3.265377612336558766
0.539000000000000368,-3.240598329778551889
0.540000000000000369,-3.216227424287707581
0.541000000000000369,-3.192258346183902251
0.542000000000000370,-3.168684588829847826
0.543000000000000371,-3.145499690159436312
0.544000000000000372,-3.122697234135836108
0.545000000000000373,-3.100270852140782019
0.546000000000000374,-3.078214224296611956
0.547000000000000375,-3.056521080722558459
0.548000000000000376,-3.035185202726817799
0.549000000000000377,-3.014200423935865736
0.550000000000000377,-2.993560631362476521
0.551000000000000378,-2.973259766413976379
0.552000000000000379,-2.953291825842138785
0.553000000000000380,-2.933650862636155043
0.554000000000000381,-2.914330986860142580
0.555000000000000382,-2.895326366436578258
0.556000000000000383,-2.876631227877033403
0.557000000000000384,-2.858239856961629854
0.558000000000000385,-2.840146599368551961
0.559000000000000385,-2.822345861254955679
0.560000000000000386,-2.804832109790608818
0.561000000000000387,-2.787599873645574267
0.562000000000000388,-2.770643743433236939
0.563000000000000389,-2.753958372109900132
0.564000000000000390,-2.737538475332272014
0.565000000000000391,-2.721378831774015961
0.566000000000000392,-2.705474283402620195
0.567000000000000393,-2.689819735717768889
0.568000000000000393,-2.674410157952377798
0.569000000000000394,-2.659240583237475697
0.570000000000000395,-2.644306108732059624
0.571000000000000396,-2.629601895719022142
0.572000000000000397,-2.615123169668291059
0.573000000000000398,-2.600865220268205213
0.574000000000000399,-2.586823401426245006
0.575000000000000400,-2.572993131240092435
0.576000000000000401,-2.559369891940095343
0.577000000000000401,-2.545949229804100877
0.578000000000000402,-2.532726755045652034
0.579000000000000403,-2.519698141676490533
0.580000000000000404,-2.506859127344333693
0.581000000000000405,-2.494205513146826814
0.582000000000000406,-2.481733163422561006
0.583000000000000407,-2.469438005520082857
0.584000000000000408,-2.457316029545702385
0.585000000000000409,-2.445363288090986131
0.586000000000000409,-2.433575895940751188
0.587000000000000410,-2.421950029762347967
0.588000000000000411,-2.410481927777056388
0.589000000000000412,-2.399167889414325128
0.590000000000000413,-2.388004274949644845
0.591000000000000414,-2.376987505126757050
0.592000000000000415,-2.366114060764947791
0.593000000000000416,-2.355380482352094962
0.594000000000000417,-2.344783369624173552
0.595000000000000417,-2.334319381131886750
0.596000000000000418,-2.323985233795038408
0.597000000000000419,-2.313777702445332984
0.598000000000000420,-2.303693619358166078
0.599000000000000421,-2.293729873774045469
0.600000000000000422,-2.283883411410197350
0.601000000000000423,-2.274151233962955487
0.602000000000000424,-2.264530398601458661
0.603000000000000425,-2.255018017453202184
0.604000000000000425,-2.245611257081996381
0.605000000000000426,-2.236307337958782782
0.606000000000000427,-2.227103533925868462
0.607000000000000428,-2.217997171654984889
0.608000000000000429,-2.208985630099729924
