# ZnO1m210NBDry_CYSSCA-AC
# h[nm],U(h)[kJ/mol]
0.200000000000000011,48.996555660969178803
0.201000000000000012,47.107347819592220617
0.202000000000000013,46.029674966473756115
0.203000000000000014,45.312282768114670262
0.204000000000000015,44.703605195319994436
0.205000000000000016,44.077989624786951595
0.206000000000000016,43.385631971888564351
0.207000000000000017,42.619383308527673648
0.208000000000000018,41.793402944447457514
0.209000000000000019,40.929995807706589517
0.210000000000000020,40.051990676211936204
0.211000000000000021,39.178772677289735782
0.212000000000000022,38.324641897702321103
0.213000000000000023,37.498578663220484941
0.214000000000000024,36.704792391149865693
0.215000000000000024,35.943643401344772315
0.216000000000000025,35.212677380486262280
0.217000000000000026,34.507616761788966642
0.218000000000000027,33.823224496567149799
0.219000000000000028,33.154002846045514730
0.220000000000000029,32.494719836197972995
0.221000000000000030,31.840774019893864022
0.222000000000000031,31.188417940300553255
0.223000000000000032,30.534864920567049040
0.224000000000000032,29.878304480124949549
0.225000000000000033,29.217850186605126339
0.226000000000000034,28.553441059471964536
0.227000000000000035,27.885714401513105543
0.228000000000000036,27.215864576671453534
0.229000000000000037,26.545499045724149312
0.230000000000000038,25.876500070019325506
0.231000000000000039,25.210897974796598220
0.232000000000000040,24.550759752126058544
0.233000000000000040,23.898095070103039461
0.234000000000000041,23.254780410138415903
0.235000000000000042,22.622501037422527048
0.236000000000000043,22.002709775655546309
0.237000000000000044,21.396601060207380840
0.238000000000000045,20.805098440487984846
0.239000000000000046,20.228853552754788581
0.240000000000000047,19.668254553718643507
0.241000000000000048,19.123442062857385793
0.242000000000000048,18.594330781807915542
0.243000000000000049,18.080635121578957580
0.244000000000000050,17.581897355683501871
0.245000000000000051,17.097517016304045967
0.246000000000000052,16.626780451072320943
0.247000000000000053,16.168889652395371570
0.248000000000000054,15.722989654120343772
0.249000000000000055,15.288193958122013427
0.250000000000000056,14.863607603975676597
0.251000000000000056,14.448347627230242907
0.252000000000000057,14.041560765769261820
0.253000000000000058,13.642438369833254086
0.254000000000000059,13.250228550422624707
0.255000000000000060,12.864245664266301006
0.256000000000000061,12.483877282774988871
0.257000000000000062,12.108588828944187199
0.258000000000000063,11.737926091599991452
0.259000000000000064,11.371515842228930637
0.260000000000000064,11.009064787371547922
0.261000000000000065,10.650357090563181472
0.262000000000000066,10.295250693334297765
0.263000000000000067,9.943672655978128105
0.264000000000000068,9.595613726666680776
0.265000000000000069,9.251122332936933645
0.266000000000000070,8.910298173346005157
0.267000000000000071,8.573285569860084721
0.268000000000000071,8.240266723847733843
0.269000000000000072,7.911455000844176411
0.270000000000000073,7.587088351905864947
0.271000000000000074,7.267422962671322928
0.272000000000000075,6.952727205404163335
0.273000000000000076,6.643275954478975009
0.274000000000000077,6.339345312088933149
0.275000000000000078,6.041207778473728141
0.276000000000000079,5.749127889717994044
0.277000000000000079,5.463358336155402561
0.278000000000000080,5.184136565611128233
0.279000000000000081,4.911681868082638402
0.280000000000000082,4.646192931942751514
0.281000000000000083,4.387845856282216239
0.282000000000000084,4.136792599519955260
0.283000000000000085,3.893159840819476081
0.284000000000000086,3.657048228079706753
0.285000000000000087,3.428531984238385455
0.286000000000000087,3.207658842255754816
0.287000000000000088,2.994450278359644280
0.288000000000000089,2.788902012856124379
0.289000000000000090,2.590984747972669755
0.290000000000000091,2.400645112738660991
0.291000000000000092,2.217806785758883681
0.292000000000000093,2.042371767845245323
0.293000000000000094,1.874221777787955290
0.294000000000000095,1.713219746024682077
0.295000000000000095,1.559211382562717407
0.296000000000000096,1.412026797189122052
0.297000000000000097,1.271482151733988930
0.298000000000000098,1.137381325904968321
0.299000000000000099,1.009517579962139866
0.300000000000000100,0.887675199231136913
0.301000000000000101,0.771631107141061645
0.302000000000000102,0.661156435108709140
0.303000000000000103,0.556018039159117961
0.304000000000000103,0.455979954666913823
0.305000000000000104,0.360804782014768621
0.306000000000000105,0.270254997290720556
0.307000000000000106,0.184094183381384030
0.308000000000000107,0.102088177961273521
0.309000000000000108,0.024006135929581028
0.310000000000000109,-0.050378495195234942
0.311000000000000110,-0.121287087543402963
0.312000000000000111,-0.188935032663922670
0.313000000000000111,-0.253531027939833786
0.314000000000000112,-0.315276448177210011
0.315000000000000113,-0.374364800359169025
0.316000000000000114,-0.430981259092624192
0.317000000000000115,-0.485302279880863274
0.318000000000000116,-0.537495287025185009
0.319000000000000117,-0.587718432688965176
0.320000000000000118,-0.636120423443266469
0.321000000000000119,-0.682840410449903845
0.322000000000000119,-0.728007939321302699
0.323000000000000120,-0.771742955622171656
0.324000000000000121,-0.814155861942129633
0.325000000000000122,-0.855347622466540614
0.326000000000000123,-0.895409911001379122
0.327000000000000124,-0.934425298463438581
0.328000000000000125,-0.972467475926158009
0.329000000000000126,-1.009601509410246623
0.330000000000000127,-1.045884122724873633
0.331000000000000127,-1.081364004796002920
0.332000000000000128,-1.116082138061305518
0.333000000000000129,-1.150072144663623508
0.334000000000000130,-1.183360647334773308
0.335000000000000131,-1.215967642027118156
0.336000000000000132,-1.247906879519268930
0.337000000000000133,-1.279186253393816974
0.338000000000000134,-1.309808191956947310
0.339000000000000135,-1.339770051841221665
0.340000000000000135,-1.369064511202776613
0.341000000000000136,-1.397679960591217796
0.342000000000000137,-1.425600889734262022
0.343000000000000138,-1.452808268638535960
0.344000000000000139,-1.479279921562675515
0.345000000000000140,-1.504990892568005334
0.346000000000000141,-1.529913801495661030
0.347000000000000142,-1.554019189356319552
0.348000000000000143,-1.577275852249854449
0.349000000000000143,-1.599651163056602599
0.350000000000000144,-1.621111380259899093
0.351000000000000145,-1.641621943370570547
0.352000000000000146,-1.661147754528559561
0.353000000000000147,-1.679653445954513602
0.354000000000000148,-1.697103633015337731
0.355000000000000149,-1.713463152752228158
0.356000000000000150,-1.728697287797997806
0.357000000000000151,-1.742771975682479546
0.358000000000000151,-1.755654003590813472
0.359000000000000152,-1.767311188699544289
0.360000000000000153,-1.777712544270143358
0.361000000000000154,-1.786828431728598954
0.362000000000000155,-1.794630699003914032
0.363000000000000156,-1.801092805437429334
0.364000000000000157,-1.806189933609335441
0.365000000000000158,-1.809899088458994498
0.366000000000000159,-1.812199184101401572
0.367000000000000159,-1.813071118764289169
0.368000000000000160,-1.812497838288650742
0.369000000000000161,-1.810464388650372403
0.370000000000000162,-1.806957957972356699
0.371000000000000163,-1.801967908505311300
0.372000000000000164,-1.795485799061265597
0.373000000000000165,-1.787505398387417399
0.374000000000000166,-1.778022689969015913
0.375000000000000167,-1.767035868748874305
0.376000000000000167,-1.754545330248330259
0.377000000000000168,-1.740553652569609921
0.378000000000000169,-1.725065571753301885
0.379000000000000170,-1.708087950957005718
0.380000000000000171,-1.689629743912094195
0.381000000000000172,-1.669701953105580561
0.382000000000000173,-1.648317583122867358
0.383000000000000174,-1.625491589575366991
0.384000000000000175,-1.601240824024209530
0.385000000000000175,-1.575583975298058714
0.386000000000000176,-1.548541507589304533
0.387000000000000177,-1.520135595698637321
0.388000000000000178,-1.490390057783678612
0.389000000000000179,-1.459330285952427753
0.390000000000000180,-1.426983175027628281
0.391000000000000181,-1.393377049793020683
0.392000000000000182,-1.358541591017664585
0.393000000000000183,-1.322507760539425536
0.394000000000000183,-1.285307725674062818
0.395000000000000184,-1.246974783201608261
0.396000000000000185,-1.207543283167223258
0.397000000000000186,-1.167048552719610166
0.398000000000000187,-1.125526820195915878
0.399000000000000188,-1.083015139648513259
0.400000000000000189,-1.039551315995662861
0.401000000000000190,-0.995173830964948380
0.402000000000000191,-0.949921769985978992
0.403000000000000191,-0.903834750176281565
0.404000000000000192,-0.856952849552724771
0.405000000000000193,-0.809316537589168661
0.406000000000000194,-0.760966607230088798
0.407000000000000195,-0.711944108459335867
0.408000000000000196,-0.662290283512845468
0.409000000000000197,-0.612046503814519638
0.410000000000000198,-0.561254208705110114
0.411000000000000199,-0.509954846024917807
0.412000000000000199,-0.458189814602781964
0.413000000000000200,-0.406000408695674886
0.414000000000000201,-0.353427764415591372
0.415000000000000202,-0.300512808173099999
0.416000000000000203,-0.247296207160232318
0.417000000000000204,-0.193818321888692358
0.418000000000000205,-0.140119160793515052
0.419000000000000206,-0.086238336906486121
0.420000000000000207,-0.032215026598217664
0.421000000000000207,0.021912069616967768
0.422000000000000208,0.076104764224191795
0.423000000000000209,0.130325417814005140
0.424000000000000210,0.184536972170292080
0.425000000000000211,0.238702981362712258
0.426000000000000212,0.292787640869716648
0.427000000000000213,0.346755814761331826
0.428000000000000214,0.400573060973645034
0.429000000000000214,0.454205654709610052
0.430000000000000215,0.507620610003042705
0.431000000000000216,0.560785699484690481
0.432000000000000217,0.613669472391318416
0.433000000000000218,0.666241270860147838
0.434000000000000219,0.718471244552583932
0.435000000000000220,0.770330363652301564
0.436000000000000221,0.821790430283871998
0.437000000000000222,0.872824088398956754
0.438000000000000222,0.923404832177772361
0.439000000000000223,0.973507012994127563
0.440000000000000224,1.023105844992712399
0.441000000000000225,1.072177409327632613
0.442000000000000226,1.120698657111176555
0.443000000000000227,1.168647411122035518
0.444000000000000228,1.216002366321923489
0.445000000000000229,1.262743089229423799
0.446000000000000230,1.308850016199589295
0.447000000000000230,1.354304450657414005
0.448000000000000231,1.399088559332853254
0.449000000000000232,1.443185367544526310
0.450000000000000233,1.486578753578571721
0.451000000000000234,1.529253442208546865
0.452000000000000235,1.571194997401418547
0.453000000000000236,1.612389814254022724
0.454000000000000237,1.652825110203415715
0.455000000000000238,1.692488915553804318
0.456000000000000238,1.731370063361679978
0.457000000000000239,1.769458178720028529
0.458000000000000240,1.806743667481274240
0.459000000000000241,1.843217704457924766
0.460000000000000242,1.878872221138542242
0.461000000000000243,1.913699892955950332
0.462000000000000244,1.947694126143258320
0.463000000000000245,1.980849044212507071
0.464000000000000246,2.013159474089428080
0.465000000000000246,2.044620931936897534
0.466000000000000247,2.075229608698591299
0.467000000000000248,2.104982355393220317
0.468000000000000249,2.133876668188675829
0.469000000000000250,2.161910673284431539
0.470000000000000251,2.189083111629386735
0.471000000000000252,2.215393323501400502
0.472000000000000253,2.240841232973635577
0.473000000000000254,2.265427332291899631
0.474000000000000254,2.289152666186108576
0.475000000000000255,2.312018816138012411
0.476000000000000256,2.334027884626392435
0.477000000000000257,2.355182479369881232
0.478000000000000258,2.375485697586742440
0.479000000000000259,2.394941110289901420
0.480000000000000260,2.413552746634689772
0.481000000000000261,2.431325078335869527
0.482000000000000262,2.448263004169566770
0.483000000000000262,2.464371834575020959
0.484000000000000263,2.479657276370111241
0.485000000000000264,2.494125417593906047
0.486000000000000265,2.507782712488616284
0.487000000000000266,2.520635966632658320
0.488000000000000267,2.532692322235742921
0.489000000000000268,2.543959243606146003
0.490000000000000269,2.554444502799762429
0.491000000000000270,2.564156165459667847
0.492000000000000270,2.573102576854463752
0.493000000000000271,2.581292348122887326
0.494000000000000272,2.588734342731661364
0.495000000000000273,2.595437663152914354
0.496000000000000274,2.601411637766950058
0.497000000000000275,2.606665807995621531
0.498000000000000276,2.611209915670973380
0.499000000000000277,2.615053890643390666
0.500000000000000222,2.618207838632942597
0.501000000000000334,2.620682029327173534
0.502000000000000224,2.622486884728116863
0.503000000000000336,2.623632967750931577
0.504000000000000226,2.624130971076083618
0.505000000000000338,2.623991706256659118
0.506000000000000227,2.623226093081951316
0.507000000000000339,2.621845149198216429
0.508000000000000229,2.619859979987031018
0.509000000000000341,2.617281768701427147
0.510000000000000231,2.614121766859667240
0.511000000000000343,2.610391284896212305
0.512000000000000233,2.606101683069186770
0.513000000000000345,2.601264362623316284
0.514000000000000234,2.595890757207154564
0.515000000000000346,2.589992324543120006
0.516000000000000236,2.583580538348669187
0.517000000000000348,2.576666880506676804
0.518000000000000238,2.569262833483014319
0.519000000000000350,2.561379872988964745
0.520000000000000240,2.553029460886127033
0.521000000000000352,2.544223038331129061
0.522000000000000242,2.534972019157478051
0.523000000000000353,2.525287783491590332
0.524000000000000243,2.515181671600069002
0.525000000000000355,2.504664977965025852
0.526000000000000245,2.493748945584277177
0.527000000000000357,2.482444760493020652
0.528000000000000247,2.470763546503627506
0.529000000000000359,2.458716360159999947
0.530000000000000249,2.446314185902953575
0.531000000000000361,2.433567931442933485
0.532000000000000250,2.420488423336438988
0.533000000000000362,2.407086402762319111
0.534000000000000252,2.393372521494249838
0.535000000000000364,2.379357338065418936
0.536000000000000254,2.365051314121749293
0.537000000000000366,2.350464810959564499
0.538000000000000256,2.335608086243984083
0.539000000000000368,2.320491290903976989
0.540000000000000258,2.305124466200265232
0.541000000000000369,2.289517540962039632
0.542000000000000259,2.273680328988679999
0.543000000000000371,2.257622526612422575
0.544000000000000261,2.241353710418174217
0.545000000000000373,2.224883335116492056
0.546000000000000263,2.208220731565921024
0.547000000000000375,2.191375104940709306
0.548000000000000265,2.174355533040224664
0.549000000000000377,2.157170964736074836
0.550000000000000266,2.139830218553338437
0.551000000000000378,2.122341981381965059
0.552000000000000268,2.104714807314806091
0.553000000000000380,2.086957116608452623
0.554000000000000270,2.069077194763360605
0.555000000000000382,2.051083191719551557
0.556000000000000272,2.032983121164452012
0.557000000000000384,2.014784859949260376
0.558000000000000274,1.996496147610455907
0.559000000000000385,1.978124585992971474
0.560000000000000275,1.959677638971738078
0.561000000000000387,1.941162632268195409
0.562000000000000277,1.922586753358624945
0.563000000000000389,1.903957051470952067
0.564000000000000279,1.885280437667010700
0.565000000000000391,1.866563685007026407
0.566000000000000281,1.847813428793414703
0.567000000000000393,1.829036166890748660
0.568000000000000282,1.810238260119115594
0.569000000000000394,1.791425932717824576
0.570000000000000284,1.772605272876824456
0.571000000000000396,1.753782233332854990
0.572000000000000286,1.734962632027819085
0.573000000000000398,1.716152152826579735
0.574000000000000288,1.697356346291684970
0.575000000000000400,1.678580630512377159
0.576000000000000290,1.659830291985546991
0.577000000000000401,1.641110486546037972
0.578000000000000291,1.622426240344081005
0.579000000000000403,1.603782450867441201
0.580000000000000293,1.585183888006107100
0.581000000000000405,1.566635195157186855
0.582000000000000295,1.548140890368064460
0.583000000000000407,1.529705367515487913
0.584000000000000297,1.511332897518772977
0.585000000000000409,1.493027629584934513
0.586000000000000298,1.474793592484014315
0.587000000000000410,1.456634695852509598
0.588000000000000300,1.438554731523287611
0.589000000000000412,1.420557374880015544
0.590000000000000302,1.402646186234548953
0.591000000000000414,1.384824612225433071
0.592000000000000304,1.367095987236064847
0.593000000000000416,1.349463534830768197
0.594000000000000306,1.331930369207386278
0.595000000000000417,1.314499496664787603
0.596000000000000307,1.297173817083980385
0.597000000000000419,1.279956125421293667
0.598000000000000309,1.262849113212382690
0.599000000000000421,1.245855370085728886
0.600000000000000311,1.228977385284348411
0.601000000000000423,1.212217549194482658
0.602000000000000313,1.195578154880174271
0.603000000000000425,1.179061399622456374
0.604000000000000314,1.162669386462204413
0.605000000000000426,1.146404125745448699
0.606000000000000316,1.130267536670271245
0.607000000000000428,1.114261448834171109
0.608000000000000318,1.098387603781067590
0.609000000000000430,1.082647656546923631
0.610000000000000320,1.067043177203240933
0.611000000000000432,1.051575652397435778
0.612000000000000322,1.036246486889459417
0.613000000000000433,1.021057005083730873
0.614000000000000323,1.006008452555760213
0.615000000000000435,0.991101997572669591
0.616000000000000325,0.976338732607020865
0.617000000000000437,0.961719675843191291
0.618000000000000327,0.947245772675791797
0.619000000000000439,0.932917897199445401
0.620000000000000329,0.918736853689423705
0.621000000000000441,0.904703378072566955
0.622000000000000330,0.890818139388013241
0.623000000000000442,0.877081741237190626
0.624000000000000332,0.863494723222724025
0.625000000000000444,0.850057562375669540
0.626000000000000334,0.836770674570827766
0.627000000000000446,0.823634415929602071
0.628000000000000336,0.810649084210149473
0.629000000000000448,0.797814920184393928
0.630000000000000338,0.785132109001661083
0.631000000000000449,0.772600781538524850
0.632000000000000339,0.760221015734710681
0.633000000000000451,0.747992837914666531
0.634000000000000341,0.735916224094670390
0.635000000000000453,0.723991101275119453
0.636000000000000343,0.712217348717951837
0.637000000000000455,0.700594799208819397
0.638000000000000345,0.689123240304027052
0.639000000000000457,0.677802415561904015
0.640000000000000346,0.666632025758609137
0.641000000000000458,0.655611730088108358
0.642000000000000348,0.644741147346333032
0.643000000000000460,0.634019857099293982
0.644000000000000350,0.623447400835182020
0.645000000000000462,0.613023283100258110
0.646000000000000352,0.602746972618593446
0.647000000000000464,0.592617903395475265
0.648000000000000353,0.582635475804578751
0.649000000000000465,0.572799057658726629
0.650000000000000355,0.563107985264366673
0.651000000000000467,0.553561564459628674
0.652000000000000357,0.544159071636052483
0.653000000000000469,0.534899754743946576
0.654000000000000359,0.525782834281427691
0.655000000000000471,0.516807504267140172
0.656000000000000361,0.507972933196735643
0.657000000000000473,0.499278264983093911
0.658000000000000362,0.490722619880410604
0.659000000000000474,0.482305095392148331
0.660000000000000364,0.474024767162972593
0.661000000000000476,0.465880689854679342
0.662000000000000366,0.457871898006279199
0.663000000000000478,0.449997406878239414
0.664000000000000368,0.442256213281048527
0.665000000000000480,0.434647296388132154
0.666000000000000369,0.427169618533290940
0.667000000000000481,0.419822125992706408
0.668000000000000371,0.412603749751684235
0.669000000000000483,0.405513406256187647
