# ZnO1m210NBDry_HFE
# h[nm],U(h)[kJ/mol]
0.149999999999999994,33.663045410237558031
0.150999999999999995,32.748866384325623358
0.151999999999999996,32.090191292053702909
0.152999999999999997,31.472282889396989702
0.153999999999999998,30.825072249114924716
0.154999999999999999,30.143016403952703541
0.156000000000000000,29.443144898921730146
0.157000000000000001,28.745112680580870546
0.158000000000000002,28.063329498083788849
0.159000000000000002,27.405242732568915187
0.160000000000000003,26.772372820879706268
0.161000000000000004,26.162253029934852577
0.162000000000000005,25.570353514462809130
0.163000000000000006,24.991602674734274103
0.164000000000000007,24.421407424713319045
0.165000000000000008,23.856215641176170550
0.166000000000000009,23.293720922921526295
0.167000000000000010,22.732820574498180832
0.168000000000000010,22.173425906535577212
0.169000000000000011,21.616203185275317367
0.170000000000000012,21.062301377907957090
0.171000000000000013,20.513102966630860635
0.172000000000000014,19.970018055464954898
0.173000000000000015,19.434330037674119041
0.174000000000000016,18.907092859840524568
0.175000000000000017,18.389074771628774130
0.176000000000000018,17.880740685403484491
0.177000000000000018,17.382264231694907863
0.178000000000000019,16.893560726989043985
0.179000000000000020,16.414333124036780021
0.180000000000000021,15.944124255089283437
0.181000000000000022,15.482370063758159162
0.182000000000000023,15.028449888655373456
0.183000000000000024,14.581731110177804212
0.184000000000000025,14.141606545437934273
0.185000000000000026,13.707523853065870512
0.186000000000000026,13.279006889475663655
0.187000000000000027,12.855669455425452696
0.188000000000000028,12.437222208546497626
0.189000000000000029,12.023473719806414550
0.190000000000000030,11.614326745998493351
0.191000000000000031,11.209770801300559029
0.192000000000000032,10.809872061148212197
0.193000000000000033,10.414761540403763007
0.194000000000000034,10.024622371052254621
0.195000000000000034,9.639676875181409699
0.196000000000000035,9.260173996621379189
0.197000000000000036,8.886377526548432826
0.198000000000000037,8.518555439605894009
0.199000000000000038,8.156970550854413915
0.200000000000000039,7.801872611871118579
0.201000000000000040,7.453491887186632248
0.202000000000000041,7.112034189760859881
0.203000000000000042,6.777677305541587316
0.204000000000000042,6.450568701119204107
0.205000000000000043,6.130824383653894927
0.206000000000000044,5.818528767064940155
0.207000000000000045,5.513735391383588258
0.208000000000000046,5.216468341681883558
0.209000000000000047,4.926724217704800068
0.210000000000000048,4.644474513987356445
0.211000000000000049,4.369668281716679203
0.212000000000000050,4.102234956937007126
0.213000000000000050,3.842087254084376013
0.214000000000000051,3.589124038608203282
0.215000000000000052,3.343233107057348885
0.216000000000000053,3.104293817065101102
0.217000000000000054,2.872179522853815392
0.218000000000000055,2.646759783981420533
0.219000000000000056,2.427902325931702077
0.220000000000000057,2.215474740734742376
0.221000000000000058,2.009345924075699230
0.222000000000000058,1.809387252327355977
0.223000000000000059,1.615473508681404269
0.224000000000000060,1.427483572128961820
0.225000000000000061,1.245300886546676367
0.226000000000000062,1.068813729683069313
0.227000000000000063,0.897915303518357022
0.228000000000000064,0.732503668399489993
0.229000000000000065,0.572481543636395140
0.230000000000000066,0.417755996989831402
0.231000000000000066,0.268238044780638674
0.232000000000000067,0.123842183295344729
0.233000000000000068,-0.015514129165801638
0.234000000000000069,-0.149911021781695630
0.235000000000000070,-0.279426776093487372
0.236000000000000071,-0.404138391873459402
0.237000000000000072,-0.524122141354606441
0.238000000000000073,-0.639454100966844519
0.239000000000000073,-0.750210651456048705
0.240000000000000074,-0.856468938925044165
0.241000000000000075,-0.958307290909233833
0.242000000000000076,-1.055805583069243436
0.243000000000000077,-1.149045553436979006
0.244000000000000078,-1.238111062382923011
0.245000000000000079,-1.323088297577626138
0.246000000000000080,-1.404065924198252713
0.247000000000000081,-1.481135181483788754
0.248000000000000081,-1.554389927472898059
0.249000000000000082,-1.623926634372252042
0.250000000000000111,-1.689844337506490657
0.251000000000000112,-1.752244541200695283
0.252000000000000113,-1.811231085251069572
0.253000000000000114,-1.866909975856090087
0.254000000000000115,-1.919389185018935517
0.255000000000000115,-1.968778422499001035
0.256000000000000116,-2.015188884395448632
0.257000000000000117,-2.058732982396060951
0.258000000000000118,-2.099524057628070040
0.259000000000000119,-2.137676082911446507
0.260000000000000120,-2.173303357046107109
0.261000000000000121,-2.206520194568444282
0.262000000000000122,-2.237440614196172017
0.263000000000000123,-2.266178028947936518
0.264000000000000123,-2.292844940681197485
0.265000000000000124,-2.317552641541916092
0.266000000000000125,-2.340410924567138284
0.267000000000000126,-2.361527805429238569
0.268000000000000127,-2.381009257061863060
0.269000000000000128,-2.398958958664398011
0.270000000000000129,-2.415478060346492040
0.271000000000000130,-2.430664964448401744
0.272000000000000131,-2.444615124357870428
0.273000000000000131,-2.457420861441310223
0.274000000000000132,-2.469171200516618203
0.275000000000000133,-2.479951724118025780
0.276000000000000134,-2.489844445639873172
0.277000000000000135,-2.498927701296489889
0.278000000000000136,-2.507276060699484610
0.279000000000000137,-2.514960255731327088
0.280000000000000138,-2.522047127285046653
0.281000000000000139,-2.528599589343723419
0.282000000000000139,-2.534676609789725532
0.283000000000000140,-2.540333207261893822
0.284000000000000141,-2.545620463318323701
0.285000000000000142,-2.550585549112752481
0.286000000000000143,-2.555271765752714419
0.287000000000000144,-2.559718597477307789
0.288000000000000145,-2.563961776770839585
0.289000000000000146,-2.568033360514779151
0.290000000000000147,-2.571961816274278334
0.291000000000000147,-2.575772117815720463
0.292000000000000148,-2.579485848958204652
0.293000000000000149,-2.583121314873512819
0.294000000000000150,-2.586693659965648262
0.295000000000000151,-2.590214991481810447
0.296000000000000152,-2.593694508030917056
0.297000000000000153,-2.597138632213476406
0.298000000000000154,-2.600551146596621344
0.299000000000000155,-2.603933332300618186
0.300000000000000155,-2.607284109497233437
0.301000000000000156,-2.610600179155921019
0.302000000000000157,-2.613876165410320418
0.303000000000000158,-2.617104757954807681
0.304000000000000159,-2.620276853918507065
0.305000000000000160,-2.623381698701868103
0.306000000000000161,-2.626407025298580500
0.307000000000000162,-2.629339191662876551
0.308000000000000163,-2.632163315718958341
0.309000000000000163,-2.634863407645364752
0.310000000000000164,-2.637422499102212381
0.311000000000000165,-2.639822769103392641
0.312000000000000166,-2.642045666268951543
0.313000000000000167,-2.644072027224643850
0.314000000000000168,-2.645882190946344359
0.315000000000000169,-2.647456108876229397
0.316000000000000170,-2.648773450665616203
0.317000000000000171,-2.649813705425781318
0.318000000000000171,-2.650556278393227494
0.319000000000000172,-2.650980582939524766
0.320000000000000173,-2.651066127878035417
0.321000000000000174,-2.650792600040666969
0.322000000000000175,-2.650139942117200498
0.323000000000000176,-2.649088425767679222
0.324000000000000177,-2.647618720035107120
0.325000000000000178,-2.645711955100838786
0.326000000000000179,-2.643349781439297885
0.327000000000000179,-2.640514424441225749
0.328000000000000180,-2.637188734586338956
0.329000000000000181,-2.633356233256722412
0.330000000000000182,-2.629001154291423781
0.331000000000000183,-2.624108481391133729
0.332000000000000184,-2.618663981488900117
0.333000000000000185,-2.612654234209176085
0.334000000000000186,-2.606066657542775999
0.335000000000000187,-2.598889529869837567
0.336000000000000187,-2.591112008466528671
0.337000000000000188,-2.582724144634125363
0.338000000000000189,-2.573716895591318998
0.339000000000000190,-2.564082133272115094
0.340000000000000191,-2.553812650172530230
0.341000000000000192,-2.542902162389772514
0.342000000000000193,-2.531345309997199866
0.343000000000000194,-2.519137654897873002
0.344000000000000195,-2.506275676298169053
0.345000000000000195,-2.492756763941618381
0.346000000000000196,-2.478579209241027481
0.347000000000000197,-2.463742194444810796
0.348000000000000198,-2.448245779970945168
0.349000000000000199,-2.432090890039054987
0.350000000000000200,-2.415279296728237490
0.351000000000000201,-2.397813602584883519
0.352000000000000202,-2.379697221901400983
0.353000000000000203,-2.360934360783172092
0.354000000000000203,-2.341529996117380552
0.355000000000000204,-2.321489853553511562
0.356000000000000205,-2.300820384601521162
0.357000000000000206,-2.279528742949695985
0.358000000000000207,-2.257622760100174819
0.359000000000000208,-2.235110920416230051
0.360000000000000209,-2.212002335671256148
0.361000000000000210,-2.188306719185448834
0.362000000000000210,-2.164034359632151627
0.363000000000000211,-2.139196094591848230
0.364000000000000212,-2.113803283927896182
0.365000000000000213,-2.087867783054112358
0.366000000000000214,-2.061401916160595427
0.367000000000000215,-2.034418449460342337
0.368000000000000216,-2.006930564515550408
0.369000000000000217,-1.978951831698860797
0.370000000000000218,-1.950496183841332609
0.371000000000000218,-1.921577890115400367
0.372000000000000219,-1.892211530197837277
0.373000000000000220,-1.862411968754405178
0.374000000000000221,-1.832194330284809380
0.375000000000000222,-1.801573974363440245
0.376000000000000223,-1.770566471308529843
0.377000000000000224,-1.739187578309477455
0.378000000000000225,-1.707453216039337196
0.379000000000000226,-1.675379445776898013
0.380000000000000226,-1.642982447060252316
0.381000000000000227,-1.610278495891252160
0.382000000000000228,-1.577283943508108965
0.383000000000000229,-1.544015195741031743
0.384000000000000230,-1.510488692963750434
0.385000000000000231,-1.476720890651857188
0.386000000000000232,-1.442728240556823582
0.387000000000000233,-1.408527172502929137
0.388000000000000234,-1.374134076812481009
0.389000000000000234,-1.339565287363225998
0.390000000000000235,-1.304837065280200603
0.391000000000000236,-1.269965583262963493
0.392000000000000237,-1.234966910547679486
0.393000000000000238,-1.199856998502407013
0.394000000000000239,-1.164651666852593248
0.395000000000000240,-1.129366590532853154
0.396000000000000241,-1.094017287159962715
0.397000000000000242,-1.058619105121062054
0.398000000000000242,-1.023187212270284974
0.399000000000000243,-0.987736585226074881
0.400000000000000244,-0.952281999260775947
0.401000000000000245,-0.916838018773477037
0.402000000000000246,-0.881418988336316156
0.403000000000000247,-0.846039024303977705
0.404000000000000248,-0.810712006975639943
0.405000000000000249,-0.775451573298100660
0.406000000000000250,-0.740271110098433605
0.407000000000000250,-0.705183747834201347
0.408000000000000251,-0.670202354848887127
0.409000000000000252,-0.635339532120001604
0.410000000000000253,-0.600607608487034761
0.411000000000000254,-0.566018636346288462
0.412000000000000255,-0.531584387799446167
0.413000000000000256,-0.497316351242632571
0.414000000000000257,-0.463225728382609780
0.415000000000000258,-0.429323431666767341
0.416000000000000258,-0.395620082113460725
0.417000000000000259,-0.362126007529312122
0.418000000000000260,-0.328851241100117764
0.419000000000000261,-0.295805520341997086
0.420000000000000262,-0.262998286399605985
0.421000000000000263,-0.230438683678204859
0.422000000000000264,-0.198135559796604188
0.423000000000000265,-0.166097465848019599
0.424000000000000266,-0.134332656956174828
0.425000000000000266,-0.102849093113977080
0.426000000000000267,-0.071654440292408722
0.427000000000000268,-0.040756071807380827
0.428000000000000269,-0.010161069932531680
0.429000000000000270,0.020123772253815203
0.430000000000000271,0.050091948799191800
0.431000000000000272,0.079737238596337121
0.432000000000000273,0.109053702902527250
0.433000000000000274,0.138035682669756327
0.434000000000000274,0.166677795696465736
0.435000000000000275,0.194974933611165108
0.436000000000000276,0.222922258698127151
0.437000000000000277,0.250515200575070762
0.438000000000000278,0.277749452732416025
0.439000000000000279,0.304620968943520587
0.440000000000000280,0.331125959555014671
0.441000000000000281,0.357260887666069116
0.442000000000000282,0.383022465205190121
0.443000000000000282,0.408407648912886667
0.444000000000000283,0.433413636238260680
0.445000000000000284,0.458037861157321813
0.446000000000000285,0.482277989920638472
0.447000000000000286,0.506131916737517229
0.448000000000000287,0.529597759403870993
0.449000000000000288,0.552673854880471049
0.450000000000000289,0.575358754828199204
0.451000000000000290,0.597651221106562436
0.452000000000000290,0.619550221241545906
0.453000000000000291,0.641054923868632831
0.454000000000000292,0.662164694156561096
0.455000000000000293,0.682879089217220070
0.456000000000000294,0.703197853506770776
0.457000000000000295,0.723120914222958322
0.458000000000000296,0.742648376703271884
0.459000000000000297,0.761780519828476499
0.460000000000000298,0.780517791435773156
0.461000000000000298,0.798860803745678028
0.462000000000000299,0.816810328806492514
0.463000000000000300,0.834367293960066148
0.464000000000000301,0.851532777332339563
0.465000000000000302,0.868308003351965119
0.466000000000000303,0.884694338300195726
0.467000000000000304,0.900693285894958118
0.468000000000000305,0.916306482911904085
0.469000000000000306,0.931535694845110895
0.470000000000000306,0.946382811609849051
0.471000000000000307,0.960849843289786065
0.472000000000000308,0.974938915930737560
0.473000000000000309,0.988652267383045347
0.474000000000000310,1.001992243194404830
0.475000000000000311,1.014961292554948269
0.476000000000000312,1.027561964296116903
0.477000000000000313,1.039796902944905455
0.478000000000000314,1.051668844834765304
0.479000000000000314,1.063180614274438662
0.480000000000000315,1.074335119775872371
0.481000000000000316,1.085135350342202543
0.482000000000000317,1.095584371816754610
0.483000000000000318,1.105685323293852829
0.484000000000000319,1.115441413592181519
0.485000000000000320,1.124855917791283577
0.486000000000000321,1.133932173831776913
0.487000000000000322,1.142673579179701804
0.488000000000000322,1.151083587555388643
0.489000000000000323,1.159165705727110085
0.490000000000000324,1.166923490369753846
0.491000000000000325,1.174360544988630961
0.492000000000000326,1.181480516908522072
0.493000000000000327,1.188287094327930893
0.494000000000000328,1.194784003438511544
0.495000000000000329,1.200975005609555835
0.496000000000000330,1.206863894637342893
0.497000000000000330,1.212454494059159726
0.498000000000000331,1.217750654531685628
0.499000000000000332,1.222756251273428685
0.500000000000000333,1.227475181570852447
0.501000000000000334,1.231911362347757333
0.502000000000000335,1.236068727797488220
0.503000000000000336,1.239951227077451756
0.504000000000000337,1.243562822065445772
0.505000000000000338,1.246907485177209063
0.506000000000000338,1.249989197244615546
0.507000000000000339,1.252811945453905507
0.508000000000000340,1.255379721343265587
0.509000000000000341,1.257696518859132029
0.510000000000000342,1.259766332470477312
0.511000000000000343,1.261593155340397177
0.512000000000000344,1.263180977554229978
0.513000000000000345,1.264533784403469641
0.514000000000000346,1.265655554724699483
0.515000000000000346,1.266550259292739344
0.516000000000000347,1.267221859267234185
0.517000000000000348,1.267674304691834619
0.518000000000000349,1.267911533045180672
0.519000000000000350,1.267937467842827459
0.520000000000000351,1.267756017289273895
0.521000000000000352,1.267371072979263547
0.522000000000000353,1.266786508647474552
0.523000000000000353,1.266006178965759954
0.524000000000000354,1.265033918387062695
0.525000000000000355,1.263873540035138632
0.526000000000000356,1.262528834639228048
0.527000000000000357,1.261003569512782807
0.528000000000000358,1.259301487575416711
0.529000000000000359,1.257426306417167350
0.530000000000000360,1.255381717404233655
0.531000000000000361,1.253171384825302992
0.532000000000000361,1.250798945077627566
0.533000000000000362,1.248268005891955745
0.534000000000000363,1.245582145595501400
0.535000000000000364,1.242744912412079072
0.536000000000000365,1.239759823798563199
0.537000000000000366,1.236630365816834498
0.538000000000000367,1.233359992540380645
0.539000000000000368,1.229952125494727877
0.540000000000000369,1.226410153130875536
0.541000000000000369,1.222737430330939290
0.542000000000000370,1.218937277945172593
0.543000000000000371,1.215012982359612526
0.544000000000000372,1.210967795093513377
0.545000000000000373,1.206804932425840304
0.546000000000000374,1.202527575050015951
0.547000000000000375,1.198138867756190828
0.548000000000000376,1.193641919140261187
0.549000000000000377,1.189039801338922731
0.550000000000000377,1.184335549790017650
0.551000000000000378,1.179532163017443569
0.552000000000000379,1.174632602439954043
0.553000000000000380,1.169639792203108097
0.554000000000000381,1.164556619033712437
0.555000000000000382,1.159385932116078433
0.556000000000000383,1.154130542989404207
0.557000000000000384,1.148793225465666312
0.558000000000000385,1.143376715567339108
0.559000000000000385,1.137883711484333427
0.560000000000000386,1.132316873549534586
0.561000000000000387,1.126678824232313580
0.562000000000000388,1.120972148149422143
0.563000000000000389,1.115199392092689035
0.564000000000000390,1.109363065072932697
0.565000000000000391,1.103465638379523606
0.566000000000000392,1.097509545655052765
0.567000000000000393,1.091497182984553449
0.568000000000000393,1.085430908998744615
0.569000000000000394,1.079313044990769521
0.570000000000000395,1.073145875045948161
0.571000000000000396,1.066931646183991500
0.572000000000000397,1.060672568513236325
0.573000000000000398,1.054370815396402650
0.574000000000000399,1.048028523627394737
0.575000000000000400,1.041647793618715845
0.576000000000000401,1.035230689599019760
0.577000000000000401,1.028779239820388991
0.578000000000000402,1.022295436774883992
0.579000000000000403,1.015781237419980609
0.580000000000000404,1.009238563412460987
0.581000000000000405,1.002669301350368691
0.582000000000000406,0.996075303022657899
0.583000000000000407,0.989458385666119766
0.584000000000000408,0.982820332229270788
0.585000000000000409,0.976162891642800012
0.586000000000000409,0.969487779096238733
0.587000000000000410,0.962796676320529343
0.588000000000000411,0.956091231876132874
0.589000000000000412,0.949373061446377120
0.590000000000000413,0.942643748135718385
0.591000000000000414,0.935904842772609769
0.592000000000000415,0.929157864216694995
0.593000000000000416,0.922404299670014138
0.594000000000000417,0.915645604991958351
0.595000000000000417,0.908883205017707807
0.596000000000000418,0.902118493879853545
0.597000000000000419,0.895352835332995034
0.598000000000000420,0.888587563081015830
0.599000000000000421,0.881823981106837351
0.600000000000000422,0.875063364004377120
0.601000000000000423,0.868306957312521499
0.602000000000000424,0.861555977850863131
0.603000000000000425,0.854811614057001679
0.604000000000000425,0.848075026325201597
0.605000000000000426,0.841347347346210861
0.606000000000000427,0.834629682448028709
0.607000000000000428,0.827923109937462653
0.608000000000000429,0.821228681442259578
0.609000000000000430,0.814547422253683373
0.610000000000000431,0.807880331669311169
0.611000000000000432,0.801228383335937266
0.612000000000000433,0.794592525592401233
0.613000000000000433,0.787973681812184079
0.614000000000000434,0.781372750745652600
0.615000000000000435,0.774790606861779141
0.616000000000000436,0.768228100689217985
0.617000000000000437,0.761686059156617135
0.618000000000000438,0.755165285932015706
