# ZnO1m210NBDry_VALSCA-AC
# h[nm],U(h)[kJ/mol]
0.200000000000000011,89.411579368757884367
0.201000000000000012,87.542367827385305645
0.202000000000000013,86.040921270514161279
0.203000000000000014,84.727337699034663387
0.204000000000000015,83.492867602423089579
0.205000000000000016,82.276709324961899483
0.206000000000000016,81.049302761942186635
0.207000000000000017,79.800510111328861740
0.208000000000000018,78.531434213284427415
0.209000000000000019,77.248912071423603720
0.210000000000000020,75.961947808254947745
0.211000000000000021,74.679527342619280716
0.212000000000000022,73.409396129235517492
0.213000000000000023,72.157489230810995195
0.214000000000000024,70.927786188804560652
0.215000000000000024,69.722426790483581271
0.216000000000000025,68.541972067282785019
0.217000000000000026,67.385731052280817721
0.218000000000000027,66.252100652385109925
0.219000000000000028,65.138885587698638346
0.220000000000000029,64.043579408239224904
0.221000000000000030,62.963597450925547605
0.222000000000000031,61.896459293937184043
0.223000000000000032,60.839922616854245518
0.224000000000000032,59.792073014786282670
0.225000000000000033,58.751375727989078257
0.226000000000000034,57.716695804405503623
0.227000000000000035,56.687293189234210899
0.228000000000000036,55.662798839864173317
0.229000000000000037,54.643177347840740765
0.230000000000000038,53.628680820811304386
0.231000000000000039,52.619798012914273500
0.232000000000000040,51.617201943439077638
0.233000000000000040,50.621698543985772289
0.234000000000000041,49.634178243412556242
0.235000000000000042,48.655571847385232331
0.236000000000000043,47.686811598227635045
0.237000000000000044,46.728797909182461012
0.238000000000000045,45.782371950223442525
0.239000000000000046,44.848294013466933450
0.240000000000000047,43.927227397307206047
0.241000000000000048,43.019727411637752823
0.242000000000000048,42.126235014024345560
0.243000000000000049,41.247074530996485464
0.244000000000000050,40.382454892853175465
0.245000000000000051,39.532473808355703682
0.246000000000000052,38.697124321978250805
0.247000000000000053,37.876303226299583571
0.248000000000000054,37.069820841658120969
0.249000000000000055,36.277411721022751578
0.250000000000000056,35.498745887418202472
0.251000000000000056,34.733440261988782538
0.252000000000000057,33.981069991159628785
0.253000000000000058,33.241179430041547960
0.254000000000000059,32.513292585250148647
0.255000000000000060,31.796922862994545511
0.256000000000000061,31.091582007194677573
0.257000000000000062,30.396788147271610825
0.258000000000000063,29.712072906035977837
0.259000000000000064,29.036987544818440909
0.260000000000000064,28.371108145776208431
0.261000000000000065,27.714039850376508412
0.262000000000000066,27.065420188651245326
0.263000000000000067,26.424921546224702240
0.264000000000000068,25.792252825635909375
0.265000000000000069,25.167160365419054102
0.266000000000000070,24.549428185074585684
0.267000000000000071,23.938877626755346029
0.268000000000000071,23.335366465490711363
0.269000000000000072,22.738787559341233191
0.270000000000000073,22.149067109261419972
0.271000000000000074,21.566162595875244534
0.272000000000000075,20.990060457037586161
0.273000000000000076,20.420773566148554323
0.274000000000000077,19.858338566863768193
0.275000000000000078,19.302813115243804276
0.276000000000000079,18.754273075629175338
0.277000000000000079,18.212809711715408412
0.278000000000000080,17.678526909524389765
0.279000000000000081,17.151538464290517538
0.280000000000000082,16.631965458764113919
0.281000000000000083,16.119933756122861723
0.282000000000000084,15.615571626610648792
0.283000000000000085,15.119007523216708933
0.284000000000000086,14.630368018182135614
0.285000000000000087,14.149775908888496900
0.286000000000000087,13.677348498744141381
0.287000000000000088,13.213196056040493076
0.288000000000000089,12.757420451395175220
0.289000000000000090,12.310113972323888376
0.290000000000000091,11.871358311677447261
0.291000000000000092,11.441223725128972788
0.292000000000000093,11.019768351586881394
0.293000000000000094,10.607037689323814078
0.294000000000000095,10.203064219734661933
0.295000000000000095,9.807867169950485575
0.296000000000000096,9.421452405024211885
0.297000000000000097,9.043812440049746826
0.298000000000000098,8.674926562364150939
0.299000000000000099,8.314761053895775689
0.300000000000000100,7.963269503746078115
0.301000000000000101,7.620393201213087941
0.302000000000000102,7.286061599669745092
0.303000000000000103,6.960192841984077283
0.304000000000000103,6.642694338503519980
0.305000000000000104,6.333463389007474298
0.306000000000000105,6.032387840453939276
0.307000000000000106,5.739346772797206064
0.308000000000000107,5.454211205626455339
0.309000000000000108,5.176844818863040487
0.310000000000000109,4.907104681249501610
0.311000000000000110,4.644841980862823405
0.312000000000000111,4.389902752379244433
0.313000000000000111,4.142128596308547905
0.314000000000000112,3.901357385894211660
0.315000000000000113,3.667423957841862148
0.316000000000000114,3.440160783488083407
0.317000000000000115,3.219398617453583800
0.318000000000000116,3.004967121236404193
0.319000000000000117,2.796695459592101862
0.320000000000000118,2.594412867916686238
0.321000000000000119,2.397949189194462427
0.322000000000000119,2.207135379396625297
0.323000000000000120,2.021803980517064225
0.324000000000000121,1.841789560709153006
0.325000000000000122,1.666929121242641809
0.326000000000000123,1.497062470232688458
0.327000000000000124,1.332032563304309303
0.328000000000000125,1.171685811546009148
0.329000000000000126,1.015872357277026294
0.330000000000000127,0.864446318303465189
0.331000000000000127,0.717266001471799419
0.332000000000000128,0.574194086443513108
0.333000000000000129,0.435097780713812665
0.334000000000000130,0.299848946981133790
0.335000000000000131,0.168324204043111797
0.336000000000000132,0.040405002451017281
0.337000000000000133,-0.084022323802418558
0.338000000000000134,-0.205066528254881419
0.339000000000000135,-0.322831444277472901
0.340000000000000135,-0.437415997369224319
0.341000000000000136,-0.548914236099981023
0.342000000000000137,-0.657415380364046675
0.343000000000000138,-0.763003885618719124
0.344000000000000139,-0.865759521800819498
0.345000000000000140,-0.965757465638067969
0.346000000000000141,-1.063068405101542435
0.347000000000000142,-1.157758654778653806
0.348000000000000143,-1.249890280983360968
0.349000000000000143,-1.339521235460373383
0.350000000000000144,-1.426705496583080102
0.351000000000000145,-1.511493216989660215
0.352000000000000146,-1.593930876648684158
0.353000000000000147,-1.674061440393061373
0.354000000000000148,-1.751924519010107373
0.355000000000000149,-1.827556533024616625
0.356000000000000150,-1.900990878361254133
0.357000000000000151,-1.972258093121951550
0.358000000000000151,-2.041386024763016671
0.359000000000000152,-2.108399997005034887
0.360000000000000153,-2.173322975856589068
0.361000000000000154,-2.236175734179193686
0.362000000000000155,-2.296977014266951223
0.363000000000000156,-2.355743687958617105
0.364000000000000157,-2.412490913842880502
0.365000000000000158,-2.467232291159707991
0.366000000000000159,-2.519980010040234752
0.367000000000000159,-2.570744997766897910
0.368000000000000160,-2.619537060772064940
0.369000000000000161,-2.666365022129062901
0.370000000000000162,-2.711236854323068268
0.371000000000000163,-2.754159807121366210
0.372000000000000164,-2.795140530392791867
0.373000000000000165,-2.834185191754804656
0.374000000000000166,-2.871299588953747595
0.375000000000000167,-2.906489256908821428
0.376000000000000167,-2.939759569374472470
0.377000000000000168,-2.971115835197678301
0.378000000000000169,-3.000563389167255846
0.379000000000000170,-3.028107677471504555
0.380000000000000171,-3.053754337797939478
0.381000000000000172,-3.077509274125129757
0.382000000000000173,-3.099378726271415196
0.383000000000000174,-3.119369334278864869
0.384000000000000175,-3.137488197722959171
0.385000000000000175,-3.153742930049461712
0.386000000000000176,-3.168141708050071337
0.387000000000000177,-3.180693316596729048
0.388000000000000178,-3.191407188762690250
0.389000000000000179,-3.200293441464697075
0.390000000000000180,-3.207362906766697996
0.391000000000000181,-3.212627158990248866
0.392000000000000182,-3.216098537780811117
0.393000000000000183,-3.217790167282430502
0.394000000000000183,-3.217715971575750622
0.395000000000000184,-3.215890686536192700
0.396000000000000185,-3.212329868270221489
0.397000000000000186,-3.207049898288296674
0.398000000000000187,-3.200067985573055385
0.399000000000000188,-3.191402165700869098
0.400000000000000189,-3.181071297173845291
0.401000000000000190,-3.169095055118105186
0.402000000000000191,-3.155493922502317528
0.403000000000000191,-3.140289179028274535
0.404000000000000192,-3.123502887843014886
0.405000000000000193,-3.105157880219025834
0.406000000000000194,-3.085277738346270393
0.407000000000000195,-3.063886776376427257
0.408000000000000196,-3.041010019856272173
0.409000000000000197,-3.016673183683593162
0.410000000000000198,-2.990902648715318968
0.411000000000000199,-2.963725437153393649
0.412000000000000199,-2.935169186830274946
0.413000000000000200,-2.905262124511567734
0.414000000000000201,-2.874033038329373291
0.415000000000000202,-2.841511249455492383
0.416000000000000203,-2.807726583119677599
0.417000000000000204,-2.772709339073590851
0.418000000000000205,-2.736490261597099405
0.419000000000000206,-2.699100509139207293
0.420000000000000207,-2.660571623681594389
0.421000000000000207,-2.620935499908847444
0.422000000000000208,-2.580224354264868847
0.423000000000000209,-2.538470693971383252
0.424000000000000210,-2.495707286079976939
0.425000000000000211,-2.451967126625345994
0.426000000000000212,-2.407283409943620889
0.427000000000000213,-2.361689498215537864
0.428000000000000214,-2.315218891290848902
0.429000000000000214,-2.267905196846412785
0.430000000000000215,-2.219782100927043977
0.431000000000000216,-2.170883338914773475
0.432000000000000217,-2.121242666968606194
0.433000000000000218,-2.070893833973873832
0.434000000000000219,-2.019870554036961252
0.435000000000000220,-1.968206479558245237
0.436000000000000221,-1.915935174913041550
0.437000000000000222,-1.863090090767617113
0.438000000000000222,-1.809704539054588723
0.439000000000000223,-1.755811668629345679
0.440000000000000224,-1.701444441626728032
0.441000000000000225,-1.646635610534592287
0.442000000000000226,-1.591417695998931903
0.443000000000000227,-1.535822965372573234
0.444000000000000228,-1.479883412017783728
0.445000000000000229,-1.423630735370856826
0.446000000000000230,-1.367096321774901924
0.447000000000000230,-1.310311226085400182
0.448000000000000231,-1.253306154051160748
0.449000000000000232,-1.196111445471765844
0.450000000000000233,-1.138757058131273148
0.451000000000000234,-1.081272552506068685
0.452000000000000235,-1.023687077243919941
0.453000000000000236,-0.966029355409515511
0.454000000000000237,-0.908327671491042543
0.455000000000000238,-0.850609859160831538
0.456000000000000238,-0.792903289782399878
0.457000000000000239,-0.735234861654998184
0.458000000000000240,-0.677630989986133692
0.459000000000000241,-0.620117597581360314
0.460000000000000242,-0.562720106240365281
0.461000000000000243,-0.505463428847130913
0.462000000000000244,-0.448371962141866476
0.463000000000000245,-0.391469580161271369
0.464000000000000246,-0.334779628333745360
0.465000000000000246,-0.278324918215255512
0.466000000000000247,-0.222127722851333254
0.467000000000000248,-0.166209772750336271
0.468000000000000249,-0.110592252452771642
0.469000000000000250,-0.055295797681130285
0.470000000000000251,-0.000340493054585100
0.471000000000000252,0.054254129647438455
0.472000000000000253,0.108469092688750907
0.473000000000000254,0.162285973063244632
0.474000000000000254,0.215686902681239856
0.475000000000000255,0.268654568071688915
0.476000000000000256,0.321172209616527427
0.477000000000000257,0.373223620333415773
0.478000000000000258,0.424793144223237273
0.479000000000000259,0.475865674198413302
0.480000000000000260,0.526426649608212283
0.481000000000000261,0.576462053377053474
0.482000000000000262,0.625958408771571606
0.483000000000000262,0.674902775812221023
0.484000000000000263,0.723282747344944466
0.485000000000000264,0.771086444788197767
0.486000000000000265,0.818302513570536072
0.487000000000000266,0.864920118273660998
0.488000000000000267,0.910928937495638857
0.489000000000000268,0.956319158448710183
0.490000000000000269,1.001081471306001003
0.491000000000000270,1.045207063310935158
0.492000000000000270,1.088687612663199022
0.493000000000000271,1.131515282194516248
0.494000000000000272,1.173682712847433862
0.495000000000000273,1.215183016969988206
0.496000000000000274,1.256009771438660216
0.497000000000000275,1.296157010622026817
0.498000000000000276,1.335619219196930718
0.499000000000000277,1.374391324828847072
0.500000000000000222,1.412468690727834764
0.501000000000000334,1.449847108091000703
0.502000000000000224,1.486522788442246945
0.503000000000000336,1.522492355879771608
0.504000000000000226,1.557752839241255627
0.505000000000000338,1.592301664196786204
0.506000000000000227,1.626136645278681625
0.507000000000000339,1.659255977857752473
0.508000000000000229,1.691658230074556402
0.509000000000000341,1.723342334734513148
0.510000000000000231,1.754307581174863184
0.511000000000000343,1.784553607111776241
0.512000000000000233,1.814080390475018678
0.513000000000000345,1.842888241237824021
0.514000000000000234,1.870977793248833176
0.515000000000000346,1.898349996073263712
0.516000000000000236,1.925006106849551646
0.517000000000000348,1.950947682168000963
0.518000000000000238,1.976176569977314612
0.519000000000000350,2.000694901524888714
0.520000000000000240,2.024505083336272104
0.521000000000000352,2.047609789239111855
0.522000000000000242,2.070011952436556779
0.523000000000000353,2.091714757634920652
0.524000000000000243,2.112721633230076002
0.525000000000000355,2.133036243556931222
0.526000000000000245,2.152662481205987355
0.527000000000000357,2.171604459410924726
0.528000000000000247,2.189866504510713519
0.529000000000000359,2.207453148489817440
0.530000000000000249,2.224369121599566235
0.531000000000000361,2.240619345063819434
0.532000000000000250,2.256208923871665384
0.533000000000000362,2.271143139659857368
0.534000000000000252,2.285427443687367166
0.535000000000000364,2.299067449904388383
0.536000000000000254,2.312068928117816835
0.537000000000000366,2.324437797255249016
0.538000000000000256,2.336180118729123567
0.539000000000000368,2.347302089902763456
0.540000000000000258,2.357810037659646252
0.541000000000000369,2.367710412077339122
0.542000000000000259,2.377009780207159917
0.543000000000000371,2.385714819960679911
0.544000000000000261,2.393832314103926162
0.545000000000000373,2.401369144360074426
0.546000000000000263,2.408332285621276547
0.547000000000000375,2.414728800270186770
0.548000000000000265,2.420565832611537793
0.549000000000000377,2.425850603414170692
0.550000000000000266,2.430590404563656826
0.551000000000000378,2.434792593825634732
0.552000000000000268,2.438464589719900211
0.553000000000000380,2.441613866505133679
0.554000000000000270,2.444247949274102716
0.555000000000000382,2.446374409159112417
0.556000000000000272,2.448000858647318534
0.557000000000000384,2.449134947005560115
0.558000000000000274,2.449784355814145886
0.559000000000000385,2.449956794609126742
0.560000000000000275,2.449659996632367331
0.561000000000000387,2.448901714688754172
0.562000000000000277,2.447689717109839513
0.563000000000000389,2.446031783823046535
0.564000000000000279,2.443935702525656950
0.565000000000000391,2.441409264962620007
0.566000000000000281,2.438460263307305809
0.567000000000000393,2.435096486644126479
0.568000000000000282,2.431325717552054400
0.569000000000000394,2.427155728787933064
0.570000000000000284,2.422594280068504968
0.571000000000000396,2.417649114949953937
0.572000000000000286,2.412327957803838352
0.573000000000000398,2.406638510888201132
0.574000000000000288,2.400588451512629451
0.575000000000000400,2.394185429295945688
0.576000000000000290,2.387437063515390978
0.577000000000000401,2.380350940545833627
0.578000000000000291,2.372934611387821580
0.579000000000000403,2.365195589283072053
0.580000000000000293,2.357141347416090493
0.581000000000000405,2.348779316700491115
0.582000000000000295,2.340116883648759138
0.583000000000000407,2.331161388323940820
0.584000000000000297,2.321920122371991191
0.585000000000000409,2.312400327133266487
0.586000000000000298,2.302609191831896496
0.587000000000000410,2.292553851841453660
0.588000000000000300,2.282241387025698565
0.589000000000000412,2.271678820152832401
0.590000000000000302,2.260873115381976550
0.591000000000000414,2.249831176820314305
0.592000000000000304,2.238559847149691251
0.593000000000000416,2.227065906321060051
0.594000000000000306,2.215356070315525283
0.595000000000000417,2.203436989970489090
0.596000000000000307,2.191315249869616011
0.597000000000000419,2.178997367295097298
0.598000000000000309,2.166489791240953089
0.599000000000000421,2.153798901485978412
0.600000000000000311,2.140931007724938606
0.601000000000000423,2.127892348756684537
0.602000000000000313,2.114689091727897097
0.603000000000000425,2.101327331431057210
0.604000000000000314,2.087813089655387255
0.605000000000000426,2.074152314589418733
0.606000000000000316,2.060350880273955632
0.607000000000000428,2.046414586104071454
0.608000000000000318,2.032349156378973731
0.609000000000000430,2.018160239898385999
0.610000000000000320,2.003853409604333446
0.611000000000000432,1.989434162266957795
0.612000000000000322,1.974907918213347102
0.613000000000000433,1.960280021097990710
0.614000000000000323,1.945555737713859701
0.615000000000000435,1.930740257842813445
0.616000000000000325,1.915838694144325505
0.617000000000000437,1.900856082081269660
0.618000000000000327,1.885797379881764213
0.619000000000000439,1.870667468535914590
0.620000000000000329,1.855471151826432408
0.621000000000000441,1.840213156391994342
0.622000000000000330,1.824898131822416669
0.623000000000000442,1.809530650784465067
0.624000000000000332,1.794115209177482795
0.625000000000000444,1.778656226317627098
0.626000000000000334,1.763158045149968656
0.627000000000000446,1.747624932487284566
0.628000000000000336,1.732061079274787030
0.629000000000000448,1.716470600879715480
0.630000000000000338,1.700857537405027431
0.631000000000000449,1.685225854026137338
0.632000000000000339,1.669579441350029558
0.633000000000000451,1.653922115795683379
0.634000000000000341,1.638257619995171499
0.635000000000000453,1.622589623214402366
0.636000000000000343,1.606921721792954560
0.637000000000000455,1.591257439601931889
0.638000000000000345,1.575600228519338675
0.639000000000000457,1.559953468921997155
0.640000000000000346,1.544320470193453865
0.641000000000000458,1.528704471246984165
0.642000000000000348,1.513108641063159343
0.643000000000000460,1.497536079241104989
0.644000000000000350,1.481989816562976126
0.645000000000000462,1.466472815570769139
0.646000000000000352,1.450987971155061285
0.647000000000000464,1.435538111154821106
0.648000000000000353,1.420125996967887438
0.649000000000000465,1.404754324171314739
0.650000000000000355,1.389425723151211489
0.651000000000000467,1.374142759741303621
0.652000000000000357,1.358907935869820616
0.653000000000000469,1.343723690214059019
0.654000000000000359,1.328592398862179280
0.655000000000000471,1.313516375981650608
0.656000000000000361,1.298497874493908411
0.657000000000000473,1.283539086754667213
0.658000000000000362,1.268642145239495145
0.659000000000000474,1.253809123234126632
0.660000000000000364,1.239042035529109853
0.661000000000000476,1.224342839118293114
0.662000000000000366,1.209713433900833968
0.663000000000000478,1.195155663386181955
0.664000000000000368,1.180671315401785382
0.665000000000000480,1.166262122802985690
0.666000000000000369,1.151929764184868032
0.667000000000000481,1.137675864595578457
0.668000000000000371,1.123501996250867219
