# ZnO1m210NBDry_ILESCA-AC
# h[nm],U(h)[kJ/mol]
0.149999999999999994,130.294025387986380338
0.150999999999999995,129.884224093785547893
0.151999999999999996,128.663530394992363881
0.152999999999999997,127.262845333264891678
0.153999999999999998,125.905633970423224355
0.154999999999999999,124.631234933140419230
0.156000000000000000,123.411603702994355558
0.157000000000000001,122.206898443180804747
0.158000000000000002,120.987659208250917686
0.159000000000000002,119.740054490407942467
0.160000000000000003,118.463598315327004684
0.161000000000000004,117.166409272256800023
0.162000000000000005,115.860508389105049787
0.163000000000000006,114.558185453606782289
0.164000000000000007,113.269677592167724356
0.165000000000000008,112.002024956587845850
0.166000000000000009,110.758822075792821238
0.167000000000000010,109.540561853437452555
0.168000000000000010,108.345307396886099127
0.169000000000000011,107.169487393783157358
0.170000000000000012,106.008673338588593538
0.171000000000000013,104.858251727419926169
0.172000000000000014,103.713947662329047716
0.173000000000000015,102.572187772510531545
0.174000000000000016,101.430311278432824906
0.175000000000000017,100.286650373759442800
0.176000000000000018,99.140506963060914813
0.177000000000000018,97.992054069338024647
0.178000000000000019,96.842188501857407346
0.179000000000000020,95.692357897678760992
0.180000000000000021,94.544380944368199948
0.181000000000000022,93.400275104896891776
0.182000000000000023,92.262101922376047014
0.183000000000000024,91.131836232602935866
0.184000000000000025,90.011262479212675203
0.185000000000000026,88.901898842799440104
0.186000000000000026,87.804948035780654436
0.187000000000000027,86.721272317302066313
0.188000000000000028,85.651389466767639647
0.189000000000000029,84.595486033791900127
0.190000000000000030,83.553444071350071454
0.191000000000000031,82.524877679222726101
0.192000000000000032,81.509175967646598338
0.193000000000000033,80.505549438302097087
0.194000000000000034,79.513077224156347711
0.195000000000000034,78.530753094256965596
0.196000000000000035,77.557528586549523197
0.197000000000000036,76.592352061375621020
0.198000000000000037,75.634202857361117367
0.199000000000000038,74.682120072216179096
0.200000000000000039,73.735225780085869474
0.201000000000000040,72.792742734278846228
0.202000000000000041,71.854006791581809921
0.203000000000000042,70.918474435659135224
0.204000000000000042,69.985725876967777026
0.205000000000000043,69.055464270450499953
0.206000000000000044,68.127511625433868403
0.207000000000000045,67.201801989982740793
0.208000000000000046,66.278372479492048797
0.209000000000000047,65.357352691152541979
0.210000000000000048,64.438953006246350697
0.211000000000000049,63.523452234621728962
0.212000000000000050,62.611185003241175195
0.213000000000000050,61.702529235966139254
0.214000000000000051,60.797894016814936435
0.215000000000000052,59.897708075460343480
0.216000000000000053,59.002409082969428766
0.217000000000000054,58.112433898644198393
0.218000000000000055,57.228209865908603149
0.219000000000000056,56.350147216879555856
0.220000000000000057,55.478632611709670641
0.221000000000000058,54.614023810008859527
0.222000000000000058,53.756645447498428325
0.223000000000000059,52.906785871307555169
0.224000000000000060,52.064694971685504754
0.225000000000000061,51.230582936030451435
0.226000000000000062,50.404619842655534967
0.227000000000000063,49.586936006238786945
0.228000000000000064,48.777622984052115385
0.229000000000000065,47.976735151457766904
0.230000000000000066,47.184291756445034594
0.231000000000000066,46.400279365814192545
0.232000000000000067,45.624654619695604651
0.233000000000000068,44.857347216131266521
0.234000000000000069,44.098263053199509898
0.235000000000000070,43.347287462400267088
0.236000000000000071,42.604288473552522021
0.237000000000000072,41.869120058112564209
0.238000000000000073,41.141625304467780211
0.239000000000000073,40.421639485275719039
0.240000000000000074,39.708992983206712779
0.241000000000000075,39.003514047439622914
0.242000000000000076,38.305031358894034099
0.243000000000000077,37.613376387418107072
0.244000000000000078,36.928385528964057016
0.245000000000000079,36.249902015153402601
0.246000000000000080,35.577777591561066117
0.247000000000000081,34.911873964528901126
0.248000000000000081,34.252064019368376080
0.249000000000000082,33.598232815444411870
0.250000000000000111,32.950278365863475472
0.251000000000000112,32.308112211347435050
0.252000000000000113,31.671659799379540345
0.253000000000000114,31.040860680893253232
0.254000000000000115,30.415668537659378501
0.255000000000000115,29.796051054145653580
0.256000000000000116,29.181989647999138526
0.257000000000000117,28.573479073464220335
0.258000000000000118,27.970526912024247679
0.259000000000000119,27.373152964365299766
0.260000000000000120,26.781388557432382669
0.261000000000000121,26.195275779902043922
0.262000000000000122,25.614866658851525472
0.263000000000000123,25.040222289782256837
0.264000000000000123,24.471411931471870105
0.265000000000000124,23.908512076398970692
0.266000000000000125,23.351605506723668526
0.267000000000000126,22.800780345025781770
0.268000000000000127,22.256129108212608259
0.269000000000000128,21.717747772220519664
0.270000000000000129,21.185734854355025902
0.271000000000000130,20.660190519351182559
0.272000000000000131,20.141215714496393474
0.273000000000000131,19.628911338444240187
0.274000000000000132,19.123377447666307205
0.275000000000000133,18.624712503841546862
0.276000000000000134,18.133012664871536401
0.277000000000000135,17.648371121638085413
0.278000000000000136,17.170877482085764143
0.279000000000000137,16.700617203718639558
0.280000000000000138,16.237671075147385835
0.281000000000000139,15.782114746908098013
0.282000000000000139,15.334018311399415069
0.283000000000000140,14.893445931446416708
0.284000000000000141,14.460455516699056489
0.285000000000000142,14.035098446806562933
0.286000000000000143,13.617419340076683199
0.287000000000000144,13.207455866128167798
0.288000000000000145,12.805238600873357413
0.289000000000000146,12.410790922026125216
0.290000000000000147,12.024128943212861742
0.291000000000000147,11.645261484673328667
0.292000000000000148,11.274190078467732690
0.293000000000000149,10.910909006058483683
0.294000000000000150,10.555405366104674059
0.295000000000000151,10.207659170294949291
0.296000000000000152,9.867643465046926465
0.297000000000000153,9.535324476918377812
0.298000000000000154,9.210661779603885435
0.299000000000000155,8.893608480430792440
0.300000000000000155,8.584111424317494965
0.301000000000000156,8.282111413214694906
0.302000000000000157,7.987543439114245025
0.303000000000000158,7.700336928781217338
0.304000000000000159,7.420415998439155558
0.305000000000000160,7.147699716717892393
0.306000000000000161,6.882102374254830401
0.307000000000000162,6.623533758424606788
0.308000000000000163,6.371899431757399590
0.309000000000000163,6.127101012692204307
0.310000000000000164,5.889036457397397228
0.311000000000000165,5.657600341476840100
0.312000000000000166,5.432684140464440148
0.313000000000000167,5.214176508093609996
0.314000000000000168,5.001963551410085529
0.315000000000000169,4.795929101876060585
0.316000000000000170,4.595954981691370733
0.317000000000000171,4.401921264632507658
0.318000000000000171,4.213706530782538984
0.319000000000000172,4.031188114594475458
0.320000000000000173,3.854242345797344260
0.321000000000000174,3.682744782717693788
0.322000000000000175,3.516570437649566117
0.323000000000000176,3.355593993963398081
0.324000000000000177,3.199690014698259422
0.325000000000000178,3.048733142433046162
0.326000000000000179,2.902598290279692073
0.327000000000000179,2.761160823886581905
0.328000000000000180,2.624296734381880380
0.329000000000000181,2.491882802225114713
0.330000000000000182,2.363796751971477317
0.331000000000000183,2.239917397985945691
0.332000000000000184,2.120124781174930639
0.333000000000000185,2.004300296830694439
0.334000000000000186,1.892326813708802735
0.335000000000000187,1.784088784481803414
0.336000000000000187,1.679472347732371418
0.337000000000000188,1.578365421667824675
0.338000000000000189,1.480657789753377029
0.339000000000000190,1.386241178476014246
0.340000000000000191,1.295009327462915083
0.341000000000000192,1.206858052188720887
0.342000000000000193,1.121685299514689094
0.343000000000000194,1.039391196309909393
0.344000000000000195,0.959878091410723444
0.345000000000000195,0.883050591178277111
0.346000000000000196,0.808815588917833672
0.347000000000000197,0.737082288424869114
0.348000000000000198,0.667762221924067312
0.349000000000000199,0.600769262667017911
0.350000000000000200,0.536019632453304640
0.351000000000000201,0.473431904337788034
0.352000000000000202,0.412927000784165277
0.353000000000000203,0.354428187521461324
0.354000000000000203,0.297861063356067046
0.355000000000000204,0.243153546187608954
0.356000000000000205,0.190235855471564547
0.357000000000000206,0.139040491366208663
0.358000000000000207,0.089502210795765078
0.359000000000000208,0.041558000655220084
0.360000000000000209,-0.004852951624142321
0.361000000000000210,-0.049789289935915804
0.362000000000000210,-0.093307523581047574
0.363000000000000211,-0.135462063372991548
0.364000000000000212,-0.176305259574199791
0.365000000000000213,-0.215887441479731018
0.366000000000000214,-0.254256958471050454
0.367000000000000215,-0.291460222370353628
0.368000000000000216,-0.327541750933085740
0.369000000000000217,-0.362544212323405723
0.370000000000000218,-0.396508470424753068
0.371000000000000218,-0.429473630844527499
0.372000000000000219,-0.461477087479152281
0.373000000000000220,-0.492554569512572371
0.374000000000000221,-0.522740188728083921
0.375000000000000222,-0.552066487019862717
0.376000000000000223,-0.580564483997562553
0.377000000000000224,-0.608263724583100185
0.378000000000000225,-0.635192326505392701
0.379000000000000226,-0.661377027604625578
0.380000000000000226,-0.686843232863668107
0.381000000000000227,-0.711615061089651113
0.382000000000000228,-0.735715391174559974
0.383000000000000229,-0.759165907868726508
0.384000000000000230,-0.781987147006352634
0.385000000000000231,-0.804198540127186612
0.386000000000000232,-0.825818458443024817
0.387000000000000233,-0.846864256102556334
0.388000000000000234,-0.867352312712082019
0.389000000000000234,-0.887298075074189008
0.390000000000000235,-0.906716098110177837
0.391000000000000236,-0.925620084935993348
0.392000000000000237,-0.944022926065023915
0.393000000000000238,-0.961936737714581880
0.394000000000000239,-0.979372899196134683
0.395000000000000240,-0.996342089372550865
0.396000000000000241,-1.012854322168520227
0.397000000000000242,-1.028918981123053467
0.398000000000000242,-1.044544852975750837
0.399000000000000243,-1.059740160280791654
0.400000000000000244,-1.074512593045137354
0.401000000000000245,-1.088869339389517465
0.402000000000000246,-1.102817115232738177
0.403000000000000247,-1.116362193002006675
0.404000000000000248,-1.129510429373468128
0.405000000000000249,-1.142267292049020222
0.406000000000000250,-1.154637885576843992
0.407000000000000250,-1.166626976224681478
0.408000000000000251,-1.178239015916018761
0.409000000000000252,-1.189478165240672736
0.410000000000000253,-1.200348315552330014
0.411000000000000254,-1.210853110166548507
0.412000000000000255,-1.220995964673700529
0.413000000000000256,-1.230780086382180505
0.414000000000000257,-1.240208492907779014
0.415000000000000258,-1.249284029926040374
0.416000000000000258,-1.258009388104678106
0.417000000000000259,-1.266387119233971736
0.418000000000000260,-1.274419651573185153
0.419000000000000261,-1.282109304431670482
0.420000000000000262,-1.289458302003451795
0.421000000000000263,-1.296468786474487711
0.422000000000000264,-1.303142830421835097
0.423000000000000265,-1.309482448524246667
0.424000000000000266,-1.315489608603800376
0.425000000000000266,-1.321166242018035231
0.426000000000000267,-1.326514253422403922
0.427000000000000268,-1.331535529922502903
0.428000000000000269,-1.336231949635662941
0.429000000000000270,-1.340605389681395199
0.430000000000000271,-1.344657733619858631
0.431000000000000272,-1.348390878357673683
0.432000000000000273,-1.351806740539889695
0.433000000000000274,-1.354907262446960914
0.434000000000000274,-1.357694417415200361
0.435000000000000275,-1.360170214798986921
0.436000000000000276,-1.362336704492739248
0.437000000000000277,-1.364195981030332128
0.438000000000000278,-1.365750187279376693
0.439000000000000279,-1.367001517747449268
0.440000000000000280,-1.367952221517016786
0.441000000000000281,-1.368604604825446769
0.442000000000000282,-1.368961033306262287
0.443000000000000282,-1.369023933907204560
0.444000000000000283,-1.368795796500606343
0.445000000000000284,-1.368279175200932896
0.446000000000000285,-1.367476689404122370
0.447000000000000286,-1.366391024563052836
0.448000000000000287,-1.365024932712798789
0.449000000000000288,-1.363381232759349526
0.450000000000000289,-1.361462810544701085
0.451000000000000290,-1.359272618701137247
0.452000000000000290,-1.356813676307024652
0.453000000000000291,-1.354089068355979864
0.454000000000000292,-1.351101945051098818
0.455000000000000293,-1.347855520935352214
0.456000000000000294,-1.344353073869019255
0.457000000000000295,-1.340597943864639818
0.458000000000000296,-1.336593531789512124
0.459000000000000297,-1.332343297945560279
0.460000000000000298,-1.327850760535878472
0.461000000000000298,-1.323119494027072296
0.462000000000000299,-1.318153127416027859
0.463000000000000300,-1.312955342409470871
0.464000000000000301,-1.307529871524409693
0.465000000000000302,-1.301880496117099328
0.466000000000000303,-1.296011044347916696
0.467000000000000304,-1.289925389089287222
0.468000000000000305,-1.283627445783352750
0.469000000000000306,-1.277121170255881566
0.470000000000000306,-1.270410556492679310
0.471000000000000307,-1.263499634384241732
0.472000000000000308,-1.256392467444422234
0.473000000000000309,-1.249093150508394867
0.474000000000000310,-1.241605807415011364
0.475000000000000311,-1.233934588678377908
0.476000000000000312,-1.226083669153286593
0.477000000000000313,-1.218057245698795032
0.478000000000000314,-1.209859534844067275
0.479000000000000314,-1.201494770460427075
0.480000000000000315,-1.192967201443183800
0.481000000000000316,-1.184281089406811649
0.482000000000000317,-1.175440706396582602
0.483000000000000318,-1.166450332619838992
0.484000000000000319,-1.157314254199666603
0.485000000000000320,-1.148036760953676350
0.486000000000000321,-1.138622144200378106
0.487000000000000322,-1.129074694595480599
0.488000000000000322,-1.119398700000174163
0.489000000000000323,-1.109598443383561950
0.490000000000000324,-1.099678200760892510
0.491000000000000325,-1.089642239169386739
0.492000000000000326,-1.079494814683146897
0.493000000000000327,-1.069240170468610307
0.494000000000000328,-1.058882534881758986
0.495000000000000329,-1.048426119608280249
0.496000000000000330,-1.037875117847652851
0.497000000000000330,-1.027233702542177385
0.498000000000000331,-1.016506024651558704
0.499000000000000332,-1.005696211473972479
0.500000000000000333,-0.994808365014045237
0.501000000000000334,-0.983846560398249914
0.502000000000000335,-0.972814844338240059
0.503000000000000336,-0.961717233642315428
0.504000000000000337,-0.950557713775338931
0.505000000000000338,-0.939340237467211403
0.506000000000000338,-0.928068723370024329
0.507000000000000339,-0.916747054763883185
0.508000000000000340,-0.905379078311318253
0.509000000000000341,-0.893968602860275907
0.510000000000000342,-0.882519398295342761
0.511000000000000343,-0.871035194437140725
0.512000000000000344,-0.859519679989458552
0.513000000000000345,-0.847976501533888039
0.514000000000000346,-0.836409262571566336
0.515000000000000346,-0.824821522611519198
0.516000000000000347,-0.813216796305226808
0.517000000000000348,-0.801598552626891503
0.518000000000000349,-0.789970214098803858
0.519000000000000350,-0.778335156061329303
0.520000000000000351,-0.766696705986791516
0.521000000000000352,-0.755058142836775303
0.522000000000000353,-0.743422696462030186
0.523000000000000353,-0.731793547044391146
0.524000000000000354,-0.720173824580012223
0.525000000000000355,-0.708566608403137899
0.526000000000000356,-0.696974926749695300
0.527000000000000357,-0.685401756360013992
0.528000000000000358,-0.673850022119750314
0.529000000000000359,-0.662322596738462166
0.530000000000000360,-0.650822300464772185
0.531000000000000361,-0.639351900837571874
0.532000000000000361,-0.627914112472268360
0.533000000000000362,-0.616511596881386126
0.534000000000000363,-0.605146962328601545
0.535000000000000364,-0.593822763715474822
0.536000000000000365,-0.582541502499988040
0.537000000000000366,-0.571305626646110509
0.538000000000000367,-0.560117530603486791
0.539000000000000368,-0.548979555316555845
0.540000000000000369,-0.537893988262092337
0.541000000000000369,-0.526863063514548813
0.542000000000000370,-0.515888961838175675
0.543000000000000371,-0.504973810805277368
0.544000000000000372,-0.494119684939677284
0.545000000000000373,-0.483328605884665030
0.546000000000000374,-0.472602542594544428
0.547000000000000375,-0.461943411549069594
0.548000000000000376,-0.451353076989950086
0.549000000000000377,-0.440833351178640254
0.550000000000000377,-0.430385994674662264
0.551000000000000378,-0.420012716633684668
0.552000000000000379,-0.409715175124643227
0.553000000000000380,-0.399494977465127410
0.554000000000000381,-0.389353680574298422
0.555000000000000382,-0.379292791342696944
0.556000000000000383,-0.369313767018088490
0.557000000000000384,-0.359418015606837837
0.558000000000000385,-0.349606896289927527
0.559000000000000385,-0.339881719853114994
0.560000000000000386,-0.330243749130465225
0.561000000000000387,-0.320694199460652918
0.562000000000000388,-0.311234239155354586
0.563000000000000389,-0.301864989979183429
0.564000000000000390,-0.292587527640459977
0.565000000000000391,-0.283402882292280722
0.566000000000000392,-0.274312039043263900
0.567000000000000393,-0.265315938477440671
0.568000000000000393,-0.256415477182659501
0.569000000000000394,-0.247611508287002458
0.570000000000000395,-0.238904842002684525
0.571000000000000396,-0.230296246176847630
0.572000000000000397,-0.221786446848830698
0.573000000000000398,-0.213376128813304089
0.574000000000000399,-0.205065936188898318
0.575000000000000400,-0.196856472991736198
0.576000000000000401,-0.188748303713481252
0.577000000000000401,-0.180741953903466535
0.578000000000000402,-0.172837910754371077
0.579000000000000403,-0.165036623691086043
0.580000000000000404,-0.157338504962401371
0.581000000000000405,-0.149743930234960465
0.582000000000000406,-0.142253239189274377
0.583000000000000407,-0.134866736117251251
0.584000000000000408,-0.127584690520998245
0.585000000000000409,-0.120407337712461662
0.586000000000000409,-0.113334879413582917
0.587000000000000410,-0.106367484356665390
0.588000000000000411,-0.099505288884552498
0.589000000000000412,-0.092748397550417333
0.590000000000000413,-0.086096883716729258
0.591000000000000414,-0.079550790153206458
0.592000000000000415,-0.073110129633455909
0.593000000000000416,-0.066774885529964051
0.594000000000000417,-0.060545012407243012
0.595000000000000417,-0.054420436612904369
0.596000000000000418,-0.048401056866278401
0.597000000000000419,-0.042486744844545801
0.598000000000000420,-0.036677345765969240
0.599000000000000421,-0.030972678970139823
0.600000000000000422,-0.025372538494973472
0.601000000000000423,-0.019876693650257994
0.602000000000000424,-0.014484889587594928
0.603000000000000425,-0.009196847866530678
0.604000000000000425,-0.004012267016694948
0.605000000000000426,0.001069176904197122
0.606000000000000427,0.006047829756606604
0.607000000000000428,0.010924058769981504
0.608000000000000429,0.015698251998007340
0.609000000000000430,0.020370817778754692
0.610000000000000431,0.024942184199532737
0.611000000000000432,0.029412798566803722
0.612000000000000433,0.033783126881173152
0.613000000000000433,0.038053653317545531
0.614000000000000434,0.042224879710594618
