# ZnO1m210NBDry_CS-5993-AC
# h[nm],U(h)[kJ/mol]
0.200000000000000011,60.516752465262200644
0.201000000000000012,59.885240891231674709
0.202000000000000013,58.855826633659738434
0.203000000000000014,57.654282003840854998
0.204000000000000015,56.404587823598568264
0.205000000000000016,55.167738441198217458
0.206000000000000016,53.967630694100954258
0.207000000000000017,52.807894770645170013
0.208000000000000018,51.682467162118690851
0.209000000000000019,50.581919270995342686
0.210000000000000020,49.496973807375738375
0.211000000000000021,48.420214320047797685
0.212000000000000022,47.346682440432928729
0.213000000000000023,46.273833234516409618
0.214000000000000024,45.201159113562425773
0.215000000000000024,44.129680149231376163
0.216000000000000025,43.061420647644176540
0.217000000000000026,41.998938925672064215
0.218000000000000027,40.944942297530317887
0.219000000000000028,39.901997061738377681
0.220000000000000029,38.872329913301022941
0.221000000000000030,37.857709878472022069
0.222000000000000031,36.859396549965865120
0.223000000000000032,35.878139643612080079
0.224000000000000032,34.914215689594811920
0.225000000000000033,33.967489315454400867
0.226000000000000034,33.037488606560451387
0.227000000000000035,32.123486140311804604
0.228000000000000036,31.224579297068039807
0.229000000000000037,30.339765249089474253
0.230000000000000038,29.468007568980702615
0.231000000000000039,28.608292667997364589
0.232000000000000040,27.759675281609723640
0.233000000000000040,26.921312987785277926
0.234000000000000041,26.092490302244392808
0.235000000000000042,25.272633276577735728
0.236000000000000043,24.461315761313343842
0.237000000000000044,23.658258616381832695
0.238000000000000045,22.863323182460970173
0.239000000000000046,22.076500291397103126
0.240000000000000047,21.297896011722414755
0.241000000000000048,20.527715212217380270
0.242000000000000048,19.766243895351614412
0.243000000000000049,19.013831113328109268
0.244000000000000050,18.270871139990379817
0.245000000000000051,17.537786437605806356
0.246000000000000052,16.815011832406447922
0.247000000000000053,16.102980199252911575
0.248000000000000054,15.402109855307752895
0.249000000000000055,14.712793775728638224
0.250000000000000056,14.035390671047995426
0.251000000000000056,13.370217905557904459
0.252000000000000057,12.717546187809327662
0.253000000000000058,12.077595927198286674
0.254000000000000059,11.450535123365039425
0.255000000000000060,10.836478636549838228
0.256000000000000061,10.235488675907955525
0.257000000000000062,9.647576337912401101
0.258000000000000063,9.072704027260872550
0.259000000000000064,8.510788597140258815
0.260000000000000064,7.961705053371875174
0.261000000000000065,7.425290677054368516
0.262000000000000066,6.901349432127948269
0.263000000000000067,6.389656537200637310
0.264000000000000068,5.889963094488683382
0.265000000000000069,5.402000682406372434
0.266000000000000070,4.925485831851700524
0.267000000000000071,4.460124319299008100
0.268000000000000071,4.005615222221295291
0.269000000000000072,3.561654693967481133
0.270000000000000073,3.127939425908666582
0.271000000000000074,2.704169774376013358
0.272000000000000075,2.290052538608329691
0.273000000000000076,1.885303383606473870
0.274000000000000077,1.489648908470031952
0.275000000000000078,1.102828366505450131
0.276000000000000079,0.724595048191766677
0.277000000000000079,0.354717342026694638
0.278000000000000080,-0.007020508580843732
0.279000000000000081,-0.360817931790961832
0.280000000000000082,-0.706857814845408994
0.281000000000000083,-1.045306529099934600
0.282000000000000084,-1.376314168408107275
0.283000000000000085,-1.700014976483516849
0.284000000000000086,-2.016527939050321905
0.285000000000000087,-2.325957517101186145
0.286000000000000087,-2.628394498364206910
0.287000000000000088,-2.923916945082980501
0.288000000000000089,-3.212591217391024490
0.289000000000000090,-3.494473052871823082
0.290000000000000091,-3.769608684299744716
0.291000000000000092,-4.038035979024414246
0.292000000000000093,-4.299785584960163831
0.293000000000000094,-4.554882069649964116
0.294000000000000095,-4.803345040367148044
0.295000000000000095,-5.045190234681610875
0.296000000000000096,-5.280430572333266070
0.297000000000000097,-5.509077160614694435
0.298000000000000098,-5.731140246755482615
0.299000000000000099,-5.946630112017473380
0.300000000000000100,-6.155557903346060122
0.301000000000000101,-6.357936399476501244
0.302000000000000102,-6.553780709361578083
0.303000000000000103,-6.743108901670524347
0.304000000000000103,-6.925942564906077514
0.305000000000000104,-7.102307298401624891
0.306000000000000105,-7.272233135093948420
0.307000000000000106,-7.435754897522810047
0.308000000000000107,-7.592912488990362974
0.309000000000000108,-7.743751122224361794
0.310000000000000109,-7.888321488234320888
0.311000000000000110,-8.026679868332383450
0.312000000000000111,-8.158888192517062876
0.313000000000000111,-8.285014047590255615
0.314000000000000112,-8.405130638502821938
0.315000000000000113,-8.519316706504399761
0.316000000000000114,-8.627656407714214382
0.317000000000000115,-8.730239155734913936
0.318000000000000116,-8.827159431905647224
0.319000000000000117,-8.918516566736823137
0.320000000000000118,-9.004414495991211353
0.321000000000000119,-9.084961494777965996
0.322000000000000119,-9.160269892909777667
0.323000000000000120,-9.230455774643223421
0.324000000000000121,-9.295638665780012744
0.325000000000000122,-9.355941210955052156
0.326000000000000123,-9.411488843778577973
0.327000000000000124,-9.462409452335734272
0.328000000000000125,-9.508833042380288703
0.329000000000000126,-9.550891400390568720
0.330000000000000127,-9.588717758487391052
0.331000000000000127,-9.622446463046811616
0.332000000000000128,-9.652212648675853046
0.333000000000000129,-9.678151919058279873
0.334000000000000130,-9.700400036020591088
0.335000000000000131,-9.719092618016935248
0.336000000000000132,-9.734364849085045179
0.337000000000000133,-9.746351199185609104
0.338000000000000134,-9.755185156703792160
0.339000000000000135,-9.760998973764767328
0.340000000000000135,-9.763923424895454062
0.341000000000000136,-9.764087579451807386
0.342000000000000137,-9.761618588125495322
0.343000000000000138,-9.756641483745410071
0.344000000000000139,-9.749278996498189187
0.345000000000000140,-9.739651383607725421
0.346000000000000141,-9.727876273436072196
0.347000000000000142,-9.714068523897696039
0.348000000000000143,-9.698340095014772899
0.349000000000000143,-9.680799935383372912
0.350000000000000144,-9.661553882268526294
0.351000000000000145,-9.640704575000185628
0.352000000000000146,-9.618351381301657455
0.353000000000000147,-9.594590336146605836
0.354000000000000148,-9.569514092710807773
0.355000000000000149,-9.543211884958855862
0.356000000000000150,-9.515769501385113571
0.357000000000000151,-9.487269269411010342
0.358000000000000151,-9.457790049927542242
0.359000000000000152,-9.427407241462089971
0.360000000000000153,-9.396192793442576630
0.361000000000000154,-9.364215228028172078
0.362000000000000155,-9.331539669975629891
0.363000000000000156,-9.298227884012042921
0.364000000000000157,-9.264338319189056037
0.365000000000000158,-9.229926159700221788
0.366000000000000159,-9.195043381650922498
0.367000000000000159,-9.159738815280551449
0.368000000000000160,-9.124058212147780011
0.369000000000000161,-9.088044316802344369
0.370000000000000162,-9.051736942480554049
0.371000000000000163,-9.015173050376416697
0.372000000000000164,-8.978386832055585742
0.373000000000000165,-8.941409794595708505
0.374000000000000166,-8.904270848053155163
0.375000000000000167,-8.866996394873256193
0.376000000000000167,-8.829610420878575283
0.377000000000000168,-8.792134587487197450
0.378000000000000169,-8.754588324830601564
0.379000000000000170,-8.716988925458469595
0.380000000000000171,-8.679351638335184305
0.381000000000000172,-8.641689762850329970
0.382000000000000173,-8.604014742582551278
0.383000000000000174,-8.566336258573363338
0.384000000000000175,-8.528662321883889064
0.385000000000000175,-8.490999365223903084
0.386000000000000176,-8.453352333458571621
0.387000000000000177,-8.415724772813478083
0.388000000000000178,-8.378118918613958854
0.389000000000000179,-8.340535781408831895
0.390000000000000180,-8.302975231343070917
0.391000000000000181,-8.265436080657256213
0.392000000000000182,-8.227916164204776450
0.393000000000000183,-8.190412417890058805
0.394000000000000183,-8.152920954943274623
0.395000000000000184,-8.115437139958141088
0.396000000000000185,-8.077955660630369294
0.397000000000000186,-8.040470597144670606
0.398000000000000187,-8.002975489167837964
0.399000000000000188,-7.965463400414845019
0.400000000000000189,-7.927926980763453813
0.401000000000000190,-7.890358525901078224
0.402000000000000191,-7.852750034495413090
0.403000000000000191,-7.815093262887354619
0.404000000000000192,-7.777379777311651310
0.405000000000000193,-7.739601003656808587
0.406000000000000194,-7.701748274781654580
0.407000000000000195,-7.663812875411380787
0.408000000000000196,-7.625786084640553852
0.409000000000000197,-7.587659216075435253
0.410000000000000198,-7.549423655651911425
0.411000000000000199,-7.511070897168974803
0.412000000000000199,-7.472592575581311181
0.413000000000000200,-7.433980498097459311
0.414000000000000201,-7.395226673132722972
0.415000000000000202,-7.356323337168385379
0.416000000000000203,-7.317262979570988257
0.417000000000000204,-7.278038365427089040
0.418000000000000205,-7.238642556450592735
0.419000000000000206,-7.199068930020952273
0.420000000000000207,-7.159311196411562328
0.421000000000000207,-7.119363414268663703
0.422000000000000208,-7.079220004401390653
0.423000000000000209,-7.038875761944308529
0.424000000000000210,-6.998325866953839736
0.425000000000000211,-6.957565893500015974
0.426000000000000212,-6.916591817315046242
0.427000000000000213,-6.875400022059690919
0.428000000000000214,-6.833987304268326568
0.429000000000000214,-6.792350877032772516
0.430000000000000215,-6.750488372484523047
0.431000000000000216,-6.708397843134226157
0.432000000000000217,-6.666077762126329631
0.433000000000000218,-6.623527022465978575
0.434000000000000219,-6.580744935274212892
0.435000000000000220,-6.537731227126426958
0.436000000000000221,-6.494486036527890249
0.437000000000000222,-6.451009909578924173
0.438000000000000222,-6.407303794881167747
0.439000000000000223,-6.363369037734929456
0.440000000000000224,-6.319207373676431594
0.441000000000000225,-6.274820921402242568
0.442000000000000226,-6.230212175127056717
0.443000000000000227,-6.185383996419217212
0.444000000000000228,-6.140339605557353586
0.445000000000000229,-6.095082572449781466
0.446000000000000230,-6.049616807156978027
0.447000000000000230,-6.003946550056115328
0.448000000000000231,-5.958076361685022526
0.449000000000000232,-5.912011112301589932
0.450000000000000233,-5.865755971193328477
0.451000000000000234,-5.819316395770148809
0.452000000000000235,-5.772698120472280259
0.453000000000000236,-5.725907145523636110
0.454000000000000237,-5.678949725559837347
0.455000000000000238,-5.631832358158449736
0.456000000000000238,-5.584561772297995219
0.457000000000000239,-5.537144916770712300
0.458000000000000240,-5.489588948573069338
0.459000000000000241,-5.441901221296398639
0.460000000000000242,-5.394089273539336205
0.461000000000000243,-5.346160817361935713
0.462000000000000244,-5.298123726800829658
0.463000000000000245,-5.249986026463016486
0.464000000000000246,-5.201755880215387151
0.465000000000000246,-5.153441579985541310
0.466000000000000247,-5.105051534688695547
0.467000000000000248,-5.056594259294334037
0.468000000000000249,-5.008078364045450925
0.469000000000000250,-4.959512543842027554
0.470000000000000251,-4.910905567799795257
0.471000000000000252,-4.862266268994117624
0.472000000000000253,-4.813603534398373185
0.473000000000000254,-4.764926295024986658
0.474000000000000254,-4.716243516276830583
0.475000000000000255,-4.667564188515713752
0.476000000000000256,-4.618897317854107953
0.477000000000000257,-4.570251917175534473
0.478000000000000258,-4.521636997388242207
0.479000000000000259,-4.473061558916432645
0.480000000000000260,-4.424534583432432555
0.481000000000000261,-4.376065025832724942
0.482000000000000262,-4.327661806460287863
0.483000000000000262,-4.279333803575042339
0.484000000000000263,-4.231089846073723848
0.485000000000000264,-4.182938706460118894
0.486000000000000265,-4.134889094066069859
0.487000000000000266,-4.086949648523213519
0.488000000000000267,-4.039128933485105932
0.489000000000000268,-3.991435430598954781
0.490000000000000269,-3.943877533725770324
0.491000000000000270,-3.896463543407581831
0.492000000000000270,-3.849201661579794376
0.493000000000000271,-3.802099986526751074
0.494000000000000272,-3.755166508078090715
0.495000000000000273,-3.708409103043249111
0.496000000000000274,-3.661835530881415224
0.497000000000000275,-3.615453429603705526
0.498000000000000276,-3.569270311904426674
0.499000000000000277,-3.523293561517941264
0.500000000000000222,-3.477530429797463629
0.501000000000000334,-3.431988032512104159
0.502000000000000224,-3.386673346858202649
0.503000000000000336,-3.341593208680830429
0.504000000000000226,-3.296754309901503088
0.505000000000000338,-3.252163196147549229
0.506000000000000227,-3.207826264579125564
0.507000000000000339,-3.163749761909094182
0.508000000000000229,-3.119939782611598211
0.509000000000000341,-3.076402267314444661
0.510000000000000231,-3.033143001371064962
0.511000000000000343,-2.990167613607013219
0.512000000000000233,-2.947481575236682527
0.513000000000000345,-2.905090198945251334
0.514000000000000234,-2.862998638131466933
0.515000000000000346,-2.821211886306185246
0.516000000000000236,-2.779734776642345029
0.517000000000000348,-2.738571981671334310
0.518000000000000238,-2.697728013121369450
0.519000000000000350,-2.657207221892933457
0.520000000000000240,-2.617013798166897498
0.521000000000000352,-2.577151771640533440
0.522000000000000242,-2.537625011886984971
0.523000000000000353,-2.498437228833536583
0.524000000000000243,-2.459591973354357197
0.525000000000000355,-2.421092637973134565
0.526000000000000245,-2.382942457671384240
0.527000000000000357,-2.345144510797917192
0.528000000000000247,-2.307701720075441720
0.529000000000000359,-2.270616853699871207
0.530000000000000249,-2.233892526528402200
0.531000000000000361,-2.197531201352130203
0.532000000000000250,-2.161535190249394667
0.533000000000000362,-2.125906656015712937
0.534000000000000252,-2.090647613666671845
0.535000000000000364,-2.055759932009812552
0.536000000000000254,-2.021245335282012334
0.537000000000000366,-1.987105404848474421
0.538000000000000256,-1.953341580960122004
0.539000000000000368,-1.919955164565568806
0.540000000000000258,-1.886947319174642868
0.541000000000000369,-1.854319072769806009
0.542000000000000259,-1.822071319762587738
0.543000000000000371,-1.790204822991590561
0.544000000000000261,-1.758720215759232541
0.545000000000000373,-1.727618003904088040
0.546000000000000263,-1.696898567906077293
0.547000000000000375,-1.666562165021454378
0.548000000000000265,-1.636608931445199699
0.549000000000000377,-1.607038884497749454
0.550000000000000266,-1.577851924833855390
0.551000000000000378,-1.549047838670788213
0.552000000000000268,-1.520626300033651956
0.553000000000000380,-1.492586873015322890
0.554000000000000270,-1.464929014048876876
0.555000000000000382,-1.437652074190140850
0.556000000000000272,-1.410755301408459061
0.557000000000000384,-1.384237842883377700
0.558000000000000274,-1.358098747305535481
0.559000000000000385,-1.332336967179603482
0.560000000000000275,-1.306951361127663302
0.561000000000000387,-1.281940696191087525
0.562000000000000277,-1.257303650129333317
0.563000000000000389,-1.233038813713961623
0.564000000000000279,-1.209144693016367622
0.565000000000000391,-1.185619711687668332
0.566000000000000281,-1.162462213229361385
0.567000000000000393,-1.139670463253332322
0.568000000000000282,-1.117242651729987823
0.569000000000000394,-1.095176895223107350
0.570000000000000284,-1.073471239110408426
0.571000000000000396,-1.052123659788503529
0.572000000000000286,-1.031132066861349283
0.573000000000000398,-1.010494305310958518
0.574000000000000288,-0.990208157649588694
0.575000000000000400,-0.970271346052367867
0.576000000000000290,-0.950681534469526190
0.577000000000000401,-0.931436330717390737
0.578000000000000291,-0.912533288547411225
0.579000000000000403,-0.893969909692410525
0.580000000000000293,-0.875743645889477507
0.581000000000000405,-0.857851900878750184
0.582000000000000295,-0.840292032377611298
0.583000000000000407,-0.823061354029621883
0.584000000000000297,-0.806157137327783824
0.585000000000000409,-0.789576613511572267
0.586000000000000298,-0.773316975437374765
0.587000000000000410,-0.757375379421856953
0.588000000000000300,-0.741748947057981445
0.589000000000000412,-0.726434767003241944
0.590000000000000302,-0.711429896739918521
0.591000000000000414,-0.696731364307030532
0.592000000000000304,-0.682336170003765896
0.593000000000000416,-0.668241288064166494
0.594000000000000306,-0.654443668302953974
0.595000000000000417,-0.640940237732268603
0.596000000000000307,-0.627727902149257888
0.597000000000000419,-0.614803547694398822
0.598000000000000309,-0.602164042380512243
0.599000000000000421,-0.589806237592357618
0.600000000000000311,-0.577726969556886294
0.601000000000000423,-0.565923060784048748
0.602000000000000313,-0.554391321478288290
0.603000000000000425,-0.543128550920620845
0.604000000000000314,-0.532131538821549843
0.605000000000000426,-0.521397066644689433
0.606000000000000316,-0.510921908901387445
0.607000000000000428,-0.500702834416298259
0.608000000000000318,-0.490736607564180027
0.609000000000000430,-0.481019989477943277
0.610000000000000320,-0.471549739228206477
0.611000000000000432,-0.462322614974466972
0.612000000000000322,-0.453335375088126269
0.613000000000000433,-0.444584779247533202
0.614000000000000323,-0.436067589505292841
0.615000000000000435,-0.427780571328041259
0.616000000000000325,-0.419720494608935624
0.617000000000000437,-0.411884134653098699
0.618000000000000327,-0.404268273136294987
0.619000000000000439,-0.396869699037054990
0.620000000000000329,-0.389685209542584898
0.621000000000000441,-0.382711610928692214
0.622000000000000330,-0.375945719414046753
0.623000000000000442,-0.369384361989045562
0.624000000000000332,-0.363024377219610006
0.625000000000000444,-0.356862616026211055
0.626000000000000334,-0.350895942438428754
0.627000000000000446,-0.345121234325379000
0.628000000000000336,-0.339535384102316762
0.629000000000000448,-0.334135299413745979
0.630000000000000338,-0.328917903793382149
0.631000000000000449,-0.323880137301268189
0.632000000000000339,-0.319018957138413439
0.633000000000000451,-0.314331338239276059
0.634000000000000341,-0.309814273842432653
0.635000000000000453,-0.305464776039795272
0.636000000000000343,-0.301279876304674676
0.637000000000000455,-0.297256625999108959
0.638000000000000345,-0.293392096860736251
0.639000000000000457,-0.289683381469587276
0.640000000000000346,-0.286127593695160165
0.641000000000000458,-0.282721869124097525
0.642000000000000348,-0.279463365468837599
0.643000000000000460,-0.276349262957565123
0.644000000000000350,-0.273376764705838882
0.645000000000000462,-0.270543097070209293
0.646000000000000352,-0.267845509984201535
0.647000000000000464,-0.265281277276978811
0.648000000000000353,-0.262847696975067491
0.649000000000000465,-0.260542091587437852
0.650000000000000355,-0.258361808374331370
0.651000000000000467,-0.256304219600119954
0.652000000000000357,-0.254366722770585307
0.653000000000000469,-0.252546740854905749
0.654000000000000359,-0.250841722492721964
0.655000000000000471,-0.249249142186565548
0.656000000000000361,-0.247766500480030766
0.657000000000000473,-0.246391324121957689
0.658000000000000362,-0.245121166216999364
0.659000000000000474,-0.243953606362835140
0.660000000000000364,-0.242886250774407036
0.661000000000000476,-0.241916732395436179
0.662000000000000366,-0.241042710997551035
0.663000000000000478,-0.240261873267350184
