# ZnO1m210NBDry_CS-8142-AC
# h[nm],U(h)[kJ/mol]
0.200000000000000011,57.037141460316448160
0.201000000000000012,56.204429424738705734
0.202000000000000013,55.139930378837938463
0.203000000000000014,53.976596492352555856
0.204000000000000015,52.786356375926096973
0.205000000000000016,51.603989828047282629
0.206000000000000016,50.442846131570647117
0.207000000000000017,49.304900368051725934
0.208000000000000018,48.186944075747291549
0.209000000000000019,47.084190584367171084
0.210000000000000020,45.992196537987368288
0.211000000000000021,44.907725129919221274
0.212000000000000022,43.828977288006221613
0.213000000000000023,42.755474647049325654
0.214000000000000024,41.687777653698404379
0.215000000000000024,40.627152304526305215
0.216000000000000025,39.575251387881550613
0.217000000000000026,38.533844406532246296
0.218000000000000027,37.504609956191231390
0.219000000000000028,36.488991812934806092
0.220000000000000029,35.488112855213238106
0.221000000000000030,34.502737421468694379
0.222000000000000031,33.533271505274008462
0.223000000000000032,32.579790419617772557
0.224000000000000032,31.642084602259831883
0.225000000000000033,30.719715668876585113
0.226000000000000034,29.812076378957584666
0.227000000000000035,28.918449692736071910
0.228000000000000036,28.038063468901885500
0.229000000000000037,27.170138534155928056
0.230000000000000038,26.313928830637905776
0.231000000000000039,25.468753120047004757
0.232000000000000040,24.634018310070640467
0.233000000000000040,23.809234892056043265
0.234000000000000041,22.994025263694272354
0.235000000000000042,22.188125881820521812
0.236000000000000043,21.391384271711110898
0.237000000000000044,20.603751931530787544
0.238000000000000045,19.825274132122572723
0.239000000000000046,19.056077538540396432
0.240000000000000047,18.296356483236785095
0.241000000000000048,17.546358611742700617
0.242000000000000048,16.806370507856808416
0.243000000000000049,16.076703792699142070
0.244000000000000050,15.357682084740702066
0.245000000000000051,14.649629108990728454
0.246000000000000052,13.952858154724532724
0.247000000000000053,13.267663003405363753
0.248000000000000054,12.594310382080992738
0.249000000000000055,11.933033942307661235
0.250000000000000056,11.284029720006762076
0.251000000000000056,10.647452996790855551
0.252000000000000057,10.023416457255629908
0.253000000000000058,9.411989518499686014
0.254000000000000059,8.813198696657694953
0.255000000000000060,8.227028869492373886
0.256000000000000061,7.653425293110882599
0.257000000000000062,7.092296233747298118
0.258000000000000063,6.543516081460962752
0.259000000000000064,6.006928820806058056
0.260000000000000064,5.482351743384706211
0.261000000000000065,4.969579298149062296
0.262000000000000066,4.468386986892292967
0.263000000000000067,3.978535224174826190
0.264000000000000068,3.499773092647294082
0.265000000000000069,3.031841936101360435
0.266000000000000070,2.574478743408510351
0.267000000000000071,2.127419286646271779
0.268000000000000071,1.690400986062343236
0.269000000000000072,1.263165483022283597
0.270000000000000073,0.845460909694070728
0.271000000000000074,0.437043850934558276
0.272000000000000075,0.037680999670975004
0.273000000000000076,-0.352849487954335295
0.274000000000000077,-0.734756927245666325
0.275000000000000078,-1.108237315590963279
0.276000000000000079,-1.473472802546298865
0.277000000000000079,-1.830631400788060192
0.278000000000000080,-2.179866917880544097
0.279000000000000081,-2.521319087853948204
0.280000000000000082,-2.855113881089699213
0.281000000000000083,-3.181363970909490302
0.282000000000000084,-3.500169335502353984
0.283000000000000085,-3.811617974348173732
0.284000000000000086,-4.115786719056790943
0.285000000000000087,-4.412742119491545267
0.286000000000000087,-4.702541387146049523
0.287000000000000088,-4.985233378953244809
0.288000000000000089,-5.260859605994324895
0.289000000000000090,-5.529455252912585550
0.290000000000000091,-5.791050195196671524
0.291000000000000092,-6.045670002859469427
0.292000000000000093,-6.293336920381575439
0.293000000000000094,-6.534070814098042135
0.294000000000000095,-6.767890079470411990
0.295000000000000095,-6.994812501893053813
0.296000000000000096,-7.214856065824450937
0.297000000000000097,-7.428039708106069838
0.298000000000000098,-7.634384012327863900
0.299000000000000099,-7.833911842019349869
0.300000000000000100,-8.026648911285917620
0.301000000000000101,-8.212624292273142501
0.302000000000000102,-8.391870859526319393
0.303000000000000103,-8.564425671922800021
0.304000000000000103,-8.730330293390155205
0.305000000000000104,-8.889631054089912610
0.306000000000000105,-9.042379254145913592
0.307000000000000106,-9.188631312332836032
0.308000000000000107,-9.328448862418175835
0.309000000000000108,-9.461898800073653248
0.310000000000000109,-9.589053283444666675
0.311000000000000110,-9.709989690591529055
0.312000000000000111,-9.824790537100751564
0.313000000000000111,-9.933543357209384084
0.314000000000000112,-10.036340551797096055
0.315000000000000113,-10.133279206581383036
0.316000000000000114,-10.224460883805631894
0.317000000000000115,-10.309991390640311337
0.318000000000000116,-10.389980527428553714
0.319000000000000117,-10.464541818801009754
0.320000000000000118,-10.533792230564344550
0.321000000000000119,-10.597851875135933852
0.322000000000000119,-10.656843708155879114
0.323000000000000120,-10.710893218759267143
0.324000000000000121,-10.760128115838705654
0.325000000000000122,-10.804678012470585458
0.326000000000000123,-10.844674110520738708
0.327000000000000124,-10.880248887287077508
0.328000000000000125,-10.911535785880156268
0.329000000000000126,-10.938668910887736629
0.330000000000000127,-10.961782730718258705
0.331000000000000127,-10.981011787870736285
0.332000000000000128,-10.996490418235916664
0.333000000000000129,-11.008352480396528250
0.334000000000000130,-11.016731095762507309
0.335000000000000131,-11.021758400252355869
0.336000000000000132,-11.023565308112136307
0.337000000000000133,-11.022281288351972961
0.338000000000000134,-11.018034154174017658
0.339000000000000135,-11.010949865666962211
0.340000000000000135,-11.001152345950757194
0.341000000000000136,-10.988763310869403611
0.342000000000000137,-10.973902112251535002
0.343000000000000138,-10.956685594686327079
0.344000000000000139,-10.937227965696752818
0.345000000000000140,-10.915640679132625479
0.346000000000000141,-10.892032331552432112
0.347000000000000142,-10.866508571315135256
0.348000000000000143,-10.839172020060818369
0.349000000000000143,-10.810122206222045449
0.350000000000000144,-10.779455510175523614
0.351000000000000145,-10.747265120616344092
0.352000000000000146,-10.713641001713998691
0.353000000000000147,-10.678669870590370650
0.354000000000000148,-10.642435184645114177
0.355000000000000149,-10.605017138242056163
0.356000000000000150,-10.566492668262473131
0.357000000000000151,-10.526935468025824250
0.358000000000000151,-10.486416009076517497
0.359000000000000152,-10.445001570335447738
0.360000000000000153,-10.402756274118081237
0.361000000000000154,-10.359741128525378429
0.362000000000000155,-10.316014075720925547
0.363000000000000156,-10.271630045616010563
0.364000000000000157,-10.226641014494227022
0.365000000000000158,-10.181096068118970166
0.366000000000000159,-10.135041468879141036
0.367000000000000159,-10.088520726542300920
0.368000000000000160,-10.041574672198672502
0.369000000000000161,-9.994241534994467102
0.370000000000000162,-9.946557021268581877
0.371000000000000163,-9.898554395722992894
0.372000000000000164,-9.850264564273212287
0.373000000000000165,-9.801716158242196997
0.374000000000000166,-9.752935619577614901
0.375000000000000167,-9.703947286789247784
0.376000000000000167,-9.654773481320169992
0.377000000000000168,-9.605434594081943445
0.378000000000000169,-9.555949171900556038
0.379000000000000170,-9.506334003636283114
0.380000000000000171,-9.456604205756395487
0.381000000000000172,-9.406773307155578578
0.382000000000000173,-9.356853333034019116
0.383000000000000174,-9.306854887658221998
0.384000000000000175,-9.256787235843997763
0.385000000000000175,-9.206658383015076552
0.386000000000000176,-9.156475153704478842
0.387000000000000177,-9.106243268378710454
0.388000000000000178,-9.055967418477564479
0.389000000000000179,-9.005651339574141545
0.390000000000000180,-8.955297882571557011
0.391000000000000181,-8.904909082863449399
0.392000000000000182,-8.854486227396209941
0.393000000000000183,-8.804029919580594665
0.394000000000000183,-8.753540142009935465
0.395000000000000184,-8.703016316951089237
0.396000000000000185,-8.652457364582591737
0.397000000000000186,-8.601861758962586535
0.398000000000000187,-8.551227581716290160
0.399000000000000188,-8.500552573439987825
0.400000000000000189,-8.449834182824764284
0.401000000000000190,-8.399069613509409393
0.402000000000000191,-8.348255868677508573
0.403000000000000191,-8.297389793418732395
0.404000000000000192,-8.246468114879348832
0.405000000000000193,-8.195487480231120614
0.406000000000000194,-8.144444492491853538
0.407000000000000195,-8.093335744234479989
0.408000000000000196,-8.042157849224675914
0.409000000000000197,-7.990907472030150061
0.410000000000000198,-7.939581355647240102
0.411000000000000199,-7.888176347192636051
0.412000000000000199,-7.836689421710309134
0.413000000000000200,-7.785117704145281259
0.414000000000000201,-7.733458489537431646
0.415000000000000202,-7.681709261489620744
0.416000000000000203,-7.629867708965727857
0.417000000000000204,-7.577931741474580818
0.418000000000000205,-7.525899502696633547
0.419000000000000206,-7.473769382610578660
0.420000000000000207,-7.421540028177079584
0.421000000000000207,-7.369210352637269423
0.422000000000000208,-7.316779543482994086
0.423000000000000209,-7.264247069156125391
0.424000000000000210,-7.211612684533401207
0.425000000000000211,-7.158876435252937931
0.426000000000000212,-7.106038660938063245
0.427000000000000213,-7.053099997373062813
0.428000000000000214,-7.000061377685034003
0.429000000000000214,-6.946924032584749220
0.430000000000000215,-6.893689489718735963
0.431000000000000216,-6.840359572183686510
0.432000000000000217,-6.786936396253045345
0.433000000000000218,-6.733422368364692545
0.434000000000000219,-6.679820181417341018
0.435000000000000220,-6.626132810422011410
0.436000000000000221,-6.572363507553721895
0.437000000000000222,-6.518515796647196048
0.438000000000000222,-6.464593467179132524
0.439000000000000223,-6.410600567778176995
0.440000000000000224,-6.356541399302419570
0.441000000000000225,-6.302420507522859872
0.442000000000000226,-6.248242675450020656
0.443000000000000227,-6.194012915339308201
0.444000000000000228,-6.139736460409650931
0.445000000000000229,-6.085418756308358823
0.446000000000000230,-6.031065452353841394
0.447000000000000230,-5.976682392586678993
0.448000000000000231,-5.922275606657960267
0.449000000000000232,-5.867851300582616503
0.450000000000000233,-5.813415847384318269
0.451000000000000234,-5.758975777656986317
0.452000000000000235,-5.704537770066973934
0.453000000000000236,-5.650108641818560429
0.454000000000000237,-5.595695339104413968
0.455000000000000238,-5.541304927561275129
0.456000000000000238,-5.486944582750209243
0.457000000000000239,-5.432621580679484197
0.458000000000000240,-5.378343288387204879
0.459000000000000241,-5.324117154599568025
0.460000000000000242,-5.269950700479899552
0.461000000000000243,-5.215851510482264253
0.462000000000000244,-5.161827223322883462
0.463000000000000245,-5.107885523081191259
0.464000000000000246,-5.054034130441989348
0.465000000000000246,-5.000280794088847180
0.466000000000000247,-4.946633282258301456
0.467000000000000248,-4.893099374463472095
0.468000000000000249,-4.839686853395109623
0.469000000000000250,-4.786403497007077235
0.470000000000000251,-4.733257070792816101
0.471000000000000252,-4.680255320258413398
0.472000000000000253,-4.627405963597531091
0.473000000000000254,-4.574716684572427638
0.474000000000000254,-4.522195125605109389
0.475000000000000255,-4.469848881081741609
0.476000000000000256,-4.417685490873101806
0.477000000000000257,-4.365712434073293124
0.478000000000000258,-4.313937122958330761
0.479000000000000259,-4.262366897165902557
0.480000000000000260,-4.211009018097074730
0.481000000000000261,-4.159870663540220725
0.482000000000000262,-4.108958922517234491
0.483000000000000262,-4.058280790351532552
0.484000000000000263,-4.007843163957067745
0.485000000000000264,-3.957652837347283903
0.486000000000000265,-3.907716497362534458
0.487000000000000266,-3.858040719614259650
0.488000000000000267,-3.808631964643930168
0.489000000000000268,-3.759496574294519888
0.490000000000000269,-3.710640768291951108
0.491000000000000270,-3.662070641033922325
0.492000000000000270,-3.613792158583046810
0.493000000000000271,-3.565811155861351889
0.494000000000000272,-3.518133334042782057
0.495000000000000273,-3.470764258140249581
0.496000000000000274,-3.423709354783781578
0.497000000000000275,-3.376973910185905758
0.498000000000000276,-3.330563068290583573
0.499000000000000277,-3.284481829101709938
0.500000000000000222,-3.238735047187154326
0.501000000000000334,-3.193327430354302443
0.502000000000000224,-3.148263538492923175
0.503000000000000336,-3.103547782581058012
0.504000000000000226,-3.059184423849849566
0.505000000000000338,-3.015177573102740816
0.506000000000000227,-2.971531190185026094
0.507000000000000339,-2.928249083599046898
0.508000000000000229,-2.885334910260993979
0.509000000000000341,-2.842792175394612819
0.510000000000000231,-2.800624232557785476
0.511000000000000343,-2.758834283797239273
0.512000000000000233,-2.717425379927367768
0.513000000000000345,-2.676400420928527701
0.514000000000000234,-2.635762156460818684
0.515000000000000346,-2.595513186488682233
0.516000000000000236,-2.555655962012463700
0.517000000000000348,-2.516192785902396700
0.518000000000000238,-2.477125813831119849
0.519000000000000350,-2.438457055300361276
0.520000000000000240,-2.400188374757945109
0.521000000000000352,-2.362321492800955269
0.522000000000000242,-2.324857987461213860
0.523000000000000353,-2.287799295569070690
0.524000000000000243,-2.251146714191806897
0.525000000000000355,-2.214901402142752218
0.526000000000000245,-2.179064381557579644
0.527000000000000357,-2.143636539533948060
0.528000000000000247,-2.108618629831185309
0.529000000000000359,-2.074011274626269774
0.530000000000000249,-2.039814966322941459
0.531000000000000361,-2.006030069410393857
0.532000000000000250,-1.972656822368503482
0.533000000000000362,-1.939695339616184899
0.534000000000000252,-1.907145613499984460
0.535000000000000364,-1.875007516319704193
0.536000000000000254,-1.843280802388274520
0.537000000000000366,-1.811965110122793821
0.538000000000000256,-1.781059964164203979
0.539000000000000368,-1.750564777522595650
0.540000000000000258,-1.720478853745800008
0.541000000000000369,-1.690801389108397501
0.542000000000000259,-1.661531474818971787
0.543000000000000371,-1.632668099242915671
0.544000000000000261,-1.604210150138673185
0.545000000000000373,-1.576156416905013291
0.546000000000000263,-1.548505592837285505
0.547000000000000375,-1.521256277390353961
0.548000000000000265,-1.494406978446461753
0.549000000000000377,-1.467956114585722061
0.550000000000000266,-1.441902017357660215
0.551000000000000378,-1.416242933551743466
0.552000000000000268,-1.390977027465309046
0.553000000000000380,-1.366102383167081324
0.554000000000000270,-1.341617006754793451
0.555000000000000382,-1.317518828605191761
0.556000000000000272,-1.293805705615145074
0.557000000000000384,-1.270475423432200435
0.558000000000000274,-1.247525698673464190
0.559000000000000385,-1.224954181131281628
0.560000000000000275,-1.202758455964676010
0.561000000000000387,-1.180936045875212725
0.562000000000000277,-1.159484413266249625
0.563000000000000389,-1.138400962384471304
0.564000000000000279,-1.117683041442722569
0.565000000000000391,-1.097327944723140991
0.566000000000000281,-1.077332914659722363
0.567000000000000393,-1.057695143899417101
0.568000000000000282,-1.038411777341034625
0.569000000000000394,-1.019479914151060207
0.570000000000000284,-1.000896609755834721
0.571000000000000396,-0.982658877809284070
0.572000000000000286,-0.964763692135720774
0.573000000000000398,-0.947207988646975529
0.574000000000000288,-0.929988667233485722
0.575000000000000400,-0.913102593628745351
0.576000000000000290,-0.896546601246691055
0.577000000000000401,-0.880317492991606665
0.578000000000000291,-0.864412043040184819
0.579000000000000403,-0.848826998595353599
0.580000000000000293,-0.833559081611631170
0.581000000000000405,-0.818604990491655249
0.582000000000000295,-0.803961401753729432
0.583000000000000407,-0.789624971670085718
0.584000000000000297,-0.775592337875768201
0.585000000000000409,-0.761860120947918107
0.586000000000000298,-0.748424925955398002
0.587000000000000410,-0.735283343978599513
0.588000000000000300,-0.722431953599427246
0.589000000000000412,-0.709867322361350861
0.590000000000000302,-0.697586008199555407
0.591000000000000414,-0.685584560841188351
0.592000000000000304,-0.673859523175694641
0.593000000000000416,-0.662407432595307100
0.594000000000000306,-0.651224822305793039
0.595000000000000417,-0.640308222607478106
0.596000000000000307,-0.629654162146698781
0.597000000000000419,-0.619259169137799992
0.598000000000000309,-0.609119772555824723
0.599000000000000421,-0.599232503300005326
0.600000000000000311,-0.589593895328314188
0.601000000000000423,-0.580200486763164158
0.602000000000000313,-0.571048820968564019
0.603000000000000425,-0.562135447598810400
0.604000000000000314,-0.553456923619111363
0.605000000000000426,-0.545009814298201500
0.606000000000000316,-0.536790694173354566
0.607000000000000428,-0.528796147987927734
0.608000000000000318,-0.521022771601814427
0.609000000000000430,-0.513467172874994660
0.610000000000000320,-0.506125972524542056
0.611000000000000432,-0.498995804955331412
0.612000000000000322,-0.492073319064788073
0.613000000000000433,-0.485355179021960847
0.614000000000000323,-0.478838065021265691
0.615000000000000435,-0.472518674011196793
0.616000000000000325,-0.466393720398346256
0.617000000000000437,-0.460459936727069086
0.618000000000000327,-0.454714074335130669
0.619000000000000439,-0.449152903985662433
0.620000000000000329,-0.443773216475807419
0.621000000000000441,-0.438571823222373258
0.622000000000000330,-0.433545556824861289
0.623000000000000442,-0.428691271606222390
0.624000000000000332,-0.424005844131694842
0.625000000000000444,-0.419486173706100307
0.626000000000000334,-0.415129182849926170
0.627000000000000446,-0.410931817754595641
0.628000000000000336,-0.406891048717255566
0.629000000000000448,-0.403003870555460608
0.630000000000000338,-0.399267303002125984
0.631000000000000449,-0.395678391081091985
0.632000000000000339,-0.392234205463678098
0.633000000000000451,-0.388931842806586769
0.634000000000000341,-0.385768426071517123
0.635000000000000453,-0.382741104826865408
0.636000000000000343,-0.379847055531822353
0.637000000000000455,-0.377083481803311305
0.638000000000000345,-0.374447614666038930
0.639000000000000457,-0.371936712786062773
0.640000000000000346,-0.369548062688219658
0.641000000000000458,-0.367278978957759183
0.642000000000000348,-0.365126804426534890
0.643000000000000460,-0.363088910344101623
0.644000000000000350,-0.361162696534062633
0.645000000000000462,-0.359345591536003539
0.646000000000000352,-0.357635052733355829
0.647000000000000464,-0.356028566467519347
0.648000000000000353,-0.354523648138588499
0.649000000000000465,-0.353117842292990758
0.650000000000000355,-0.351808722698387699
0.651000000000000467,-0.350593892406133811
0.652000000000000357,-0.349470983801639379
0.653000000000000469,-0.348437658642925752
0.654000000000000359,-0.347491608087713566
0.655000000000000471,-0.346630552709314088
0.656000000000000361,-0.345852242501670459
0.657000000000000473,-0.345154456873812077
0.658000000000000362,-0.344535004634046071
0.659000000000000474,-0.343991723964147789
0.660000000000000364,-0.343522482383879724
0.661000000000000476,-0.343125176706083945
0.662000000000000366,-0.342797732982640158
