# ZnO1m210NBDry_CS-61707-AC
# h[nm],U(h)[kJ/mol]
0.149999999999999994,193.658527013242121484
0.150999999999999995,192.433921352618909850
0.151999999999999996,189.965234414342205582
0.152999999999999997,187.258208734989068489
0.153999999999999998,184.671849264452220041
0.154999999999999999,182.267008715782850459
0.156000000000000000,179.991948894544350424
0.157000000000000001,177.772947281073726344
0.158000000000000002,175.552051298595984008
0.159000000000000002,173.297335147026018376
0.160000000000000003,171.000393733919509032
0.161000000000000004,168.669214500784022448
0.162000000000000005,166.320584810982722956
0.163000000000000006,163.973874118501782959
0.164000000000000007,161.646751254715809409
0.165000000000000008,159.352750055834519571
0.166000000000000009,157.100319383239025228
0.167000000000000010,154.892921599386966136
0.168000000000000010,152.729775745825719468
0.169000000000000011,150.606918276352701014
0.170000000000000012,148.518341677102654330
0.171000000000000013,146.457052343323823607
0.172000000000000014,144.415956101965150538
0.173000000000000015,142.388530756170013092
0.174000000000000016,140.369280915856080583
0.175000000000000017,138.353993455099754328
0.176000000000000018,136.339824913069719514
0.177000000000000018,134.325257657066799766
0.178000000000000019,132.309961947821307149
0.179000000000000020,130.294598058496148951
0.180000000000000021,128.280587741987858408
0.181000000000000022,126.269878672084331583
0.182000000000000023,124.264719733732249551
0.183000000000000024,122.267459677191780543
0.184000000000000025,120.280376952778510713
0.185000000000000026,118.305544634563830186
0.186000000000000026,116.344731248970177262
0.187000000000000027,114.399336007444276220
0.188000000000000028,112.470355321315423680
0.189000000000000029,110.558376451280992114
0.190000000000000030,108.663593606924223423
0.191000000000000031,106.785841659163267536
0.192000000000000032,104.924642764915773796
0.193000000000000033,103.079261544468209877
0.194000000000000034,101.248764926955757915
0.195000000000000034,99.432083329880896372
0.196000000000000035,97.628070418899397964
0.197000000000000036,95.835559269449362318
0.198000000000000037,94.053413297062263609
0.199000000000000038,92.280570821370901058
0.200000000000000039,90.516082569530524893
0.201000000000000040,88.759141802866651005
0.202000000000000041,87.009107064960787170
0.203000000000000042,85.265517801966154821
0.204000000000000042,83.528103300677898346
0.205000000000000043,81.796785532098581939
0.206000000000000044,80.071676584044141123
0.207000000000000045,78.353071422163594661
0.208000000000000046,76.641436741012483935
0.209000000000000047,74.937396661679841259
0.210000000000000048,73.241716005646068766
0.211000000000000049,71.555281831231624778
0.212000000000000050,69.879083863770276253
0.213000000000000050,68.214194387495950878
0.214000000000000051,66.561748099426523595
0.215000000000000052,64.922922356070515093
0.216000000000000053,63.298918174823917582
0.217000000000000054,61.690942285247572840
0.218000000000000055,60.100190462356906096
0.219000000000000056,58.527832315592945633
0.220000000000000057,56.974997653911160000
0.221000000000000058,55.442764499817066337
0.222000000000000058,53.932148783327804153
0.223000000000000059,52.444095710745600059
0.224000000000000060,50.979472772609568665
0.225000000000000061,49.539064329988590885
0.226000000000000062,48.123567698036119111
0.227000000000000063,46.733590630051182302
0.228000000000000064,45.369650093749065434
0.229000000000000065,44.032172223589853388
0.230000000000000066,42.721493328406488388
0.231000000000000066,41.437861831770483434
0.232000000000000067,40.181441023125408663
0.233000000000000068,38.952312500305026788
0.234000000000000069,37.750480188275496118
0.235000000000000070,36.575874824461614310
0.236000000000000071,35.428358807538472774
0.237000000000000072,34.307731313818202068
0.238000000000000073,33.213733593104493025
0.239000000000000073,32.146054363919176922
0.240000000000000074,31.104335236142297560
0.241000000000000075,30.088176097212283366
0.242000000000000076,29.097140405971526178
0.243000000000000077,28.130760345920158727
0.244000000000000078,27.188541796977016674
0.245000000000000079,26.269969091778250458
0.246000000000000080,25.374509529029804611
0.247000000000000081,24.501617622435592381
0.248000000000000081,23.650739069235044099
0.249000000000000082,22.821314427392238144
0.250000000000000111,22.012782494985387416
0.251000000000000112,21.224583389360880403
0.252000000000000113,20.456161327152674545
0.253000000000000114,19.706967109349314171
0.254000000000000115,18.976460318234625646
0.255000000000000115,18.264111235266263122
0.256000000000000116,17.569402490811530271
0.257000000000000117,16.891830458163799022
0.258000000000000118,16.230906405444567753
0.259000000000000119,15.586157419883349462
0.260000000000000120,14.957127119589921804
0.261000000000000121,14.343376168320517650
0.262000000000000122,13.744482608914911026
0.263000000000000123,13.160042031074514313
0.264000000000000123,12.589667588983310509
0.265000000000000124,12.032989883969881006
0.266000000000000125,11.489656726987814039
0.267000000000000126,10.959332795176438324
0.268000000000000127,10.441699196167711250
0.269000000000000128,9.936452953150133993
0.270000000000000129,9.443306422995730642
0.271000000000000130,8.961986659018595702
0.272000000000000131,8.492234729174121810
0.273000000000000131,8.033804999736016583
0.274000000000000132,7.586464393714429377
0.275000000000000133,7.149991632509534512
0.276000000000000134,6.724176468538033191
0.277000000000000135,6.308818915831861496
0.278000000000000136,5.903728484891393791
0.279000000000000137,5.508723427386047256
0.280000000000000138,5.123629995635658574
0.281000000000000139,4.748281721177296966
0.282000000000000139,4.382518716129022884
0.283000000000000140,4.026187000502616797
0.284000000000000141,3.679137858094708058
0.285000000000000142,3.341227223098608867
0.286000000000000143,3.012315099128286988
0.287000000000000144,2.692265011931103125
0.288000000000000145,2.380943496684785554
0.289000000000000146,2.078219620429169634
0.290000000000000147,1.783964539868539090
0.291000000000000147,1.498051094499972979
0.292000000000000148,1.220353434770664158
0.293000000000000149,0.950746684745624959
0.294000000000000150,0.689106638571144181
0.295000000000000151,0.435309489850226605
0.296000000000000152,0.189231592900576617
0.297000000000000153,-0.049250745257138726
0.298000000000000154,-0.280261443435260493
0.299000000000000155,-0.503924796676439968
0.300000000000000155,-0.720365599914538968
0.301000000000000156,-0.929709246349607499
0.302000000000000157,-1.132081802021933870
0.303000000000000158,-1.327610058089679912
0.304000000000000159,-1.516421562323548411
0.305000000000000160,-1.698644631328600552
0.306000000000000161,-1.874408344991452591
0.307000000000000162,-2.043842524629984503
0.308000000000000163,-2.207077696294192926
0.309000000000000163,-2.364245040632018124
0.310000000000000164,-2.515476330693578344
0.311000000000000165,-2.660903859001791716
0.312000000000000166,-2.800660355168605786
0.313000000000000167,-2.934878895283456579
0.314000000000000168,-3.063692804245900181
0.315000000000000169,-3.187235552157626106
0.316000000000000170,-3.305640645831124935
0.317000000000000171,-3.419041516413100279
0.318000000000000171,-3.527571404061620175
0.319000000000000172,-3.631363240556779282
0.320000000000000173,-3.730549530665562941
0.321000000000000174,-3.825262233023427605
0.322000000000000175,-3.915632641238024458
0.323000000000000176,-4.001791265864282465
0.324000000000000177,-4.083867717845608425
0.325000000000000178,-4.161990593962758389
0.326000000000000179,-4.236287364781029297
0.327000000000000179,-4.306884265536681689
0.328000000000000180,-4.373906190356168011
0.329000000000000181,-4.437476590156686385
0.330000000000000182,-4.497717374532670398
0.331000000000000183,-4.554748817892421364
0.332000000000000184,-4.608689470069418093
0.333000000000000185,-4.659656071596426585
0.334000000000000186,-4.707763473795736786
0.335000000000000187,-4.753124563806130354
0.336000000000000187,-4.795850194637133690
0.337000000000000188,-4.836049120312063465
0.338000000000000189,-4.873827936135738170
0.339000000000000190,-4.909291024097863776
0.340000000000000191,-4.942540503400561391
0.341000000000000192,-4.973676186078231254
0.342000000000000193,-5.002795537658660585
0.343000000000000194,-5.029993642797575326
0.344000000000000195,-5.055363175802633613
0.345000000000000195,-5.078994375949892337
0.346000000000000196,-5.100975027482308022
0.347000000000000197,-5.121390444169573897
0.348000000000000198,-5.140323458298542647
0.349000000000000199,-5.157854413955123007
0.350000000000000200,-5.174061164451508432
0.351000000000000201,-5.189019073746337085
0.352000000000000202,-5.202801021700421913
0.353000000000000203,-5.215477413006814444
0.354000000000000203,-5.227116189630746312
0.355000000000000204,-5.237782846592699215
0.356000000000000205,-5.247540450926603484
0.357000000000000206,-5.256449663644516157
0.358000000000000207,-5.264568764538712031
0.359000000000000208,-5.271953679653236691
0.360000000000000209,-5.278658011257926219
0.361000000000000210,-5.284733070159417956
0.362000000000000210,-5.290227910186230176
0.363000000000000211,-5.295189364687185041
0.364000000000000212,-5.299662084885733648
0.365000000000000213,-5.303688579935774250
0.366000000000000214,-5.307309258528351670
0.367000000000000215,-5.310562471902302129
0.368000000000000216,-5.313484558116223333
0.369000000000000217,-5.316109887443126070
0.370000000000000218,-5.318470908753798021
0.371000000000000218,-5.320598196759277698
0.372000000000000219,-5.322520499987673404
0.373000000000000220,-5.324264789375209084
0.374000000000000221,-5.325856307356210628
0.375000000000000222,-5.327318617341404661
0.376000000000000223,-5.328673653479255812
0.377000000000000224,-5.329941770599252671
0.378000000000000225,-5.331141794241419873
0.379000000000000226,-5.332291070680831524
0.380000000000000226,-5.333405516860890927
0.381000000000000227,-5.334499670153522111
0.382000000000000228,-5.335586737869415508
0.383000000000000229,-5.336678646445753849
0.384000000000000230,-5.337786090243314518
0.385000000000000231,-5.338918579889496918
0.386000000000000232,-5.340084490107615878
0.387000000000000233,-5.341291106977410053
0.388000000000000234,-5.342544674575409047
0.389000000000000234,-5.343850440948054725
0.390000000000000235,-5.345212703373848129
0.391000000000000236,-5.346634852874986521
0.392000000000000237,-5.348119417942032605
0.393000000000000238,-5.349668107438941611
0.394000000000000239,-5.351281852658814842
0.395000000000000240,-5.352960848504134006
0.396000000000000241,-5.354704593768114584
0.397000000000000242,-5.356511930496773211
0.398000000000000242,-5.358381082414199525
0.399000000000000243,-5.360309692395976100
0.400000000000000244,-5.362294858978414069
0.401000000000000245,-5.364333171893692409
0.402000000000000246,-5.366420746623002280
0.403000000000000247,-5.368553257962426883
0.404000000000000248,-5.370725972597908182
0.405000000000000249,-5.372933780687941585
0.406000000000000250,-5.375171226454173556
0.407000000000000250,-5.377432537782101285
0.408000000000000251,-5.379711654835412915
0.409000000000000252,-5.382002257689274316
0.410000000000000253,-5.384297792989082510
0.411000000000000254,-5.386591499642660708
0.412000000000000255,-5.388876433555010337
0.413000000000000256,-5.391145491416031277
0.414000000000000257,-5.393391433552369385
0.415000000000000258,-5.395606905855952817
0.416000000000000258,-5.397784460802181883
0.417000000000000259,-5.399916577572004606
0.418000000000000260,-5.401995681292483198
0.419000000000000261,-5.404014161411401673
0.420000000000000262,-5.405964389221805000
0.421000000000000263,-5.407838734553226168
0.422000000000000264,-5.409629581646390406
0.423000000000000265,-5.411329344229007354
0.424000000000000266,-5.412930479810505346
0.425000000000000266,-5.414425503213593061
0.426000000000000267,-5.415806999361246099
0.427000000000000268,-5.417067635337568632
0.428000000000000269,-5.418200171741238691
0.429000000000000270,-5.419197473350519267
0.430000000000000271,-5.420052519118579326
0.431000000000000272,-5.420758411518260544
0.432000000000000273,-5.421308385255140472
0.433000000000000274,-5.421695815367916005
0.434000000000000274,-5.421914224734942778
0.435000000000000275,-5.421957291005751856
0.436000000000000276,-5.421818852976195480
0.437000000000000277,-5.421492916425806996
0.438000000000000278,-5.420973659435674996
0.439000000000000279,-5.420255437205105054
0.440000000000000280,-5.419332786384980061
0.441000000000000281,-5.418200428945574743
0.442000000000000282,-5.416853275596449357
0.443000000000000282,-5.415286428775476502
0.444000000000000283,-5.413495185224223682
0.445000000000000284,-5.411475038166214446
0.446000000000000285,-5.409221679104520675
0.447000000000000286,-5.406730999254927283
0.448000000000000287,-5.403999090630231983
0.449000000000000288,-5.401022246791384873
0.450000000000000289,-5.397796963280434568
0.451000000000000290,-5.394319937750192473
0.452000000000000290,-5.390588069805122728
0.453000000000000291,-5.386598460567457280
0.454000000000000292,-5.382348411982500025
0.455000000000000293,-5.377835425876424047
0.456000000000000294,-5.373057202779739860
0.457000000000000295,-5.368011640529200434
0.458000000000000296,-5.362696832660427404
0.459000000000000297,-5.357111066603478911
0.460000000000000298,-5.351252821692923156
0.461000000000000298,-5.345120767003864515
0.462000000000000299,-5.338713759024902750
0.463000000000000300,-5.332030839178693249
0.464000000000000301,-5.325071231200493749
0.465000000000000302,-5.317834338384638038
0.466000000000000303,-5.310319740708662195
0.467000000000000304,-5.302527191844402132
0.468000000000000305,-5.294456616065076560
0.469000000000000306,-5.286108105057076401
0.470000000000000306,-5.277481914644901018
0.471000000000000307,-5.268578461437154914
0.472000000000000308,-5.259398319401620725
0.473000000000000309,-5.249942216376708437
0.474000000000000310,-5.240211030526529257
0.475000000000000311,-5.230205786746511265
0.476000000000000312,-5.219927653026180003
0.477000000000000313,-5.209377936775428708
0.478000000000000314,-5.198558081120328467
0.479000000000000314,-5.187469661174413105
0.480000000000000315,-5.176114380290828265
0.481000000000000316,-5.164494066300813202
0.482000000000000317,-5.152610667743462436
0.483000000000000318,-5.140466250091669131
0.484000000000000319,-5.128062991978780794
0.485000000000000320,-5.115403181430403734
0.486000000000000321,-5.102489212105451699
0.487000000000000322,-5.089323579550424803
0.488000000000000322,-5.075908877470522995
0.489000000000000323,-5.062247794021331515
0.490000000000000324,-5.048343108124217160
0.491000000000000325,-5.034197685808675438
0.492000000000000326,-5.019814476584516960
0.493000000000000327,-5.005196509846786768
0.494000000000000328,-4.990346891315885713
0.495000000000000329,-4.975268799515466078
0.496000000000000330,-4.959965482290230376
0.497000000000000330,-4.944440253365995019
0.498000000000000331,-4.928696488953649535
0.499000000000000332,-4.912737624399211356
0.500000000000000333,-4.896567150881431019
0.501000000000000334,-4.880188612158524286
0.502000000000000335,-4.863605601365575737
0.503000000000000336,-4.846821757863793323
0.504000000000000337,-4.829840764142876886
0.505000000000000338,-4.812666342777517592
0.506000000000000338,-4.795302253439024831
0.507000000000000339,-4.777752289962899468
0.508000000000000340,-4.760020277473094197
0.509000000000000341,-4.742110069563731045
0.510000000000000342,-4.724025545538622417
0.511000000000000343,-4.705770607709281350
0.512000000000000344,-4.687349178751647472
0.513000000000000345,-4.668765199121912346
0.514000000000000346,-4.650022624531720439
0.515000000000000346,-4.631125423482727932
0.516000000000000347,-4.612077574860755647
0.517000000000000348,-4.592883065589552061
0.518000000000000349,-4.573545888343971910
0.519000000000000350,-4.554070039322651198
0.520000000000000351,-4.534459516079826003
0.521000000000000352,-4.514718315416288874
0.522000000000000353,-4.494850431328980989
0.523000000000000353,-4.474859853019051315
0.524000000000000354,-4.454750562958027515
0.525000000000000355,-4.434526535011550585
0.526000000000000356,-4.414191732620376563
0.527000000000000357,-4.393750107038091990
0.528000000000000358,-4.373205595624978237
0.529000000000000359,-4.352562120197595696
0.530000000000000360,-4.331823585433332013
0.531000000000000361,-4.310993877329455159
0.532000000000000361,-4.290076861715933276
0.533000000000000362,-4.269076382821384463
0.534000000000000363,-4.247996261891475278
0.535000000000000364,-4.226840295859036090
0.536000000000000365,-4.205612256065180077
0.537000000000000366,-4.184315887030685133
0.538000000000000367,-4.162954905276802897
0.539000000000000368,-4.141532998194887405
0.540000000000000369,-4.120053822963800627
0.541000000000000369,-4.098521005514582427
0.542000000000000370,-4.076938139541281814
0.543000000000000371,-4.055308785557373952
0.544000000000000372,-4.033636469996770835
0.545000000000000373,-4.011924684358691096
0.546000000000000374,-3.990176884395467916
0.547000000000000375,-3.968396489342508993
0.548000000000000376,-3.946586881189558138
0.549000000000000377,-3.924751403992376986
0.550000000000000377,-3.902893363224022583
0.551000000000000378,-3.881016025164832683
0.552000000000000379,-3.859122616330370903
0.553000000000000380,-3.837216322936340074
0.554000000000000381,-3.815300290399694205
0.555000000000000382,-3.793377622875189648
0.556000000000000383,-3.771451382826312315
0.557000000000000384,-3.749524590630010756
0.558000000000000385,-3.727600224214179914
0.559000000000000385,-3.705681218727234771
0.560000000000000386,-3.683770466238848851
0.561000000000000387,-3.661870815471115925
0.562000000000000388,-3.639985071559246332
0.563000000000000389,-3.618115995841146848
0.564000000000000390,-3.596266305674897801
0.565000000000000391,-3.574438674283521244
0.566000000000000392,-3.552635730626157340
0.567000000000000393,-3.530860059294966824
0.568000000000000393,-3.509114200436897590
0.569000000000000394,-3.487400649699689215
0.570000000000000395,-3.465721858201317396
0.571000000000000396,-3.444080232522107821
0.572000000000000397,-3.422478134718950571
0.573000000000000398,-3.400917882360714906
0.574000000000000399,-3.379401748584367482
0.575000000000000400,-3.357931962170924489
0.576000000000000401,-3.336510707640703011
0.577000000000000401,-3.315140125367193491
0.578000000000000402,-3.293822311708790807
0.579000000000000403,-3.272559319157864799
0.580000000000000404,-3.251353156506541442
0.581000000000000405,-3.230205789028446794
0.582000000000000406,-3.209119138675995853
0.583000000000000407,-3.188095084292436709
0.584000000000000408,-3.167135461838253008
0.585000000000000409,-3.146242064631207924
0.586000000000000409,-3.125416643599521649
0.587000000000000410,-3.104660907547698301
0.588000000000000411,-3.083976523434304617
0.589000000000000412,-3.063365116661380227
0.590000000000000413,-3.042828271374763638
0.591000000000000414,-3.022367530774960009
0.592000000000000415,-3.001984397438055119
0.593000000000000416,-2.981680333646078651
0.594000000000000417,-2.961456761726460662
0.595000000000000417,-2.941315064400164658
0.596000000000000418,-2.921256585137781414
0.597000000000000419,-2.901282628523556451
0.598000000000000420,-2.881394460626498955
0.599000000000000421,-2.861593309378494876
0.600000000000000422,-2.841880364958798033
0.601000000000000423,-2.822256780184609237
0.602000000000000424,-2.802723670907317999
0.603000000000000425,-2.783282116414063090
0.604000000000000425,-2.763933159834179865
0.605000000000000426,-2.744677808550239018
0.606000000000000427,-2.725517034613376133
0.607000000000000428,-2.706451775162327600
0.608000000000000429,-2.687482932846282591
0.609000000000000430,-2.668611376250707767
0.610000000000000431,-2.649837940326320140
0.611000000000000432,-2.631163426820563700
0.612000000000000433,-2.612588604711428619
