# ZnO1m210NBDry_CS-161778-AC
# h[nm],U(h)[kJ/mol]
0.200000000000000011,55.875666035063147774
0.201000000000000012,55.182536381925544333
0.202000000000000013,54.194364480926481065
0.203000000000000014,53.076726986331024705
0.204000000000000015,51.920344975401874876
0.205000000000000016,50.769963804773240668
0.206000000000000016,49.643478963016086425
0.207000000000000017,48.544263828621708967
0.208000000000000018,47.468833971866637000
0.209000000000000019,46.411374383307794744
0.210000000000000020,45.366208423955981743
0.211000000000000021,44.328960360810775398
0.212000000000000022,43.296926585539239341
0.213000000000000023,42.269000855723596999
0.214000000000000024,41.245378624169603654
0.215000000000000024,40.227181527967367458
0.216000000000000025,39.216085491878693858
0.217000000000000026,38.213997271650477217
0.218000000000000027,37.222799142871402012
0.219000000000000028,36.244165794900013111
0.220000000000000029,35.279448369383473505
0.221000000000000030,34.329615855781646871
0.222000000000000031,33.395242195822895326
0.223000000000000032,32.476527377861643231
0.224000000000000032,31.573341773572280999
0.225000000000000033,30.685284476447741042
0.226000000000000034,29.811748110408224477
0.227000000000000035,28.951984276813270469
0.228000000000000036,28.105165374818362523
0.229000000000000037,27.270439897935819573
0.230000000000000038,26.446979452898887075
0.231000000000000039,25.634016664870365787
0.232000000000000040,24.830873840431650024
0.233000000000000040,24.036982779813779842
0.234000000000000041,23.251896489402216872
0.235000000000000042,22.475293772228553735
0.236000000000000043,21.706977794240337687
0.237000000000000044,20.946869761511724306
0.238000000000000045,20.194998819163256343
0.239000000000000046,19.451489214421563645
0.240000000000000047,18.716545668715895090
0.241000000000000048,17.990437788887323478
0.242000000000000048,17.273484224815483401
0.243000000000000049,16.566037157163471250
0.244000000000000050,15.868467579723434469
0.245000000000000051,15.181151729650419924
0.246000000000000052,14.504458918066841733
0.247000000000000053,13.838740924438445390
0.248000000000000054,13.184323041315902714
0.249000000000000055,12.541496791455433168
0.250000000000000056,11.910514286492148273
0.251000000000000056,11.291584154458089273
0.252000000000000057,10.684868931535131509
0.253000000000000058,10.090483790426505450
0.254000000000000059,9.508496462489933521
0.255000000000000060,8.938928202181482874
0.256000000000000061,8.381755639332592267
0.257000000000000062,7.836913366313929430
0.258000000000000063,7.304297112302431394
0.259000000000000064,6.783767364828770852
0.260000000000000064,6.275153308804957142
0.261000000000000065,5.778256964677225049
0.262000000000000066,5.292857419668257180
0.263000000000000067,4.818715058810136398
0.264000000000000068,4.355575715244666135
0.265000000000000069,3.903174671778022908
0.266000000000000070,3.461240457685621941
0.267000000000000071,3.029498396088112333
0.268000000000000071,2.607673867734165540
0.269000000000000072,2.195495266641570797
0.270000000000000073,1.792696631716647726
0.271000000000000074,1.399019946173033935
0.272000000000000075,1.014217103308669321
0.273000000000000076,0.638051542999882981
0.274000000000000077,0.270299568171864013
0.275000000000000078,-0.089248645442699906
0.276000000000000079,-0.440788329681858049
0.277000000000000079,-0.784499675357793191
0.278000000000000080,-1.120547633693902423
0.279000000000000081,-1.449081945516739856
0.280000000000000082,-1.770237375158541848
0.281000000000000083,-2.084134125719250274
0.282000000000000084,-2.390878412424288335
0.283000000000000085,-2.690563171237180473
0.284000000000000086,-2.983268880589361238
0.285000000000000087,-3.269064475019875182
0.286000000000000087,-3.548008330630950447
0.287000000000000088,-3.820149303517042405
0.288000000000000089,-4.085527803677633685
0.289000000000000090,-4.344176888344842169
0.290000000000000091,-4.596123360114417800
0.291000000000000092,-4.841388856739968993
0.292000000000000093,-5.079990920910711694
0.293000000000000094,-5.311944039766227199
0.294000000000000095,-5.537260645291134153
0.295000000000000095,-5.755952068066905625
0.296000000000000096,-5.968029438126015940
0.297000000000000097,-6.173504527849386747
0.298000000000000098,-6.372390532964844034
0.299000000000000099,-6.564702788739549710
0.300000000000000100,-6.750459419410087314
0.301000000000000101,-6.929681919760719566
0.302000000000000102,-7.102395668541971574
0.303000000000000103,-7.268630374122250437
0.304000000000000103,-7.428420453383751010
0.305000000000000104,-7.581805345416714026
0.306000000000000105,-7.728829762034044037
0.307000000000000106,-7.869543877526808728
0.308000000000000107,-8.004003460413841253
0.309000000000000108,-8.132269950209753517
0.310000000000000109,-8.254410482450479591
0.311000000000000110,-8.370497865376753666
0.312000000000000111,-8.480610511790988681
0.313000000000000111,-8.584832329672924089
0.314000000000000112,-8.683252575171541920
0.315000000000000113,-8.775965671587147909
0.316000000000000114,-8.863070997923525596
0.317000000000000115,-8.944672650528499247
0.318000000000000116,-9.020879181256592716
0.319000000000000117,-9.091803315482426484
0.320000000000000118,-9.157561653171679694
0.321000000000000119,-9.218274356080630838
0.322000000000000119,-9.274064824008046770
0.323000000000000120,-9.325059362867230917
0.324000000000000121,-9.371386847183705626
0.325000000000000122,-9.413178379456894618
0.326000000000000123,-9.450566948654643085
0.327000000000000124,-9.483687089938788617
0.328000000000000125,-9.512674547550117765
0.329000000000000126,-9.537665942612395753
0.330000000000000127,-9.558798447450120861
0.331000000000000127,-9.576209467852871526
0.332000000000000128,-9.590036334562373810
0.333000000000000129,-9.600416005107017980
0.334000000000000130,-9.607484776962818884
0.335000000000000131,-9.611378012881148791
0.336000000000000132,-9.612229879090673279
0.337000000000000133,-9.610173096956129868
0.338000000000000134,-9.605338708558175398
0.339000000000000135,-9.597855856547756304
0.340000000000000135,-9.587851578525134144
0.341000000000000136,-9.575450616097326062
0.342000000000000137,-9.560775238679086740
0.343000000000000138,-9.543945082020378834
0.344000000000000139,-9.525077001368963181
0.345000000000000140,-9.504284939108300634
0.346000000000000141,-9.481679806649655262
0.347000000000000142,-9.457369380302122153
0.348000000000000143,-9.431458210795280905
0.349000000000000143,-9.404047546085731568
0.350000000000000144,-9.375235267041212239
0.351000000000000145,-9.345115835563284179
0.352000000000000146,-9.313780254682031412
0.353000000000000147,-9.281316040133299694
0.354000000000000148,-9.247807202910310664
0.355000000000000149,-9.213334242266892460
0.356000000000000150,-9.177974148638924135
0.357000000000000151,-9.141800415943096780
0.358000000000000151,-9.104883062708127639
0.359000000000000152,-9.067288661492328927
0.360000000000000153,-9.029080376043069123
0.361000000000000154,-8.990318005657581324
0.362000000000000155,-8.951058036210746138
0.363000000000000156,-8.911353697323797007
0.364000000000000157,-8.871255025157555707
0.365000000000000158,-8.830808930325723338
0.366000000000000159,-8.790059270436135108
0.367000000000000159,-8.749046926782352074
0.368000000000000160,-8.707809884722818694
0.369000000000000161,-8.666383317300768496
0.370000000000000162,-8.624799671674669099
0.371000000000000163,-8.583088757946390146
0.372000000000000164,-8.541277839991492371
0.373000000000000165,-8.499391727914467509
0.374000000000000166,-8.457452871769605807
0.375000000000000167,-8.415481456206435951
0.376000000000000167,-8.373495495717238057
0.377000000000000168,-8.331510930181995178
0.378000000000000169,-8.289541720424475457
0.379000000000000170,-8.247599943510980580
0.380000000000000171,-8.205695887540748856
0.381000000000000172,-8.163838145694525039
0.382000000000000173,-8.122033709324430362
0.383000000000000174,-8.080288059885145202
0.384000000000000175,-8.038605259522089597
0.385000000000000175,-7.996988040148167443
0.386000000000000176,-7.955437890855587391
0.387000000000000177,-7.913955143523837776
0.388000000000000178,-7.872539056499062049
0.389000000000000179,-7.831187896233321233
0.390000000000000180,-7.789899016785393648
0.391000000000000181,-7.748668937096951481
0.392000000000000182,-7.707493415969831396
0.393000000000000183,-7.666367524681275469
0.394000000000000183,-7.625285717184704382
0.395000000000000184,-7.584241897853677195
0.396000000000000185,-7.543229486736197309
0.397000000000000186,-7.502241482295524122
0.398000000000000187,-7.461270521622097363
0.399000000000000188,-7.420308938109154262
0.400000000000000189,-7.379348816591845939
0.401000000000000190,-7.338382045956810984
0.402000000000000191,-7.297400369235416129
0.403000000000000191,-7.256395431199782919
0.404000000000000192,-7.215358823486409889
0.405000000000000193,-7.174282127276926602
0.406000000000000194,-7.133156953570448877
0.407000000000000195,-7.091974981086013763
0.408000000000000196,-7.050727991837402620
0.409000000000000197,-7.009407904426138813
0.410000000000000198,-6.968006805101621737
0.411000000000000199,-6.926516976639758738
0.412000000000000199,-6.884930925094297827
0.413000000000000200,-6.843241404476837708
0.414000000000000201,-6.801441439423435042
0.415000000000000202,-6.759524345907175658
0.416000000000000203,-6.717483750057477998
0.417000000000000204,-6.675313605147698226
0.418000000000000205,-6.633008206813582497
0.419000000000000206,-6.590562206565588887
0.420000000000000207,-6.547970623658402545
0.421000000000000207,-6.505228855381322894
0.422000000000000208,-6.462332685832907764
0.423000000000000209,-6.419278293243406708
0.424000000000000210,-6.376062255907935850
0.425000000000000211,-6.332681556792957522
0.426000000000000212,-6.289133586878168813
0.427000000000000213,-6.245416147294895026
0.428000000000000214,-6.201527450321589363
0.429000000000000214,-6.157466119295847307
0.430000000000000215,-6.113231187501519059
0.431000000000000216,-6.068822096088328344
0.432000000000000217,-6.024238691080231689
0.433000000000000218,-5.979481219527566616
0.434000000000000219,-5.934550324856769699
0.435000000000000220,-5.889447041470075916
0.436000000000000221,-5.844172788646245564
0.437000000000000222,-5.798729363791999880
0.438000000000000222,-5.753118935092353503
0.439000000000000223,-5.707344033606655209
0.440000000000000224,-5.661407544855597607
0.441000000000000225,-5.615312699942969665
0.442000000000000226,-5.569063066254554606
0.443000000000000227,-5.522662537774879254
0.444000000000000228,-5.476115325061199357
0.445000000000000229,-5.429425944912521729
0.446000000000000230,-5.382599209769932891
0.447000000000000230,-5.335640216883215103
0.448000000000000231,-5.288554337277026285
0.449000000000000232,-5.241347204548604921
0.450000000000000233,-5.194024703527599485
0.451000000000000234,-5.146592958826994746
0.452000000000000235,-5.099058323313014007
0.453000000000000236,-5.051427366520167439
0.454000000000000237,-5.003706863036700092
0.455000000000000238,-4.955903780883923915
0.456000000000000238,-4.908025269912074329
0.457000000000000239,-4.860078650233737640
0.458000000000000240,-4.812071400714945213
0.459000000000000241,-4.764011147542555946
0.460000000000000242,-4.715905652885774124
0.461000000000000243,-4.667762803668102478
0.462000000000000244,-4.619590600465324215
0.463000000000000245,-4.571397146543701773
0.464000000000000246,-4.523190637051918372
0.465000000000000246,-4.474979348378962385
0.466000000000000247,-4.426771627689439548
0.467000000000000248,-4.378575882646726924
0.468000000000000249,-4.330400571333614224
0.469000000000000250,-4.282254192379097546
0.470000000000000251,-4.234145275299283639
0.471000000000000252,-4.186082371059445251
0.472000000000000253,-4.138074042863694402
0.473000000000000254,-4.090128857177766974
0.474000000000000254,-4.042255374989975891
0.475000000000000255,-3.994462143314481573
0.476000000000000256,-3.946757686940595367
0.477000000000000257,-3.899150500431112221
0.478000000000000258,-3.851649040372084443
0.479000000000000259,-3.804261717875979887
0.480000000000000260,-3.756996891339594580
0.481000000000000261,-3.709862859457532469
0.482000000000000262,-3.662867854491755448
0.483000000000000262,-3.616020035797133492
0.484000000000000263,-3.569327483602500628
0.485000000000000264,-3.522798193046440041
0.486000000000000265,-3.476440068466559730
0.487000000000000266,-3.430260917940651133
0.488000000000000267,-3.384268448077896174
0.489000000000000268,-3.338470259057919609
0.490000000000000269,-3.292873839915144707
0.491000000000000270,-3.247486564065821035
0.492000000000000270,-3.202315685074583307
0.493000000000000271,-3.157368332657472187
0.494000000000000272,-3.112651508917902099
0.495000000000000273,-3.068172084811922495
0.496000000000000274,-3.023936796839119978
0.497000000000000275,-2.979952243955017899
0.498000000000000276,-2.936224884701018389
0.499000000000000277,-2.892761034547584487
0.500000000000000222,-2.849566863446297837
0.501000000000000334,-2.806648393586389734
0.502000000000000224,-2.764011497351183344
0.503000000000000336,-2.721661895469741577
0.504000000000000226,-2.679605155359204183
0.505000000000000338,-2.637846689652813215
0.506000000000000227,-2.596391754909133986
0.507000000000000339,-2.555245450497317439
0.508000000000000229,-2.514412717653833340
0.509000000000000341,-2.473898338705526889
0.510000000000000231,-2.433706936454411274
0.511000000000000343,-2.393842973718965261
0.512000000000000233,-2.354310753027364811
0.513000000000000345,-2.315114416457498159
0.514000000000000234,-2.276257945619211576
0.515000000000000346,-2.237745161773589064
0.516000000000000236,-2.199579726084850861
0.517000000000000348,-2.161765139999777041
0.518000000000000238,-2.124304745750201562
0.519000000000000350,-2.087201726973662463
0.520000000000000240,-2.050459109447803741
0.521000000000000352,-2.014079761933790014
0.522000000000000242,-1.978066397124337517
0.523000000000000353,-1.942421572691805043
0.524000000000000243,-1.907147692432077379
0.525000000000000355,-1.872247007499802107
0.526000000000000245,-1.837721617730871060
0.527000000000000357,-1.803573473047785480
0.528000000000000247,-1.769804374944037972
0.529000000000000359,-1.736415978043241326
0.530000000000000249,-1.703409791729287193
0.531000000000000361,-1.670787181843464086
0.532000000000000250,-1.638549372444952024
0.533000000000000362,-1.606697447630792031
0.534000000000000252,-1.575232353411882169
0.535000000000000364,-1.544154899641330569
0.536000000000000254,-1.513465761991861669
0.537000000000000366,-1.483165483978693855
0.538000000000000256,-1.453254479024889578
0.539000000000000368,-1.423733032565676515
0.540000000000000258,-1.394601304188936464
0.541000000000000369,-1.365859329808520428
0.542000000000000259,-1.337507023867765321
0.543000000000000371,-1.309544181570073462
0.544000000000000261,-1.281970481133996698
0.545000000000000373,-1.254785486069986522
0.546000000000000263,-1.227988647476344175
0.547000000000000375,-1.201579306351644005
0.548000000000000265,-1.175556695921477823
0.549000000000000377,-1.149919943976832171
0.550000000000000266,-1.124668075222104102
0.551000000000000378,-1.099800013630339190
0.552000000000000268,-1.075314584803712004
0.553000000000000380,-1.051210518337088784
0.554000000000000270,-1.027486450182817368
0.555000000000000382,-1.004140925014689767
0.556000000000000272,-0.981172398589446049
0.557000000000000384,-0.958579240103845764
0.558000000000000274,-0.936359734545855416
0.559000000000000385,-0.914512085038101774
0.560000000000000275,-0.893034415172274665
0.561000000000000387,-0.871924771332805215
0.562000000000000277,-0.851181125008538819
0.563000000000000389,-0.830801375090975847
0.564000000000000279,-0.810783350157852079
0.565000000000000391,-0.791124810740772899
0.566000000000000281,-0.771823451575791575
0.567000000000000393,-0.752876903835770106
0.568000000000000282,-0.734282737343556313
0.569000000000000394,-0.716038462764853612
0.570000000000000284,-0.698141533779996548
0.571000000000000396,-0.680589349233602592
0.572000000000000286,-0.663379255261404288
0.573000000000000398,-0.646508547393324196
0.574000000000000288,-0.629974472632199523
0.575000000000000400,-0.613774231507381640
0.576000000000000290,-0.597904980102600403
0.577000000000000401,-0.582363832057477659
0.578000000000000291,-0.567147860542177362
0.579000000000000403,-0.552254100204607856
0.580000000000000293,-0.537679549089803421
0.581000000000000405,-0.523421170530952162
0.582000000000000295,-0.509475895011774149
0.583000000000000407,-0.495840621999808273
0.584000000000000297,-0.482512221750361792
0.585000000000000409,-0.469487537080782336
0.586000000000000298,-0.456763385114852483
0.587000000000000410,-0.444336558997033948
0.588000000000000300,-0.432203829576437493
0.589000000000000412,-0.420361947060287400
0.590000000000000302,-0.408807642636825896
0.591000000000000414,-0.397537630067524184
0.592000000000000304,-0.386548607248512532
0.593000000000000416,-0.375837257741204300
0.594000000000000306,-0.365400252272106263
0.595000000000000417,-0.355234250201777069
0.596000000000000307,-0.345335900962984721
0.597000000000000419,-0.335701845468109439
0.598000000000000309,-0.326328717485868669
0.599000000000000421,-0.317213144987401330
0.600000000000000311,-0.308351751461905244
0.601000000000000423,-0.299741157201857067
0.602000000000000313,-0.291377980558061300
0.603000000000000425,-0.283258839164550857
0.604000000000000314,-0.275380351133696244
0.605000000000000426,-0.267739136221516572
0.606000000000000316,-0.260331816963571605
0.607000000000000428,-0.253155019781512336
0.608000000000000318,-0.246205376060639303
0.609000000000000430,-0.239479523198613903
0.610000000000000320,-0.232974105625650185
0.611000000000000432,-0.226685775796407640
0.612000000000000322,-0.220611195153881029
0.613000000000000433,-0.214747035065566833
0.614000000000000323,-0.209089977732206916
0.615000000000000435,-0.203636717069401563
0.616000000000000325,-0.198383959562407813
0.617000000000000437,-0.193328425094442619
0.618000000000000327,-0.188466847748815253
0.619000000000000439,-0.183795976585205495
0.620000000000000329,-0.179312576390449646
0.621000000000000441,-0.175013428404151766
0.622000000000000330,-0.170895331019481928
0.623000000000000442,-0.166955100459497019
0.624000000000000332,-0.163189571429350533
0.625000000000000444,-0.159595597744752543
0.626000000000000334,-0.156170052937015025
0.627000000000000446,-0.152909830835085081
0.628000000000000336,-0.149811846124889902
0.629000000000000448,-0.146873034886392528
0.630000000000000338,-0.144090355108715984
0.631000000000000449,-0.141460787183698034
0.632000000000000339,-0.138981334378263710
0.633000000000000451,-0.136649023285971116
0.634000000000000341,-0.134460904258113273
0.635000000000000453,-0.132414051814757544
0.636000000000000343,-0.130505565036046323
0.637000000000000455,-0.128732567934213893
0.638000000000000345,-0.127092209806604323
0.639000000000000457,-0.125581665570112799
0.640000000000000346,-0.124198136077401627
0.641000000000000458,-0.122938848415263924
0.642000000000000348,-0.121801056185484896
0.643000000000000460,-0.120782039768589394
0.644000000000000350,-0.119879106570811161
0.645000000000000462,-0.119089591254669183
0.646000000000000352,-0.118410855953479749
0.647000000000000464,-0.117840290470182893
0.648000000000000353,-0.117375312460825471
0.649000000000000465,-0.117013367603046342
0.650000000000000355,-0.116751929749919575
0.651000000000000467,-0.116588501069484082
0.652000000000000357,-0.116520612170322418
0.653000000000000469,-0.116545822213497713
0.654000000000000359,-0.116661719011213513
0.655000000000000471,-0.116865919112487365
0.656000000000000361,-0.117156067876209552
0.657000000000000473,-0.117529839531871877
0.658000000000000362,-0.117984937228309800
0.659000000000000474,-0.118519093070753034
0.660000000000000364,-0.119130068146524576
0.661000000000000476,-0.119815652539664863
0.662000000000000366,-0.120573665334797381
0.663000000000000478,-0.121401954610552726
