# ZnO1m210NBDry_Water
# h[nm],U(h)[kJ/mol]
0.149999999999999994,42.493530297901280335
0.150999999999999995,41.601456028462948211
0.151999999999999996,40.915619132963897187
0.152999999999999997,40.241635549160911012
0.153999999999999998,39.520430292743718326
0.154999999999999999,38.752422639745702782
0.156000000000000000,37.958019326409868199
0.157000000000000001,37.158980798331754158
0.158000000000000002,36.371207224872946995
0.159000000000000002,35.603317053744014231
0.160000000000000003,34.857794811399642754
0.161000000000000004,34.132961631615287956
0.162000000000000005,33.424902910933099065
0.163000000000000006,32.728992164834458833
0.164000000000000007,32.040922526114449909
0.165000000000000008,31.357290422066643742
0.166000000000000009,30.675828906206760394
0.167000000000000010,29.995397660505819459
0.168000000000000010,29.315825035387554465
0.169000000000000011,28.637677554565932780
0.170000000000000012,27.962011137548500983
0.171000000000000013,27.290139376810003569
0.172000000000000014,26.623438945327063010
0.173000000000000015,25.963200832920563244
0.174000000000000016,25.310528254116945845
0.175000000000000017,24.666277124278749966
0.176000000000000018,24.031032298503909317
0.177000000000000018,23.405111691073521740
0.178000000000000019,22.788590417704252644
0.179000000000000020,22.181337811309255414
0.180000000000000021,21.583061239789191887
0.181000000000000022,20.993351876506885390
0.182000000000000023,20.411728788921951860
0.183000000000000024,19.837678824044907344
0.184000000000000025,19.270690729352260462
0.185000000000000026,18.710282733519157716
0.186000000000000026,18.156023422323535499
0.187000000000000027,17.607546193890993180
0.188000000000000028,17.064557883917952807
0.189000000000000029,16.526842338711155378
0.190000000000000030,15.994259805362654348
0.191000000000000031,15.466743026382800963
0.192000000000000032,14.944290890538255212
0.193000000000000033,14.426960419535124203
0.194000000000000034,13.914857775614034807
0.195000000000000034,13.408128869262412763
0.196000000000000035,12.906950037649428609
0.197000000000000036,12.411519159293144199
0.198000000000000037,11.922047473171859977
0.199000000000000038,11.438752283692936729
0.200000000000000039,10.961850658068566844
0.201000000000000040,10.491554160186502997
0.202000000000000041,10.028064614760628714
0.203000000000000042,9.571570856659670667
0.204000000000000042,9.122246391776750229
0.205000000000000043,8.680247876371419480
0.206000000000000044,8.245714310162735927
0.207000000000000045,7.818766833257337012
0.208000000000000046,7.399509016997379618
0.209000000000000047,6.988027542846171336
0.210000000000000048,6.584393170450953292
0.211000000000000049,6.188661905122231133
0.212000000000000050,5.800876285369546359
0.213000000000000050,5.421066722192810161
0.214000000000000051,5.049252833022183751
0.215000000000000052,4.685444724121743398
0.216000000000000053,4.329644185614400342
0.217000000000000054,3.981845772826830832
0.218000000000000055,3.642037756248721614
0.219000000000000056,3.310202929966953977
0.220000000000000057,2.986319274937960788
0.221000000000000058,2.670360478911665947
0.222000000000000058,2.362296319251421473
0.223000000000000059,2.062092918372727013
0.224000000000000060,1.769712884122402796
0.225000000000000061,1.485115349228780746
0.226000000000000062,1.208255925064086300
0.227000000000000063,0.939086585466717194
0.228000000000000064,0.677555496366361920
0.229000000000000065,0.423606806526446278
0.230000000000000066,0.177180413951201876
0.231000000000000066,-0.061788278527033211
0.232000000000000067,-0.293368606189585268
0.233000000000000068,-0.517634872970006321
0.234000000000000069,-0.734666560094184851
0.235000000000000070,-0.944548504797124266
0.236000000000000071,-1.147371042555574538
0.237000000000000072,-1.343230107702815035
0.238000000000000073,-1.532227288654749220
0.239000000000000073,-1.714469835256078101
0.240000000000000074,-1.890070616937440606
0.241000000000000075,-2.059148031447032068
0.242000000000000076,-2.221825864878608225
0.243000000000000077,-2.378233104558389321
0.244000000000000078,-2.528503707075778095
0.245000000000000079,-2.672776324349767751
0.246000000000000080,-2.811193991117903579
0.247000000000000081,-2.943903777624288232
0.248000000000000081,-3.071056411572715028
0.249000000000000082,-3.192805873609300793
0.250000000000000111,-3.309308970713610076
0.251000000000000112,-3.420724891916068877
0.252000000000000113,-3.527214750732258430
0.253000000000000114,-3.628941118617591943
0.254000000000000115,-3.726067553609857530
0.255000000000000115,-3.818758128147341946
0.256000000000000116,-3.907176959836006880
0.257000000000000117,-3.991487748696679994
0.258000000000000118,-4.071853324158603904
0.259000000000000119,-4.148435204785824837
0.260000000000000120,-4.221393173432313795
0.261000000000000121,-4.290884870225443848
0.262000000000000122,-4.357065405480122777
0.263000000000000123,-4.420086994350770127
0.264000000000000123,-4.480098614739022267
0.265000000000000124,-4.537245689694097805
0.266000000000000125,-4.591669795272702359
0.267000000000000126,-4.643508394567759545
0.268000000000000127,-4.692894598372132187
0.269000000000000128,-4.739956952715338900
0.270000000000000129,-4.784819253299579245
0.271000000000000130,-4.827600386666322407
0.272000000000000131,-4.868414197746514738
0.273000000000000131,-4.907369383286622977
0.274000000000000132,-4.944569410498524498
0.275000000000000133,-4.980112460154020759
0.276000000000000134,-5.014091393233532479
0.277000000000000135,-5.046593740142961693
0.278000000000000136,-5.077701711432424325
0.279000000000000137,-5.107492228884185970
0.280000000000000138,-5.136036975784526781
0.281000000000000139,-5.163402465154233845
0.282000000000000139,-5.189650124684186849
0.283000000000000140,-5.214836397105182542
0.284000000000000141,-5.239012854713935852
0.285000000000000142,-5.262226326779085639
0.286000000000000143,-5.284519038561270143
0.287000000000000144,-5.305928760698938262
0.288000000000000145,-5.326488967736093372
0.289000000000000146,-5.346229004598012757
0.290000000000000147,-5.365174259856625660
0.291000000000000147,-5.383346344666526839
0.292000000000000148,-5.400763276296311588
0.293000000000000149,-5.417439665226072343
0.294000000000000150,-5.433386904830933339
0.295000000000000151,-5.448613362721369313
0.296000000000000152,-5.463124572863178763
0.297000000000000153,-5.476923427653287213
0.298000000000000154,-5.490010369181202776
0.299000000000000155,-5.502383578959832988
0.300000000000000155,-5.514039165462929049
0.301000000000000156,-5.524971348859581965
0.302000000000000157,-5.535172642388422659
0.303000000000000158,-5.544634029865399327
0.304000000000000159,-5.553345138869032915
0.305000000000000160,-5.561294409195390642
0.306000000000000161,-5.568469256222090991
0.307000000000000162,-5.574856228865701091
0.308000000000000163,-5.580441161860196786
0.309000000000000163,-5.585209322125568754
0.310000000000000164,-5.589145549035070992
0.311000000000000165,-5.592234388426889247
0.312000000000000166,-5.594460220241384896
0.313000000000000167,-5.595807379698216621
0.314000000000000168,-5.596260271958845678
0.315000000000000169,-5.595803480248927819
0.316000000000000170,-5.594421867442266105
0.317000000000000171,-5.592100671132897105
0.318000000000000171,-5.588825592245034279
0.319000000000000172,-5.584582877251802913
0.320000000000000173,-5.579359394092884727
0.321000000000000174,-5.573142701898816220
0.322000000000000175,-5.565921114645416168
0.323000000000000176,-5.557683758875930025
0.324000000000000177,-5.548420625641048431
0.325000000000000178,-5.538122616817850563
0.326000000000000179,-5.526781585978477906
0.327000000000000179,-5.514390373987298588
0.328000000000000180,-5.500942839512360294
0.329000000000000181,-5.486433884642631931
0.330000000000000182,-5.470859475806856054
0.331000000000000183,-5.454216660193535127
0.332000000000000184,-5.436503577873810222
0.333000000000000185,-5.417719469830629464
0.334000000000000186,-5.397864682098190592
0.335000000000000187,-5.376940666215491049
0.336000000000000187,-5.354949976197003636
0.337000000000000188,-5.331896262221815341
0.338000000000000189,-5.307784261240521495
0.339000000000000190,-5.282619784696411358
0.340000000000000191,-5.256409703554153268
0.341000000000000192,-5.229161930825752869
0.342000000000000193,-5.200885401779197004
0.343000000000000194,-5.171590052011073801
0.344000000000000195,-5.141286793559447510
0.345000000000000195,-5.109987489228565494
0.346000000000000196,-5.077704925291481430
0.347000000000000197,-5.044452782731509544
0.348000000000000198,-5.010245607177721716
0.349000000000000199,-4.975098777684056728
0.350000000000000200,-4.939028474495905208
0.351000000000000201,-4.902051645942107072
0.352000000000000202,-4.864185974584464667
0.353000000000000203,-4.825449842751034168
0.354000000000000203,-4.785862297573538982
0.355000000000000204,-4.745443015643351359
0.356000000000000205,-4.704212267394807689
0.357000000000000206,-4.662190881318805324
0.358000000000000207,-4.619400208103908057
0.359000000000000208,-4.575862084796762375
0.360000000000000209,-4.531598799068049743
0.361000000000000210,-4.486633053664839110
0.362000000000000210,-4.440987931125022214
0.363000000000000211,-4.394686858824366382
0.364000000000000212,-4.347753574421799883
0.365000000000000213,-4.300212091763612854
0.366000000000000214,-4.252086667302735989
0.367000000000000215,-4.203401767084545604
0.368000000000000216,-4.154182034346465713
0.369000000000000217,-4.104452257774229729
0.370000000000000218,-4.054237340453780369
0.371000000000000218,-4.003562269553721187
0.372000000000000219,-3.952452086769645767
0.373000000000000220,-3.900931859557959847
0.374000000000000221,-3.849026653183511115
0.375000000000000222,-3.796761503601924659
0.376000000000000223,-3.744161391194589239
0.377000000000000224,-3.691251215371188721
0.378000000000000225,-3.638055770051844995
0.379000000000000226,-3.584599720038367909
0.380000000000000226,-3.530907578281547110
0.381000000000000227,-3.477003684048966647
0.382000000000000228,-3.422912181995791059
0.383000000000000229,-3.368657002138655265
0.384000000000000230,-3.314261840730915232
0.385000000000000231,-3.259750142035775955
0.386000000000000232,-3.205145080991874895
0.387000000000000233,-3.150469546764521844
0.388000000000000234,-3.095746127174130446
0.389000000000000234,-3.040997093992196643
0.390000000000000235,-2.986244389093703155
0.391000000000000236,-2.931509611453877451
0.392000000000000237,-2.876814004975975614
0.393000000000000238,-2.822178447135994084
0.394000000000000239,-2.767623438429136939
0.395000000000000240,-2.713169092602240262
0.396000000000000241,-2.658835127655595265
0.397000000000000242,-2.604640857596886683
0.398000000000000242,-2.550605184929639169
0.399000000000000243,-2.496746593857843255
0.400000000000000244,-2.443083144188138434
0.401000000000000245,-2.389632465910648484
0.402000000000000246,-2.336411754439139177
0.403000000000000247,-2.283437766490978404
0.404000000000000248,-2.230726816587327299
0.405000000000000249,-2.178294774153691993
0.406000000000000250,-2.126157061201000342
0.407000000000000250,-2.074328650567320409
0.408000000000000251,-2.022824064700303737
0.409000000000000252,-1.971657374960575693
0.410000000000000253,-1.920842201426272267
0.411000000000000254,-1.870391713179156312
0.412000000000000255,-1.820318629052810833
0.413000000000000256,-1.770635218823655377
0.414000000000000257,-1.721353304825666397
0.415000000000000258,-1.672484263970027696
0.416000000000000258,-1.624039030151068319
0.417000000000000259,-1.576028097020215402
0.418000000000000260,-1.528461521109954813
0.419000000000000261,-1.481348925290072227
0.420000000000000262,-1.434699502538848481
0.421000000000000263,-1.388522020012148861
0.422000000000000264,-1.342824823393761857
0.423000000000000265,-1.297615841510618928
0.424000000000000266,-1.252902591197059046
0.425000000000000266,-1.208692182392464787
0.426000000000000267,-1.164991323457187589
0.427000000000000268,-1.121806326691929367
0.428000000000000269,-1.079143114046213991
0.429000000000000270,-1.037007223001996215
0.430000000000000271,-0.995403812618749662
0.431000000000000272,-0.954337669726926130
0.432000000000000273,-0.913813215256962463
0.433000000000000274,-0.873834510691496313
0.434000000000000274,-0.834405264628748533
0.435000000000000275,-0.795528839445580394
0.436000000000000276,-0.757208258048990279
0.437000000000000277,-0.719446210705254940
0.438000000000000278,-0.682245061936359143
0.439000000000000279,-0.645606857473679741
0.440000000000000280,-0.609533331259276223
0.441000000000000281,-0.574025912485554790
0.442000000000000282,-0.539085732664427275
0.443000000000000282,-0.504713632717400884
0.444000000000000283,-0.470910170078492896
0.445000000000000284,-0.437675625802132373
0.446000000000000285,-0.405010011668539338
0.447000000000000286,-0.372913077279570127
0.448000000000000287,-0.341384317138096471
0.449000000000000288,-0.310422977704567782
0.450000000000000289,-0.280028064424515555
0.451000000000000290,-0.250198348721215269
0.452000000000000290,-0.220932374947931720
0.453000000000000291,-0.192228467294515371
0.454000000000000292,-0.164084736643399898
0.455000000000000293,-0.136499087370287958
0.456000000000000294,-0.109469224085168501
0.457000000000000295,-0.082992658309471112
0.458000000000000296,-0.057066715085509048
0.459000000000000297,-0.031688539514555011
0.460000000000000298,-0.006855103220147596
0.461000000000000298,0.017436789266512952
0.462000000000000299,0.041190494202035889
0.463000000000000300,0.064409522409896433
0.464000000000000301,0.087097533145572809
0.465000000000000302,0.109258328050057557
0.466000000000000303,0.130895845193887028
0.467000000000000304,0.152014153213577530
0.468000000000000305,0.172617445542177672
0.469000000000000306,0.192710034735559060
0.470000000000000306,0.212296346895755939
0.471000000000000307,0.231380916192648056
0.472000000000000308,0.249968379484992814
0.473000000000000309,0.268063471041784240
0.474000000000000310,0.285671017364655888
0.475000000000000311,0.302795932112026378
0.476000000000000312,0.319443211125401250
0.477000000000000313,0.335617927558336249
0.478000000000000314,0.351325227108204907
0.479000000000000314,0.366570323350970451
0.480000000000000315,0.381358493179001168
0.481000000000000316,0.395695072341827658
0.482000000000000317,0.409585451089708563
0.483000000000000318,0.423035069919710793
0.484000000000000319,0.436049415423991893
0.485000000000000320,0.448634016239788380
0.486000000000000321,0.460794439100665421
0.487000000000000322,0.472536284988380628
0.488000000000000322,0.483865185384732999
0.489000000000000323,0.494786798622639856
0.490000000000000324,0.505306806335678926
0.491000000000000325,0.515430910005210130
0.492000000000000326,0.525164827604208018
0.493000000000000327,0.534514290336811193
0.494000000000000328,0.543485039472591969
0.495000000000000329,0.552082823274512746
0.496000000000000330,0.560313394019437139
0.497000000000000330,0.568182505110106040
0.498000000000000331,0.575695908277372936
0.499000000000000332,0.582859350871521409
0.500000000000000333,0.589678573241425696
0.501000000000000334,0.596159306200294337
0.502000000000000335,0.602307268576723898
0.503000000000000336,0.608128164849740527
0.504000000000000337,0.613627682866535351
0.505000000000000338,0.618811491641516831
0.506000000000000338,0.623685239235345135
0.507000000000000339,0.628254550712586179
0.508000000000000340,0.632525026176576022
0.509000000000000341,0.636502238880134907
0.510000000000000342,0.640191733410711783
0.511000000000000343,0.643599023948577376
0.512000000000000344,0.646729592596635094
0.513000000000000345,0.649588887780460311
0.514000000000000346,0.652182322717145380
0.515000000000000346,0.654515273951546184
0.516000000000000347,0.656593079958527004
0.517000000000000348,0.658421039809772735
0.518000000000000349,0.660004411903812205
0.519000000000000350,0.661348412757822190
0.520000000000000351,0.662458215859822230
0.521000000000000352,0.663338950579914988
0.522000000000000353,0.663995701139151073
0.523000000000000353,0.664433505634699939
0.524000000000000354,0.664657355119943949
0.525000000000000355,0.664672192738161360
0.526000000000000356,0.664482912908483492
0.527000000000000357,0.664094360562776709
0.528000000000000358,0.663511330432186797
0.529000000000000359,0.662738566382015892
0.530000000000000360,0.661780760793681866
0.531000000000000361,0.660642553992482950
0.532000000000000361,0.659328533719942711
0.533000000000000362,0.657843234649469699
0.534000000000000363,0.656191137944156067
0.535000000000000364,0.654376670855498332
0.536000000000000365,0.652404206361851702
0.537000000000000366,0.650278062845475402
0.538000000000000367,0.648002503807006081
0.539000000000000368,0.645581737616232387
0.540000000000000369,0.643019917298073063
0.541000000000000369,0.640321140352648532
0.542000000000000370,0.637489448608372755
0.543000000000000371,0.634528828107033815
0.544000000000000372,0.631443209019779794
0.545000000000000373,0.628236465593036697
0.546000000000000374,0.624912416123325598
0.547000000000000375,0.621474822960011331
0.548000000000000376,0.617927392535004949
0.549000000000000377,0.614273775418491597
0.550000000000000377,0.610517566399751743
0.551000000000000378,0.606662304592139767
0.552000000000000379,0.602711473561386990
0.553000000000000380,0.598668501476287362
0.554000000000000381,0.594536761280969994
0.555000000000000382,0.590319570887891443
0.556000000000000383,0.586020193390735966
0.557000000000000384,0.581641837296431485
0.558000000000000385,0.577187656775489777
0.559000000000000385,0.572660751929904288
0.560000000000000386,0.568064169077883263
0.561000000000000387,0.563400901054652792
0.562000000000000388,0.558673887528637225
0.563000000000000389,0.553886015332326509
0.564000000000000390,0.549040118807141320
0.565000000000000391,0.544138980161630315
0.566000000000000392,0.539185329842372107
0.567000000000000393,0.534181846916933267
0.568000000000000393,0.529131159468283485
0.569000000000000394,0.524035845000050515
0.570000000000000395,0.518898430852071435
0.571000000000000396,0.513721394625624384
0.572000000000000397,0.508507164617823859
0.573000000000000398,0.503258120264641007
0.574000000000000399,0.497976592592004441
0.575000000000000400,0.492664864674503378
0.576000000000000401,0.487325172101177095
0.577000000000000401,0.481959703447930821
0.578000000000000402,0.476570600756086260
0.579000000000000403,0.471159960016654611
0.580000000000000404,0.465729831659855875
0.581000000000000405,0.460282221049474694
0.582000000000000406,0.454819088981656627
0.583000000000000407,0.449342352187699301
0.584000000000000408,0.443853883840514385
0.585000000000000409,0.438355514064332041
0.586000000000000409,0.432849030447300720
0.587000000000000410,0.427336178556651902
0.588000000000000411,0.421818662456052373
0.589000000000000412,0.416298145224848093
0.590000000000000413,0.410776249478860600
0.591000000000000414,0.405254557892438694
0.592000000000000415,0.399734613721468901
0.593000000000000416,0.394217921327048360
0.594000000000000417,0.388705946699553384
0.595000000000000417,0.383200117982844701
0.596000000000000418,0.377701825998321972
0.597000000000000419,0.372212424768623151
0.598000000000000420,0.366733232040689028
0.599000000000000421,0.361265529807997310
0.600000000000000422,0.355810564831721188
0.601000000000000423,0.350369549160613691
0.602000000000000424,0.344943660649417894
0.603000000000000425,0.339534043475585190
0.604000000000000425,0.334141808654144223
0.605000000000000426,0.328768034550526167
0.606000000000000427,0.323413767391160012
0.607000000000000428,0.318080021771713184
0.608000000000000429,0.312767781162762326
0.609000000000000430,0.307477998412815645
0.610000000000000431,0.302211596248468162
0.611000000000000432,0.296969467771609985
0.612000000000000433,0.291752476953536566
0.613000000000000433,0.286561459125820206
0.614000000000000434,0.281397221467861669
0.615000000000000435,0.276260543490980059
0.616000000000000436,0.271152177518937498
0.617000000000000437,0.266072849164820213
