# ZnO1m210NBDry_BSAI4
# h[nm],U(h)[kJ/mol]
0.149999999999999994,109.942966464287337658
0.150999999999999995,109.011250686947136046
0.151999999999999996,108.141944332981552179
0.152999999999999997,107.258925510327912889
0.153999999999999998,106.337049783747289666
0.154999999999999999,105.377593631672880292
0.156000000000000000,104.393245885031234366
0.157000000000000001,103.399486792970876081
0.158000000000000002,102.410108450546687209
0.159000000000000002,101.435312039318688448
0.160000000000000003,100.481317440794128970
0.161000000000000004,99.550781415465138480
0.162000000000000005,98.643575782964063592
0.163000000000000006,97.757653901073624070
0.164000000000000007,96.889853243875833755
0.165000000000000008,96.036560117959851368
0.166000000000000009,95.194211666136013150
0.167000000000000010,94.359639301926534927
0.168000000000000010,93.530273182113845110
0.169000000000000011,92.704233992754183191
0.170000000000000012,91.880339534731049866
0.171000000000000013,91.058051650814036293
0.172000000000000014,90.237385482935493997
0.173000000000000015,89.418798887329700165
0.174000000000000016,88.603075683547587005
0.175000000000000017,87.791212623273764848
0.176000000000000018,86.984316710361426317
0.177000000000000018,86.183516843159850396
0.178000000000000019,85.389891671561954922
0.179000000000000020,84.604414011314389654
0.180000000000000021,83.827911064366375626
0.181000000000000022,83.061038977403910621
0.182000000000000023,82.304269854298610198
0.183000000000000024,81.557889151845714082
0.184000000000000025,80.822001370870339088
0.185000000000000026,80.096542055467239152
0.186000000000000026,79.381294290418793480
0.187000000000000027,78.675908108239354988
0.188000000000000028,77.979921458173564019
0.189000000000000029,77.292781631832781386
0.190000000000000030,76.613866271450106638
0.191000000000000031,75.942503298818479607
0.192000000000000032,75.277989291108383441
0.193000000000000033,74.619605991776253973
0.194000000000000034,73.966634780399601823
0.195000000000000034,73.318369035545757129
0.196000000000000035,72.674124411606115359
0.197000000000000036,72.033247116325270554
0.198000000000000037,71.395120323195357059
0.199000000000000038,70.759168884690339496
0.200000000000000039,70.124862531131270771
0.201000000000000040,69.491717748263567955
0.202000000000000041,68.859298526634077575
0.203000000000000042,68.227216169557365788
0.204000000000000042,67.595128335570890954
0.205000000000000043,66.962737477245369178
0.206000000000000044,66.329788822239706292
0.207000000000000045,65.696068025543496560
0.208000000000000046,65.061398604699391512
0.209000000000000047,64.425639253030382747
0.210000000000000048,63.788681109951042458
0.211000000000000049,63.150445052614259112
0.212000000000000050,62.510879059638526201
0.213000000000000050,61.869955685579057558
0.214000000000000051,61.227669674191226079
0.215000000000000052,60.584035729370135925
0.216000000000000053,59.939086454883671706
0.217000000000000054,59.292870467561485270
0.218000000000000055,58.645450683359889865
0.219000000000000056,57.996902771575051361
0.220000000000000057,57.347313769306005327
0.221000000000000058,56.696780845955778716
0.222000000000000058,56.045410205979827367
0.223000000000000059,55.393316117143648114
0.224000000000000060,54.740620051119989853
0.225000000000000061,54.087449923255164208
0.226000000000000062,53.433939418668089161
0.227000000000000063,52.780227392444430734
0.228000000000000064,52.126457332480001128
0.229000000000000065,51.472776874455050233
0.230000000000000066,50.819337359435856172
0.231000000000000066,50.166293425657237037
0.232000000000000067,49.513802627109484433
0.233000000000000068,48.862025072602691012
0.234000000000000069,48.211123079994287366
0.235000000000000070,47.561260841220686757
0.236000000000000071,46.912604094662377463
0.237000000000000072,46.265319802183924480
0.238000000000000073,45.619575828921654193
0.239000000000000073,44.975540624541444856
0.240000000000000074,44.333382905253351680
0.241000000000000075,43.693271336356922063
0.242000000000000076,43.055374215497515422
0.243000000000000077,42.419859157148970041
0.244000000000000078,41.786892779104306328
0.245000000000000079,41.156640391960209513
0.246000000000000080,40.529265692728117187
0.247000000000000081,39.904930463801861151
0.248000000000000081,39.283794278563036073
0.249000000000000082,38.666014214919279368
0.250000000000000111,38.051744578049785162
0.251000000000000112,37.441136633585010429
0.252000000000000113,36.834338352375191050
0.253000000000000114,36.231494167914434001
0.254000000000000115,35.632744747381806860
0.255000000000000115,35.038226777147464475
0.256000000000000116,34.448072763470356961
0.257000000000000117,33.862410848987764211
0.258000000000000118,33.281364645471477104
0.259000000000000119,32.705053083197597630
0.260000000000000120,32.133590277154127079
0.261000000000000121,31.567085410191214834
0.262000000000000122,31.005642633104478989
0.263000000000000123,30.449360981535068760
0.264000000000000123,29.898334309470136816
0.265000000000000124,29.352651239034781128
0.266000000000000125,28.812395126183908189
0.267000000000000126,28.277644041826327737
0.268000000000000127,27.748470767847425833
0.269000000000000128,27.224942807438544889
0.270000000000000129,26.707122409092086457
0.271000000000000130,26.195066603579270748
0.272000000000000131,25.688827253194752132
0.273000000000000131,25.188451112525577003
0.274000000000000132,24.693979899983506954
0.275000000000000133,24.205450379327075439
0.276000000000000134,23.722894450393276600
0.277000000000000135,23.246339248258980348
0.278000000000000136,22.775807250055812858
0.279000000000000137,22.311316388671738054
0.280000000000000138,21.852880172586573337
0.281000000000000139,21.400507811104525047
0.282000000000000139,20.954204344268497096
0.283000000000000140,20.513970776762889159
0.284000000000000141,20.079804215137905032
0.285000000000000142,19.651698007715381777
0.286000000000000143,19.229641886565534747
0.287000000000000144,18.813622110974126400
0.288000000000000145,18.403621611850883966
0.289000000000000146,17.999620136562324291
0.290000000000000147,17.601594393703656749
0.291000000000000147,17.209518197357663638
0.292000000000000148,16.823362610420154795
0.293000000000000149,16.443096086604171546
0.294000000000000150,16.068684610766045040
0.295000000000000151,15.700091837228104197
0.296000000000000152,15.337279225802110005
0.297000000000000153,14.980206175247715805
0.298000000000000154,14.628830153927747659
0.299000000000000155,14.283106827449937981
0.300000000000000155,13.942990183110492097
0.301000000000000156,13.608432650980279988
0.302000000000000157,13.279385221497596703
0.303000000000000158,12.955797559454504508
0.304000000000000159,12.637618114284849824
0.305000000000000160,12.324794226581897050
0.306000000000000161,12.017272230792540810
0.307000000000000162,11.714997554052391848
0.308000000000000163,11.417914811142386711
0.309000000000000163,11.125967895562640209
0.310000000000000164,10.839100066733163175
0.311000000000000165,10.557254033343820510
0.312000000000000166,10.280372032887544975
0.313000000000000167,10.008395907421391513
0.314000000000000168,9.741267175609696238
0.315000000000000169,9.478927101111928266
0.316000000000000170,9.221316757385654483
0.317000000000000171,8.968377088981746681
0.318000000000000171,8.720048969414749607
0.319000000000000172,8.476273255696479936
0.320000000000000173,8.236990839625217831
0.321000000000000174,8.002142695926648841
0.322000000000000175,7.771669927345252304
0.323000000000000176,7.545513806787742972
0.324000000000000177,7.323615816621360963
0.325000000000000178,7.105917685231543324
0.326000000000000179,6.892361420943752037
0.327000000000000179,6.682889343415011396
0.328000000000000180,6.477444112600134751
0.329000000000000181,6.275968755397427934
0.330000000000000182,6.078406690077637897
0.331000000000000183,5.884701748598760496
0.332000000000000184,5.694798196907950860
0.333000000000000185,5.508640753330073636
0.334000000000000186,5.326174605140442608
0.335000000000000187,5.147345423417318599
0.336000000000000187,4.972099376267250292
0.337000000000000188,4.800383140514377089
0.338000000000000189,4.632143911941682290
0.339000000000000190,4.467329414169983970
0.340000000000000191,4.305887906257624742
0.341000000000000192,4.147768189101016745
0.342000000000000193,3.992919610713307144
0.343000000000000194,3.841292070455639696
0.344000000000000195,3.692836022292790066
0.345000000000000195,3.547502477141565524
0.346000000000000196,3.405243004378086802
0.347000000000000197,3.266009732566751644
0.348000000000000198,3.129755349471086578
0.349000000000000199,2.996433101403767285
0.350000000000000200,2.865996791970391033
0.351000000000000201,2.738400780258837042
0.352000000000000202,2.613599978523414080
0.353000000000000203,2.491549849410406914
0.354000000000000203,2.372206402768919808
0.355000000000000204,2.255526192088848969
0.356000000000000205,2.141466310604955403
0.357000000000000206,2.029984387103882959
0.358000000000000207,1.921038581468873074
0.359000000000000208,1.814587579994453304
0.360000000000000209,1.710590590501442465
0.361000000000000210,1.609007337280628835
0.362000000000000210,1.509798055891384827
0.363000000000000211,1.412923487839822911
0.364000000000000212,1.318344875159094709
0.365000000000000213,1.226023954912901726
0.366000000000000214,1.135922953641561151
0.367000000000000215,1.048004581768496424
0.368000000000000216,0.962232027983390914
0.369000000000000217,0.878568953617081094
0.370000000000000218,0.796979487021640898
0.371000000000000218,0.717428217968178017
0.372000000000000219,0.639880192073326581
0.373000000000000220,0.564300905264542019
0.374000000000000221,0.490656298293130066
0.375000000000000222,0.418912751303098407
0.376000000000000223,0.349037078462582362
0.377000000000000224,0.280996522664277548
0.378000000000000225,0.214758750300017981
0.379000000000000226,0.150291846114177896
0.380000000000000226,0.087564308139589528
0.381000000000000227,0.026545042719324053
0.382000000000000228,-0.032796640383276079
0.383000000000000229,-0.090491032784195166
0.384000000000000230,-0.146568032186585817
0.385000000000000231,-0.201057146995900771
0.386000000000000232,-0.253987500841686753
0.387000000000000233,-0.305387837006087293
0.388000000000000234,-0.355286522759132417
0.389000000000000234,-0.403711553601507067
0.390000000000000235,-0.450690557415718895
0.391000000000000236,-0.496250798526716497
0.392000000000000237,-0.540419181673497784
0.393000000000000238,-0.583222255893295793
0.394000000000000239,-0.624686218320110176
0.395000000000000240,-0.664836917899699231
0.396000000000000241,-0.703699859023077079
0.397000000000000242,-0.741300205080803076
0.398000000000000242,-0.777662781940496872
0.399000000000000243,-0.812812081349915116
0.400000000000000244,-0.846772264268279118
0.401000000000000245,-0.879567164128323697
0.402000000000000246,-0.911220290031674041
0.403000000000000247,-0.941754829880335209
0.404000000000000248,-0.971193653446833949
0.405000000000000249,-0.999559315385736169
0.406000000000000250,-1.026874058189156669
0.407000000000000250,-1.053159815088985374
0.408000000000000251,-1.078438212908368055
0.409000000000000252,-1.102730574865034452
0.410000000000000253,-1.126057923329086163
0.411000000000000254,-1.148440982537648924
0.412000000000000255,-1.169900181268845873
0.413000000000000256,-1.190455655477576924
0.414000000000000257,-1.210127250895247863
0.415000000000000258,-1.228934525595894334
0.416000000000000258,-1.246896752530718633
0.417000000000000259,-1.264032922033285988
0.418000000000000260,-1.280361744297318527
0.419000000000000261,-1.295901651829140633
0.420000000000000262,-1.310670801876568481
0.421000000000000263,-1.324687078836130016
0.422000000000000264,-1.337968096640296478
0.423000000000000265,-1.350531201126358161
0.424000000000000266,-1.362393472388611304
0.425000000000000266,-1.373571727115165952
0.426000000000000267,-1.384082520910983494
0.427000000000000268,-1.393942150608315167
0.428000000000000269,-1.403166656565855819
0.429000000000000270,-1.411771824957836596
0.430000000000000271,-1.419773190054006484
0.431000000000000272,-1.427186036491723486
0.432000000000000273,-1.434025401540922617
0.433000000000000274,-1.440306077362975667
0.434000000000000274,-1.446042613264164611
0.435000000000000275,-1.451249317944557360
0.436000000000000276,-1.455940261742956876
0.437000000000000277,-1.460129278878516734
0.438000000000000278,-1.463829969689581789
0.439000000000000279,-1.467055702870274869
0.440000000000000280,-1.469819617705204085
0.441000000000000281,-1.472134626302699534
0.442000000000000282,-1.474013415826952222
0.443000000000000282,-1.475468450729202852
0.444000000000000283,-1.476511974978350183
0.445000000000000284,-1.477156014291038488
0.446000000000000285,-1.477412378361393497
0.447000000000000286,-1.477292663090563618
0.448000000000000287,-1.476808252815964728
0.449000000000000288,-1.475970322540411050
0.450000000000000289,-1.474789840160940724
0.451000000000000290,-1.473277568697390461
0.452000000000000290,-1.471444068520609161
0.453000000000000291,-1.469299699580081775
0.454000000000000292,-1.466854623630976739
0.455000000000000293,-1.464118806460278588
0.456000000000000294,-1.461102020111885391
0.457000000000000295,-1.457813845110465634
0.458000000000000296,-1.454263672683698605
0.459000000000000297,-1.450460706982789283
0.460000000000000298,-1.446413967300820724
0.461000000000000298,-1.442132290288773211
0.462000000000000299,-1.437624332168766728
0.463000000000000300,-1.432898570944261651
0.464000000000000301,-1.427963308606871928
0.465000000000000302,-1.422826673339413261
0.466000000000000303,-1.417496621714789073
0.467000000000000304,-1.411980940890434244
0.468000000000000305,-1.406287250797814581
0.469000000000000306,-1.400423006326666719
0.470000000000000306,-1.394395499503612523
0.471000000000000307,-1.388211861664643276
0.472000000000000308,-1.381879065621173464
0.473000000000000309,-1.375403927819229155
0.474000000000000310,-1.368793110491373755
0.475000000000000311,-1.362053123800925025
0.476000000000000312,-1.355190327978154752
0.477000000000000313,-1.348210935447987868
0.478000000000000314,-1.341121012948820024
0.479000000000000314,-1.333926483642121408
0.480000000000000315,-1.326633129212333007
0.481000000000000316,-1.319246591956777070
0.482000000000000317,-1.311772376865103951
0.483000000000000318,-1.304215853687984206
0.484000000000000319,-1.296582258994625425
0.485000000000000320,-1.288876698218747174
0.486000000000000321,-1.281104147692713413
0.487000000000000322,-1.273269456669421595
0.488000000000000322,-1.265377349331584522
0.489000000000000323,-1.257432426788190893
0.490000000000000324,-1.249439169057676935
0.491000000000000325,-1.241401937037584391
0.492000000000000326,-1.233324974460359602
0.493000000000000327,-1.225212409835030769
0.494000000000000328,-1.217068258374427447
0.495000000000000329,-1.208896423907712681
0.496000000000000330,-1.200700700777902252
0.497000000000000330,-1.192484775724208967
0.498000000000000331,-1.184252229748795404
0.499000000000000332,-1.176006539967904274
0.500000000000000333,-1.167751081446988914
0.501000000000000334,-1.159489129019620313
0.502000000000000335,-1.151223859090092949
0.503000000000000336,-1.142958351419371965
0.504000000000000337,-1.134695590894309936
0.505000000000000338,-1.126438469279880561
0.506000000000000338,-1.118189786954311815
0.507000000000000339,-1.109952254626917156
0.508000000000000340,-1.101728495038472699
0.509000000000000341,-1.093521044644100826
0.510000000000000342,-1.085332355278344263
0.511000000000000343,-1.077164795802510122
0.512000000000000344,-1.069020653734018333
0.513000000000000345,-1.060902136857731604
0.514000000000000346,-1.052811374819192070
0.515000000000000346,-1.044750420699598781
0.516000000000000347,-1.036721252572523566
0.517000000000000348,-1.028725775042296009
0.518000000000000349,-1.020765820763948506
0.519000000000000350,-1.012843151944756270
0.520000000000000351,-1.004959461827223066
0.521000000000000352,-0.997116376153629247
0.522000000000000353,-0.989315454611964684
0.523000000000000353,-0.981558192263335405
0.524000000000000354,-0.973846020950812963
0.525000000000000355,-0.966180310689715882
0.526000000000000356,-0.958562371039305416
0.527000000000000357,-0.950993452456013522
0.528000000000000358,-0.943474747628055943
0.529000000000000359,-0.936007392791675996
0.530000000000000360,-0.928592469028820533
0.531000000000000361,-0.921231003546498783
0.532000000000000361,-0.913923970937731811
0.533000000000000362,-0.906672294424228253
0.534000000000000363,-0.899476847080788788
0.535000000000000364,-0.892338453041576329
0.536000000000000365,-0.885257888688236405
0.537000000000000366,-0.878235883820051244
0.538000000000000367,-0.871273122806076494
0.539000000000000368,-0.864370245719518926
0.540000000000000369,-0.857527849454265634
0.541000000000000369,-0.850746488823834079
0.542000000000000370,-0.844026677642686352
0.543000000000000371,-0.837368889790151782
0.544000000000000372,-0.830773560256974242
0.545000000000000373,-0.824241086174658522
0.546000000000000374,-0.817771827827682207
0.547000000000000375,-0.811366109648741785
0.548000000000000376,-0.805024221197136569
0.549000000000000377,-0.798746418120414248
0.550000000000000377,-0.792532923099441233
0.551000000000000378,-0.786383926776971776
0.552000000000000379,-0.780299588669940092
0.553000000000000380,-0.774280038065540799
0.554000000000000381,-0.768325374901251967
0.555000000000000382,-0.762435670629033724
0.556000000000000383,-0.756610969063685523
0.557000000000000384,-0.750851287215712482
0.558000000000000385,-0.745156616108648473
0.559000000000000385,-0.739526921581162511
0.560000000000000386,-0.733962145074012362
0.561000000000000387,-0.728462204402012370
0.562000000000000388,-0.723026994511182575
0.563000000000000389,-0.717656388221269426
0.564000000000000390,-0.712350236953750882
0.565000000000000391,-0.707108371445505979
0.566000000000000392,-0.701930602448324725
0.567000000000000393,-0.696816721414432960
0.568000000000000393,-0.691766501168146308
0.569000000000000394,-0.686779696563865172
0.570000000000000395,-0.681856045130587174
0.571000000000000396,-0.676995267703033421
0.572000000000000397,-0.672197069039665918
0.573000000000000398,-0.667461138427645873
0.574000000000000399,-0.662787150275000347
0.575000000000000400,-0.658174764690096614
0.576000000000000401,-0.653623628048613625
0.577000000000000401,-0.649133373548231640
0.578000000000000402,-0.644703621751103295
0.579000000000000403,-0.640333981114340256
0.580000000000000404,-0.636024048508732176
0.581000000000000405,-0.631773409725710944
0.582000000000000406,-0.627581639972919936
0.583000000000000407,-0.623448304358382721
0.584000000000000408,-0.619372958363553328
0.585000000000000409,-0.615355148305364974
0.586000000000000409,-0.611394411787432035
0.587000000000000410,-0.607490278140624840
0.588000000000000411,-0.603642268853078479
0.589000000000000412,-0.599849897989942815
0.590000000000000413,-0.596112672602878035
0.591000000000000414,-0.592430093129577173
0.592000000000000415,-0.588801653783423973
0.593000000000000416,-0.585226842933431968
0.594000000000000417,-0.581705143474645303
0.595000000000000417,-0.578236033189198473
0.596000000000000418,-0.574818985098060509
0.597000000000000419,-0.571453467803790471
0.598000000000000420,-0.568138945824301134
0.599000000000000421,-0.564874879917896311
0.600000000000000422,-0.561660727399670212
0.601000000000000423,-0.558495942449416027
0.602000000000000424,-0.555379976411252696
0.603000000000000425,-0.552312278085044017
0.604000000000000425,-0.549292294009785964
0.605000000000000426,-0.546319468739113634
0.606000000000000427,-0.543393245109089262
0.607000000000000428,-0.540513064498299056
0.608000000000000429,-0.537678367080622777
0.609000000000000430,-0.534888592070529745
0.610000000000000431,-0.532143177961298397
0.611000000000000432,-0.529441562756125417
0.612000000000000433,-0.526783184192313181
0.613000000000000433,-0.524167479958700833
0.614000000000000434,-0.521593887906418696
