# ZnO1m210NBDry_BSAI5
# h[nm],U(h)[kJ/mol]
0.149999999999999994,109.574139179881740347
0.150999999999999995,108.691568326655527699
0.151999999999999996,107.939590205139012369
0.152999999999999997,107.195426670363914923
0.153999999999999998,106.407749280974641692
0.154999999999999999,105.566220889924267112
0.156000000000000000,104.681170501181284749
0.157000000000000001,103.770818604188804102
0.158000000000000002,102.853876131085968382
0.159000000000000002,101.945788831281674902
0.160000000000000003,101.057319208364873475
0.161000000000000004,100.194518416536112682
0.162000000000000005,99.359431332011027393
0.163000000000000006,98.551102081985902714
0.164000000000000007,97.766612995009836595
0.165000000000000008,97.002007580992938074
0.166000000000000009,96.253028052772080514
0.167000000000000010,95.515649293170099554
0.168000000000000010,94.786421807395555561
0.169000000000000011,94.062652300501653713
0.170000000000000012,93.342456885731465377
0.171000000000000013,92.624722144252785938
0.172000000000000014,91.909005902627356477
0.173000000000000015,91.195404465178029341
0.174000000000000016,90.484407325736668781
0.175000000000000017,89.776754832685412566
0.176000000000000018,89.073309318505067722
0.177000000000000018,88.374946034582009702
0.178000000000000019,87.682466911433067480
0.179000000000000020,86.996537659762893213
0.180000000000000021,86.317646952665626259
0.181000000000000022,85.646085272719702175
0.182000000000000023,84.981940351915696397
0.183000000000000024,84.325105864185260884
0.184000000000000025,83.675300047915555979
0.185000000000000026,83.032091151824602093
0.186000000000000026,82.394926939910007491
0.187000000000000027,81.763165902719364908
0.188000000000000028,81.136108259335401272
0.189000000000000029,80.513025265427842214
0.190000000000000030,79.893185745590386659
0.191000000000000031,79.275879129078319352
0.192000000000000032,78.660434579411599998
0.193000000000000033,78.046236067303240702
0.194000000000000034,77.432733443689400588
0.195000000000000034,76.819449728347279915
0.196000000000000035,76.205984944295352079
0.197000000000000036,75.592016904346976958
0.198000000000000037,74.977299399639377953
0.199000000000000038,74.361658256472352946
0.200000000000000039,73.744985722856341681
0.201000000000000040,73.127233624820476621
0.202000000000000041,72.508405699247219900
0.203000000000000042,71.888549468653337726
0.204000000000000042,71.267747977190339270
0.205000000000000043,70.646111658878666617
0.206000000000000044,70.023770560847481192
0.207000000000000045,69.400867097780718495
0.208000000000000046,68.777549470081609684
0.209000000000000047,68.153965838306035607
0.210000000000000048,67.530259310713390164
0.211000000000000049,66.906563769616852255
0.212000000000000050,66.283000535648142204
0.213000000000000050,65.659675847001807369
0.214000000000000051,65.036679112968869276
0.215000000000000052,64.414081887320776332
0.216000000000000053,63.791937496999914003
0.217000000000000054,63.170281254727456144
0.218000000000000055,62.549131180147377052
0.219000000000000056,61.928489152585839861
0.220000000000000057,61.308342419026175207
0.221000000000000058,60.688665383113075791
0.222000000000000058,60.069421604559543937
0.223000000000000059,59.450565942929813446
0.224000000000000060,58.832046785123239374
0.225000000000000061,58.213808301749153884
0.226000000000000062,57.595792683742345730
0.227000000000000063,56.977942316843396497
0.228000000000000064,56.360201857805861891
0.229000000000000065,55.742520182268194162
0.230000000000000066,55.124852180044570105
0.231000000000000066,54.507160379068601230
0.232000000000000067,53.889416384313769015
0.233000000000000068,53.271602122671311008
0.234000000000000069,52.653710888974593729
0.235000000000000070,52.035748192100449216
0.236000000000000071,51.417732403361036120
0.237000000000000072,50.799695212226950503
0.238000000000000073,50.181681896815369726
0.239000000000000073,49.563751418555185069
0.240000000000000074,48.945976352029461509
0.241000000000000075,48.328442662225640447
0.242000000000000076,47.711249342323938549
0.243000000000000077,47.094507925755024758
0.244000000000000078,46.478341886594705556
0.245000000000000079,45.862885942461971922
0.246000000000000080,45.248285273981757371
0.247000000000000081,44.634694674592061858
0.248000000000000081,44.022277644043796840
0.249000000000000082,43.411205438388599021
0.250000000000000111,42.801656088595521510
0.251000000000000112,42.193813399206895554
0.252000000000000113,41.587865937653162973
0.253000000000000114,40.984006024017901382
0.254000000000000115,40.382428730188685506
0.255000000000000115,39.783330896465159299
0.256000000000000116,39.186910172831325383
0.257000000000000117,38.593364091247039482
0.258000000000000118,38.002889174482852752
0.259000000000000119,37.415680086217591338
0.260000000000000120,36.831928826349148665
0.261000000000000121,36.251823974737007461
0.262000000000000122,35.675549985905703920
0.263000000000000123,35.103286536594467293
0.264000000000000123,34.535207927439678599
0.265000000000000124,33.971482539526185462
0.266000000000000125,33.412272346041014259
0.267000000000000126,32.857732478807150756
0.268000000000000127,32.308010849065865955
0.269000000000000128,31.763247821513253655
0.270000000000000129,31.223575940276283802
0.271000000000000130,30.689119705236144853
0.272000000000000131,30.159995396869085482
0.273000000000000131,29.636310947574759922
0.274000000000000132,29.118165857297519494
0.275000000000000133,28.605651151114972919
0.276000000000000134,28.098849376366406005
0.277000000000000135,27.597834636822266674
0.278000000000000136,27.102672661347877892
0.279000000000000137,26.613420904491373875
0.280000000000000138,26.130128676424213552
0.281000000000000139,25.652837299678129312
0.282000000000000139,25.181580290156539093
0.283000000000000140,24.716383559946184079
0.284000000000000141,24.257265639515715350
0.285000000000000142,23.804237916960055088
0.286000000000000143,23.357304892030356314
0.287000000000000144,22.916464442778753607
0.288000000000000145,22.481708102741944089
0.289000000000000146,22.053021346688474580
0.290000000000000147,21.630383883057966443
0.291000000000000147,21.213769951327460461
0.292000000000000148,20.803148622647920973
0.293000000000000149,20.398484102202964152
0.294000000000000150,19.999736031850112283
0.295000000000000151,19.606859791713066699
0.296000000000000152,19.219806799499014716
0.297000000000000153,18.838524806419997049
0.298000000000000154,18.462958188697932371
0.299000000000000155,18.093048233732218932
0.300000000000000155,17.728733420103651497
0.301000000000000156,17.369949690680535070
0.302000000000000157,17.016630718179957427
0.303000000000000158,16.668708162621975077
0.304000000000000159,16.326111920193508098
0.305000000000000160,15.988770363114607420
0.306000000000000161,15.656610570170943930
0.307000000000000162,15.329558547643324928
0.308000000000000163,15.007539440427816402
0.309000000000000163,14.690477733198701316
0.310000000000000164,14.378297441520606625
0.311000000000000165,14.070922292866606895
0.312000000000000166,13.768275897545347419
0.313000000000000167,13.470281909582780600
0.314000000000000168,13.176864177642622522
0.315000000000000169,12.887946886105046573
0.316000000000000170,12.603454686454437450
0.317000000000000171,12.323312819155793463
0.318000000000000171,12.047447226224239358
0.319000000000000172,11.775784654714456678
0.320000000000000173,11.508252751376257805
0.321000000000000174,11.244780148739222270
0.322000000000000175,10.985296542903361328
0.323000000000000176,10.729732763324845379
0.324000000000000177,10.478020834895142244
0.325000000000000178,10.230094032619774680
0.326000000000000179,9.985886929208309226
0.327000000000000179,9.745335435891160358
0.328000000000000180,9.508376836781021524
0.329000000000000181,9.274949817097542848
0.330000000000000182,9.044994485573166543
0.331000000000000183,8.818452391356121467
0.332000000000000184,8.595266535723773416
0.333000000000000185,8.375381378915335517
0.334000000000000186,8.158742842388138072
0.335000000000000187,7.945298306795793408
0.336000000000000187,7.734996605980254181
0.337000000000000188,7.527788017262798448
0.338000000000000189,7.323624248311068285
0.339000000000000190,7.122458420851431882
0.340000000000000191,6.924245051487486258
0.341000000000000192,6.728940029876757656
0.342000000000000193,6.536500594508339645
0.343000000000000194,6.346885306315341424
0.344000000000000195,6.160054020346605874
0.345000000000000195,5.975967855712285726
0.346000000000000196,5.794589164008959514
0.347000000000000197,5.615881496419918406
0.348000000000000198,5.439809569677129808
0.349000000000000199,5.266339231061753168
0.350000000000000200,5.095437422610875622
0.351000000000000201,4.927072144688867006
0.352000000000000202,4.761212419072787583
0.353000000000000203,4.597828251692367196
0.354000000000000203,4.436890595156299355
0.355000000000000204,4.278371311188392312
0.356000000000000205,4.122243133088601574
0.357000000000000206,3.968479628325950248
0.358000000000000207,3.817055161362900240
0.359000000000000208,3.667944856802839215
0.360000000000000209,3.521124562945249004
0.361000000000000210,3.376570815826235084
0.362000000000000210,3.234260803815131702
0.363000000000000211,3.094172332831706118
0.364000000000000212,2.956283792242078157
0.365000000000000213,2.820574121485685648
0.366000000000000214,2.687022777479985969
0.367000000000000215,2.555609702844123809
0.368000000000000216,2.426315294977724690
0.369000000000000217,2.299120376026201562
0.370000000000000218,2.174006163759166110
0.371000000000000218,2.050954243384488951
0.372000000000000219,1.929946540316117565
0.373000000000000220,1.810965293910124840
0.374000000000000221,1.693993032179789804
0.375000000000000222,1.579012547497195218
0.376000000000000223,1.466006873285274015
0.377000000000000224,1.354959261701859097
0.378000000000000225,1.245853162314029206
0.379000000000000226,1.138672201758802016
0.380000000000000226,1.033400164383588171
0.381000000000000227,0.930020973857959454
0.382000000000000228,0.828518675745936739
0.383000000000000229,0.728877421026477124
0.384000000000000230,0.631081450547907763
0.385000000000000231,0.535115080400689336
0.386000000000000232,0.440962688191546104
0.387000000000000233,0.348608700200538191
0.388000000000000234,0.258037579401908690
0.389000000000000234,0.169233814328260929
0.390000000000000235,0.082181908756888133
0.391000000000000236,-0.003133627803537526
0.392000000000000237,-0.086728288848619675
0.393000000000000238,-0.168617578859174860
0.394000000000000239,-0.248817020550968604
0.395000000000000240,-0.327342161417137567
0.396000000000000241,-0.404208579587328587
0.397000000000000242,-0.479431889027848335
0.398000000000000242,-0.553027744107218888
0.399000000000000243,-0.625011843551461999
0.400000000000000244,-0.695399933813660831
0.401000000000000245,-0.764207811881938648
0.402000000000000246,-0.831451327550031261
0.403000000000000247,-0.897146385174569572
0.404000000000000248,-0.961308944942619092
0.405000000000000249,-1.023955023673056353
0.406000000000000250,-1.085100695174834318
0.407000000000000250,-1.144762090185003967
0.408000000000000251,-1.202955395908861691
0.409000000000000252,-1.259696855184177178
0.410000000000000253,-1.315002765291155340
0.411000000000000254,-1.368889476429146601
0.412000000000000255,-1.421373389880747684
0.413000000000000256,-1.472470955883469435
0.414000000000000257,-1.522198671228506495
0.415000000000000258,-1.570573076605822349
0.416000000000000258,-1.617610753713943250
0.417000000000000259,-1.663328322152696881
0.418000000000000260,-1.707742436116147955
0.419000000000000261,-1.750869780902887474
0.420000000000000262,-1.792727069259810735
0.421000000000000263,-1.833331037575426148
0.422000000000000264,-1.872698441937751257
0.423000000000000265,-1.910846054071647204
0.424000000000000266,-1.947790657169705897
0.425000000000000266,-1.983549041630206400
0.426000000000000267,-2.018138000715356206
0.427000000000000268,-2.051574326142202587
0.428000000000000269,-2.083874803618252169
0.429000000000000270,-2.115056208333311982
0.430000000000000271,-2.145135300418368196
0.431000000000000272,-2.174128820382109417
0.432000000000000273,-2.202053484534872929
0.433000000000000274,-2.228925980409570240
0.434000000000000274,-2.254762962188503916
0.435000000000000275,-2.279581046144583123
0.436000000000000276,-2.303396806104994088
0.437000000000000277,-2.326226768944888335
0.438000000000000278,-2.348087410118247398
0.439000000000000279,-2.368995149232677733
0.440000000000000280,-2.388966345674399250
0.441000000000000281,-2.408017294289369836
0.442000000000000282,-2.426164221126085430
0.443000000000000282,-2.443423279245132029
0.444000000000000283,-2.459810544600345317
0.445000000000000284,-2.475342011995916192
0.446000000000000285,-2.490033591123573586
0.447000000000000286,-2.503901102683593116
0.448000000000000287,-2.516960274593005753
0.449000000000000288,-2.529226738284190201
0.450000000000000289,-2.540716025096608099
0.451000000000000290,-2.551443562764241335
0.452000000000000290,-2.561424672001059832
0.453000000000000291,-2.570674563186372552
0.454000000000000292,-2.579208333151964627
0.455000000000000293,-2.587040962072415518
0.456000000000000294,-2.594187310459924678
0.457000000000000295,-2.600662116264722545
0.458000000000000296,-2.606479992081811581
0.459000000000000297,-2.611655422464816745
0.460000000000000298,-2.616202761347266925
0.461000000000000298,-2.620136229571702113
0.462000000000000299,-2.623469912526593451
0.463000000000000300,-2.626217757891069482
0.464000000000000301,-2.628393573487243451
0.465000000000000302,-2.630011025239737510
0.466000000000000303,-2.631083635241881602
0.467000000000000304,-2.631624779928071867
0.468000000000000305,-2.631647688351336889
0.469000000000000306,-2.631165440565410574
0.470000000000000306,-2.630190966110295570
0.471000000000000307,-2.628737042600132412
0.472000000000000308,-2.626816294412331221
0.473000000000000309,-2.624441191476662993
0.474000000000000310,-2.621624048162920495
0.475000000000000311,-2.618377022265784504
0.476000000000000312,-2.614712114085404160
0.477000000000000313,-2.610641165602128222
0.478000000000000314,-2.606175859743755652
0.479000000000000314,-2.601327719743718792
0.480000000000000315,-2.596108108588392138
0.481000000000000316,-2.590528228551882695
0.482000000000000317,-2.584599120816397644
0.483000000000000318,-2.578331665176470722
0.484000000000000319,-2.571736579825137259
0.485000000000000320,-2.564824421220165629
0.486000000000000321,-2.557605584028503465
0.487000000000000322,-2.550090301146981986
0.488000000000000322,-2.542288643797281811
0.489000000000000323,-2.534210521693388340
0.490000000000000324,-2.525865683279389984
0.491000000000000325,-2.517263716035780696
0.492000000000000326,-2.508414046852236901
0.493000000000000327,-2.499325942465003614
0.494000000000000328,-2.490008509956787019
0.495000000000000329,-2.480470697317363360
0.496000000000000330,-2.470721294062775186
0.497000000000000330,-2.460768931911416324
0.498000000000000331,-2.450622085514774007
0.499000000000000332,-2.440289073241235673
0.500000000000000333,-2.429778058010861663
0.501000000000000334,-2.419097048179236431
0.502000000000000335,-2.408253898468703191
0.503000000000000336,-2.397256310944955171
0.504000000000000337,-2.386111836037288381
0.505000000000000338,-2.374827873600653838
0.506000000000000338,-2.363411674017761310
0.507000000000000339,-2.351870339339488858
0.508000000000000340,-2.340210824461807171
0.509000000000000341,-2.328439938337693249
0.510000000000000342,-2.316564345222109189
0.511000000000000343,-2.304590565948657854
0.512000000000000344,-2.292524979236097327
0.513000000000000345,-2.280373823023256641
0.514000000000000346,-2.268143195830777614
0.515000000000000346,-2.255839058148072063
0.516000000000000347,-2.243467233844107067
0.517000000000000348,-2.231033411600513716
0.518000000000000349,-2.218543146365534291
0.519000000000000350,-2.206001860827524474
0.520000000000000351,-2.193414846906463378
0.521000000000000352,-2.180787267262361162
0.522000000000000353,-2.168124156819006387
0.523000000000000353,-2.155430424301981951
0.524000000000000354,-2.142710853789593362
0.525000000000000355,-2.129970106275524522
0.526000000000000356,-2.117212721242023310
0.527000000000000357,-2.104443118242526278
0.528000000000000358,-2.091665598492489231
0.529000000000000359,-2.078884346467493760
0.530000000000000360,-2.066103431507376520
0.531000000000000361,-2.053326809425545907
0.532000000000000361,-2.040558324122357714
0.533000000000000362,-2.027801709201634495
0.534000000000000363,-2.015060589589374729
0.535000000000000364,-2.002338483153785820
0.536000000000000365,-1.989638802325671252
0.537000000000000366,-1.976964855718444714
0.538000000000000367,-1.964319849746798186
0.539000000000000368,-1.951706890243417147
0.540000000000000369,-1.939128984072767681
0.541000000000000369,-1.926589040741422121
0.542000000000000370,-1.914089874004010428
0.543000000000000371,-1.901634203464289019
0.544000000000000372,-1.889224656170539918
0.545000000000000373,-1.876863768204748650
0.546000000000000374,-1.864553986264871899
0.547000000000000375,-1.852297669239683087
0.548000000000000376,-1.840097089775590833
0.549000000000000377,-1.827954435834904245
0.550000000000000377,-1.815871812245039907
0.551000000000000378,-1.803851242238132091
0.552000000000000379,-1.791894668980669625
0.553000000000000380,-1.780003957092597844
0.554000000000000381,-1.768180894155526151
0.555000000000000382,-1.756427192209662369
0.556000000000000383,-1.744744489238969409
0.557000000000000384,-1.733134350644347732
0.558000000000000385,-1.721598270704312927
0.559000000000000385,-1.710137674022986332
0.560000000000000386,-1.698753916965032529
0.561000000000000387,-1.687448289077234209
0.562000000000000388,-1.676222014496434598
0.563000000000000389,-1.665076253343650503
0.564000000000000390,-1.654012103104034903
0.565000000000000391,-1.643030599992499230
0.566000000000000392,-1.632132720304786178
0.567000000000000393,-1.621319381753834055
0.568000000000000393,-1.610591444791164450
0.569000000000000394,-1.599949713913213056
0.570000000000000395,-1.589394938952438441
0.571000000000000396,-1.578927816353009828
0.572000000000000397,-1.568548990431061219
0.573000000000000398,-1.558259054619274941
0.574000000000000399,-1.548058552695814161
0.575000000000000400,-1.537947979997425829
0.576000000000000401,-1.527927784616672557
0.577000000000000401,-1.517998368583291402
0.578000000000000402,-1.508160089029493722
0.579000000000000403,-1.498413259339271164
0.580000000000000404,-1.488758150281685788
0.581000000000000405,-1.479194991127991354
0.582000000000000406,-1.469723970752754072
0.583000000000000407,-1.460345238718809613
0.584000000000000408,-1.451058906346161637
0.585000000000000409,-1.441865047764804064
0.586000000000000409,-1.432763700951452890
0.587000000000000410,-1.423754868750312763
0.588000000000000411,-1.414838519877773093
0.589000000000000412,-1.406014589911243950
0.590000000000000413,-1.397282982262023632
0.591000000000000414,-1.388643569132367084
0.592000000000000415,-1.380096192456788495
0.593000000000000416,-1.371640664827627365
0.594000000000000417,-1.363276770404990845
0.595000000000000417,-1.355004265811218911
0.596000000000000418,-1.346822881009763107
0.597000000000000419,-1.338732320168829482
0.598000000000000420,-1.330732262509646713
0.599000000000000421,-1.322822363139636748
0.600000000000000422,-1.315002253870480642
0.601000000000000423,-1.307271544021228804
0.602000000000000424,-1.299629821206601532
0.603000000000000425,-1.292076652110538681
0.604000000000000425,-1.284611583245145017
0.605000000000000426,-1.277234141695163805
0.606000000000000427,-1.269943835848130087
0.607000000000000428,-1.262740156110203182
0.608000000000000429,-1.255622575608057456
0.609000000000000430,-1.248590550876669480
0.610000000000000431,-1.241643522533401711
0.611000000000000432,-1.234780915938352042
0.612000000000000433,-1.228002141841172845
0.613000000000000433,-1.221306597014524709
0.614000000000000434,-1.214693664874272105
