# ZnO1m210NBDry_BSAI22
# h[nm],U(h)[kJ/mol]
0.149999999999999994,124.264327273532558138
0.150999999999999995,123.196388149234309140
0.151999999999999996,121.941672484611260074
0.152999999999999997,120.667273873645513049
0.153999999999999998,119.412289794271970322
0.154999999999999999,118.170457291536905586
0.156000000000000000,116.927835059506577409
0.157000000000000001,115.676720316163780922
0.158000000000000002,114.418082697336302544
0.159000000000000002,113.159311264794126828
0.160000000000000003,111.910781425974320769
0.161000000000000004,110.682846635277471137
0.162000000000000005,109.483815506971794207
0.163000000000000006,108.318946475708386856
0.164000000000000007,107.190262295332075837
0.165000000000000008,106.096920504296889476
0.166000000000000009,105.035891875394369777
0.167000000000000010,104.002749262492940829
0.168000000000000010,102.992427958575518687
0.169000000000000011,101.999872509379116536
0.170000000000000012,101.020528366626066941
0.171000000000000013,100.050668567432921918
0.172000000000000014,99.087566729318751868
0.173000000000000015,98.129539930340882847
0.174000000000000016,97.175890611816839737
0.175000000000000017,96.226777470381179569
0.176000000000000018,95.283043065816315220
0.177000000000000018,94.346021875928087752
0.178000000000000019,93.417347754014642192
0.179000000000000020,92.498774866459243071
0.180000000000000021,91.592021645156691534
0.181000000000000022,90.698643333760529117
0.182000000000000023,89.819935453920507484
0.183000000000000024,88.956867988984015483
0.184000000000000025,88.110048237772602420
0.185000000000000026,87.279709053488844006
0.186000000000000026,86.465718458271766167
0.187000000000000027,85.667606313280089125
0.188000000000000028,84.884603732010035060
0.189000000000000029,84.115691164291007453
0.190000000000000030,83.359651475093826889
0.191000000000000031,82.615124833571911722
0.192000000000000032,81.880662763720962971
0.193000000000000033,81.154779250291483095
0.194000000000000034,80.435997313975093448
0.195000000000000034,79.722889948979286601
0.196000000000000035,79.014114741710329781
0.197000000000000036,78.308441854965110451
0.198000000000000037,77.604775365812770360
0.199000000000000038,76.902168188563535978
0.200000000000000039,76.199831000538097214
0.201000000000000040,75.497135722968863547
0.202000000000000041,74.793614198368700841
0.203000000000000042,74.088952755570616659
0.204000000000000042,73.382983370855541239
0.205000000000000043,72.675672124373051020
0.206000000000000044,71.967105621196765242
0.207000000000000045,71.257476001060624071
0.208000000000000046,70.547065104685330539
0.209000000000000047,69.836228301576142030
0.210000000000000048,69.125378417569280032
0.211000000000000049,68.414970132940908343
0.212000000000000050,67.705485155733143188
0.213000000000000050,66.997418411759412038
0.214000000000000051,66.291265433752883496
0.215000000000000052,65.587511078161909950
0.216000000000000053,64.886619649704556423
0.217000000000000054,64.189026471226796389
0.218000000000000055,63.495130899716762940
0.219000000000000056,62.805290758382419369
0.220000000000000057,62.119818129252109884
0.221000000000000058,61.438976430459696587
0.222000000000000058,60.762978686813269746
0.223000000000000059,60.091986890969927515
0.224000000000000060,59.426112345074919574
0.225000000000000061,58.765416868596709321
0.226000000000000062,58.109914756834484706
0.227000000000000063,57.459575375744563530
0.228000000000000064,56.814326281908108740
0.229000000000000065,56.174056761253282843
0.230000000000000066,55.538621686198517580
0.231000000000000066,54.907845597879905597
0.232000000000000067,54.281526927783055214
0.233000000000000068,53.659442281170115052
0.234000000000000069,53.041350712966121250
0.235000000000000070,52.426997935061272926
0.236000000000000071,51.816120402152080260
0.237000000000000072,51.208449231156578207
0.238000000000000073,50.603713916805432405
0.239000000000000073,50.001645813152563846
0.240000000000000074,49.401981357413042417
0.241000000000000075,48.804465018685554867
0.242000000000000076,48.208851959726935377
0.243000000000000077,47.614910405009823080
0.244000000000000078,47.022423712811374230
0.245000000000000079,46.431192153060010241
0.246000000000000080,45.841034396128392814
0.247000000000000081,45.251788720722259995
0.248000000000000081,44.663313951508158084
0.249000000000000082,44.075490139175478532
0.250000000000000111,43.488218997271317789
0.251000000000000112,42.901424111417000518
0.252000000000000113,42.315050937441732515
0.253000000000000114,41.729066605590510619
0.254000000000000115,41.143459548308783269
0.255000000000000115,40.558238969210073321
0.256000000000000116,39.973434170724353010
0.257000000000000117,39.389093757633744985
0.258000000000000118,38.805284733255575702
0.259000000000000119,38.222091504455853794
0.260000000000000120,37.639614810992313210
0.261000000000000121,37.057970593918028612
0.262000000000000122,36.477288816941161542
0.263000000000000123,35.897712253754939127
0.264000000000000123,35.319395253435871496
0.265000000000000124,34.742502495075441971
0.266000000000000125,34.167207741871230553
0.267000000000000126,33.593692603967795662
0.268000000000000127,33.022145318416384896
0.269000000000000128,32.452759553723097952
0.270000000000000129,31.885733245582429163
0.271000000000000130,31.321267469554328500
0.272000000000000131,30.759565355641672824
0.273000000000000131,30.200831048964204228
0.274000000000000132,29.645268720007301511
0.275000000000000133,29.093081627251279997
0.276000000000000134,28.544471234359825473
0.277000000000000135,27.999636383525920991
0.278000000000000136,27.458772526038199402
0.279000000000000137,26.922071010641861477
0.280000000000000138,26.389718429824352341
0.281000000000000139,25.861896023753853768
0.282000000000000139,25.338779141240230786
0.283000000000000140,24.820536756768703412
0.284000000000000141,24.307331042375960095
0.285000000000000142,23.799316992894134160
0.286000000000000143,23.296642102878003300
0.287000000000000144,22.799446093353374465
0.288000000000000145,22.307860686376269399
0.289000000000000146,21.822009425273950711
0.290000000000000147,21.342007538343583661
0.291000000000000147,20.867961843715605141
0.292000000000000148,20.399970693039275460
0.293000000000000149,19.938123951620390528
0.294000000000000150,19.482503012629425854
0.295000000000000151,19.033180843004586791
0.296000000000000152,18.590222058693086638
0.297000000000000153,18.153683026907110332
0.298000000000000154,17.723611993113799201
0.299000000000000155,17.300049230532135169
0.300000000000000155,16.883027209970926208
0.301000000000000156,16.472570787911141821
0.302000000000000157,16.068697410809299697
0.303000000000000158,15.671417333679290351
0.304000000000000159,15.280733851091884645
0.305000000000000160,14.896643538817912145
0.306000000000000161,14.519136504428837853
0.307000000000000162,14.148196645257936410
0.308000000000000163,13.783801912215256635
0.309000000000000163,13.425924578039627022
0.310000000000000164,13.074531508660532708
0.311000000000000165,12.729584436431093053
0.312000000000000166,12.391040234080675120
0.313000000000000167,12.058851188320947045
0.314000000000000168,11.732965272122516609
0.315000000000000169,11.413326414760106786
0.316000000000000170,11.099874768802660441
0.317000000000000171,10.792546973300355617
0.318000000000000171,10.491276412493130366
0.319000000000000172,10.195993469434881717
0.320000000000000173,9.906625773994218065
0.321000000000000174,9.623098444755948222
0.322000000000000175,9.345334324407474469
0.323000000000000176,9.073254208251601227
0.324000000000000177,8.806777065540591920
0.325000000000000178,8.545820253377382159
0.326000000000000179,8.290299722976817165
0.327000000000000179,8.040130218124676986
0.328000000000000180,7.795225465713230051
0.329000000000000181,7.555498358270822834
0.330000000000000182,7.320861128438465926
0.331000000000000183,7.091225515379191435
0.332000000000000184,6.866502923136368786
0.333000000000000185,6.646604570984659510
0.334000000000000186,6.431441635842482185
0.335000000000000187,6.220925386837795834
0.336000000000000187,6.014967312139487987
0.337000000000000188,5.813479238185457199
0.338000000000000189,5.616373441454464377
0.339000000000000190,5.423562752943782428
0.340000000000000191,5.234960655527275186
0.341000000000000192,5.050481374379652166
0.342000000000000193,4.870039960661928902
0.343000000000000194,4.693552368671254804
0.344000000000000195,4.520935526664993986
0.345000000000000195,4.352107401573598544
0.346000000000000196,4.186987057821738745
0.347000000000000197,4.025494710479269322
0.348000000000000198,3.867551772966110413
0.349000000000000199,3.713080899535740720
0.350000000000000200,3.562006022762201241
0.351000000000000201,3.414252386254758243
0.352000000000000202,3.269746572822999298
0.353000000000000203,3.128416528312916167
0.354000000000000203,2.990191581331872683
0.355000000000000204,2.855002459077260912
0.356000000000000205,2.722781299479778205
0.357000000000000206,2.593461659868096625
0.358000000000000207,2.466978522357501369
0.359000000000000208,2.343268296159964237
0.360000000000000209,2.222268817008088426
0.361000000000000210,2.103919343880233495
0.362000000000000210,1.988160553208345949
0.363000000000000211,1.874934530744578165
0.364000000000000212,1.764184761256790690
0.365000000000000213,1.655856116217312657
0.366000000000000214,1.549894839643237932
0.367000000000000215,1.446248532240651086
0.368000000000000216,1.344866133999029767
0.369000000000000217,1.245697905376268677
0.370000000000000218,1.148695407208531361
0.371000000000000218,1.053811479473500068
0.372000000000000219,0.961000219029456204
0.373000000000000220,0.870216956446958512
0.374000000000000221,0.781418232044171712
0.375000000000000222,0.694561771231444247
0.376000000000000223,0.609606459264737000
0.377000000000000224,0.526512315502812300
0.378000000000000225,0.445240467257332628
0.379000000000000226,0.365753123320168572
0.380000000000000226,0.288013547247055246
0.381000000000000227,0.211986030472152642
0.382000000000000228,0.137635865323092327
0.383000000000000229,0.064929318001830258
0.384000000000000230,-0.006166398407909534
0.385000000000000231,-0.075683150850065231
0.386000000000000232,-0.143651913069845205
0.387000000000000233,-0.210102792203141264
0.388000000000000234,-0.275065055136631320
0.389000000000000234,-0.338567154597486208
0.390000000000000235,-0.400636754934872219
0.391000000000000236,-0.461300757558658625
0.392000000000000237,-0.520585326004106008
0.393000000000000238,-0.578515910594148530
0.394000000000000239,-0.635117272673784816
0.395000000000000240,-0.690413508393904141
0.396000000000000241,-0.744428072024367116
0.397000000000000242,-0.797183798778582697
0.398000000000000242,-0.848702927134350582
0.399000000000000243,-0.899007120637588253
0.400000000000000244,-0.948117489178041617
0.401000000000000245,-0.996054609727699436
0.402000000000000246,-1.042838546534537114
0.403000000000000247,-1.088488870766177730
0.404000000000000248,-1.133024679599296425
0.405000000000000249,-1.176464614752409377
0.406000000000000250,-1.218826880460893269
0.407000000000000250,-1.260129260894576442
0.408000000000000251,-1.300389137019287267
0.409000000000000252,-1.339623502904969454
0.410000000000000253,-1.377848981484063984
0.411000000000000254,-1.415081839764665395
0.412000000000000255,-1.451338003503964469
0.413000000000000256,-1.486633071348355539
0.414000000000000257,-1.520982328447077148
0.415000000000000258,-1.554400759547261757
0.416000000000000258,-1.586903061578544882
0.417000000000000259,-1.618503655736213798
0.418000000000000260,-1.649216699072119763
0.419000000000000261,-1.679056095603248533
0.420000000000000262,-1.708035506947926052
0.421000000000000263,-1.736168362500341456
0.422000000000000264,-1.763467869153952705
0.423000000000000265,-1.789947020584884640
0.424000000000000266,-1.815618606106558008
0.425000000000000266,-1.840495219106720981
0.426000000000000267,-1.864589265078612446
0.427000000000000268,-1.887912969257647955
0.428000000000000269,-1.910478383875294783
0.429000000000000270,-1.932297395041901567
0.430000000000000271,-1.953381729269959122
0.431000000000000272,-1.973742959649640083
0.432000000000000273,-1.993392511688014013
0.433000000000000274,-2.012341668823601992
0.434000000000000274,-2.030601577627633159
0.435000000000000275,-2.048183252703334567
0.436000000000000276,-2.065097581294481621
0.437000000000000277,-2.081355327614244466
0.438000000000000278,-2.096967136905224738
0.439000000000000279,-2.111943539241490253
0.440000000000000280,-2.126294953083079697
0.441000000000000281,-2.140031688593395209
0.442000000000000282,-2.153163950729708453
0.443000000000000282,-2.165701842116635412
0.444000000000000283,-2.177655365712475533
0.445000000000000284,-2.189034427277851691
0.446000000000000285,-2.199848837655995482
0.447000000000000286,-2.210108314873866053
0.448000000000000287,-2.219822486072774215
0.449000000000000288,-2.229000889277358066
0.450000000000000289,-2.237652975011109824
0.451000000000000290,-2.245788107766721886
0.452000000000000290,-2.253415567339192904
0.453000000000000291,-2.260544550029229605
0.454000000000000292,-2.267184169724559606
0.455000000000000293,-2.273343458866238009
0.456000000000000294,-2.279031369306962151
0.457000000000000295,-2.284256773068163326
0.458000000000000296,-2.289028463002277025
0.459000000000000297,-2.293355153366583910
0.460000000000000298,-2.297245480314572319
0.461000000000000298,-2.300708002310711819
0.462000000000000299,-2.303751200474189798
0.463000000000000300,-2.306383478856986802
0.464000000000000301,-2.308613164661525552
0.465000000000000302,-2.310448508402781265
0.466000000000000303,-2.311897684019595722
0.467000000000000304,-2.312968788939842479
0.468000000000000305,-2.313669844103663387
0.469000000000000306,-2.314008793948993059
0.470000000000000306,-2.313993506363410724
0.471000000000000307,-2.313631772605923231
0.472000000000000308,-2.312931307202447329
0.473000000000000309,-2.311899747818357831
0.474000000000000310,-2.310544655111319123
0.475000000000000311,-2.308873512567528596
0.476000000000000312,-2.306893726324307892
0.477000000000000313,-2.304612624981791313
0.478000000000000314,-2.302037459406300002
0.479000000000000314,-2.299175402527950052
0.480000000000000315,-2.296033549134718577
0.481000000000000316,-2.292618915665277424
0.482000000000000317,-2.288938440002505903
0.483000000000000318,-2.284998981269734220
0.484000000000000319,-2.280807319631468211
0.485000000000000320,-2.276370156100223419
0.486000000000000321,-2.271694112351128503
0.487000000000000322,-2.266785730545717747
0.488000000000000322,-2.261651473166138793
0.489000000000000323,-2.256297722861249078
0.490000000000000324,-2.250730782305526478
0.491000000000000325,-2.244956874071950104
0.492000000000000326,-2.238982140519761632
0.493000000000000327,-2.232812643698017574
0.494000000000000328,-2.226454365265660762
0.495000000000000329,-2.219913206428869135
0.496000000000000330,-2.213194987896212940
0.497000000000000330,-2.206305449852354883
0.498000000000000331,-2.199250251950486401
0.499000000000000332,-2.192034973324246128
0.500000000000000333,-2.184665112619235572
0.501000000000000334,-2.177146088044463301
0.502000000000000335,-2.169483237444071566
0.503000000000000336,-2.161681818389356913
0.504000000000000337,-2.153747008291354348
0.505000000000000338,-2.145683904533970399
0.506000000000000338,-2.137497524627745005
0.507000000000000339,-2.129192806384227588
0.508000000000000340,-2.120774608110858939
0.509000000000000341,-2.112247708826411330
0.510000000000000342,-2.103616808496659552
0.511000000000000343,-2.094886528290317962
0.512000000000000344,-2.086061410854904263
0.513000000000000345,-2.077145920612389229
0.514000000000000346,-2.068144444074379251
0.515000000000000346,-2.059061290176508852
0.516000000000000347,-2.049900690631774047
0.517000000000000348,-2.040666800302531669
0.518000000000000349,-2.031363697590705453
0.519000000000000350,-2.021995384845989729
0.520000000000000351,-2.012565788791505828
0.521000000000000352,-2.003078760966710892
0.522000000000000353,-1.993538078186952500
0.523000000000000353,-1.983947443019408396
0.524000000000000354,-1.974310484274901301
0.525000000000000355,-1.964630757515164472
0.526000000000000356,-1.954911745575090176
0.527000000000000357,-1.945156859099583357
0.528000000000000358,-1.935369437094399903
0.529000000000000359,-1.925552747490718586
0.530000000000000360,-1.915709987722726826
0.531000000000000361,-1.905844285317966680
0.532000000000000361,-1.895958698499795148
0.533000000000000362,-1.886056216801585750
0.534000000000000363,-1.876139761692107388
0.535000000000000364,-1.866212187211680362
0.536000000000000365,-1.856276280618529340
0.537000000000000366,-1.846334763044968685
0.538000000000000367,-1.836390290162778882
0.539000000000000368,-1.826445452857516027
0.540000000000000369,-1.816502777911039646
0.541000000000000369,-1.806564728692009014
0.542000000000000370,-1.796633705853677210
0.543000000000000371,-1.786712048038705092
0.544000000000000372,-1.776802032590399039
0.545000000000000373,-1.766905876270006726
0.546000000000000374,-1.757025735979568681
0.547000000000000375,-1.747163709489911287
0.548000000000000376,-1.737321836173364886
0.549000000000000377,-1.727502097740725606
0.550000000000000377,-1.717706418982106742
0.551000000000000378,-1.707936668511190748
0.552000000000000379,-1.698194659512564986
0.553000000000000380,-1.688482150491654732
0.554000000000000381,-1.678800846026903715
0.555000000000000382,-1.669152397523866016
0.556000000000000383,-1.659538403970698184
0.557000000000000384,-1.649960412694878586
0.558000000000000385,-1.640419920120580688
0.559000000000000385,-1.630918372526533044
0.560000000000000386,-1.621457166803934147
0.561000000000000387,-1.612037651214079714
0.562000000000000388,-1.602661126145410009
0.563000000000000389,-1.593328844869671856
0.564000000000000390,-1.584042014296853873
0.565000000000000391,-1.574801795728597131
0.566000000000000392,-1.565609305609811930
0.567000000000000393,-1.556465616278236208
0.568000000000000393,-1.547371756711595214
0.569000000000000394,-1.538328713272143267
0.570000000000000395,-1.529337430448368007
0.571000000000000396,-1.520398811593494770
0.572000000000000397,-1.511513719660700250
0.573000000000000398,-1.502682977934660880
0.574000000000000399,-1.493907370759323339
0.575000000000000400,-1.485187644261614981
0.576000000000000401,-1.476524507070887005
0.577000000000000401,-1.467918631033986676
0.578000000000000402,-1.459370651925605333
0.579000000000000403,-1.450881170153843769
0.580000000000000404,-1.442450751460815139
0.581000000000000405,-1.434079927618005401
0.582000000000000406,-1.425769197116395492
0.583000000000000407,-1.417519025851023962
0.584000000000000408,-1.409329847799976720
0.585000000000000409,-1.401202065697598531
0.586000000000000409,-1.393136051701771905
0.587000000000000410,-1.385132148055241652
0.588000000000000411,-1.377190667740705532
0.589000000000000412,-1.369311895129740275
0.590000000000000413,-1.361496086625287649
0.591000000000000414,-1.353743471297727874
0.592000000000000415,-1.346054251514382960
0.593000000000000416,-1.338428603562364705
0.594000000000000417,-1.330866678264690073
0.595000000000000417,-1.323368601589662408
0.596000000000000418,-1.315934475253264235
0.597000000000000419,-1.308564377314735738
0.598000000000000420,-1.301258362765054244
0.599000000000000421,-1.294016464108436626
0.600000000000000422,-1.286838691936710521
0.601000000000000423,-1.279725035496521279
0.602000000000000424,-1.272675463249409722
0.603000000000000425,-1.265689923424629715
0.604000000000000425,-1.258768344564719088
0.605000000000000426,-1.251910636063811477
0.606000000000000427,-1.245116688698678420
0.607000000000000428,-1.238386375152362717
0.608000000000000429,-1.231719550530635310
0.609000000000000430,-1.225116052870966366
0.610000000000000431,-1.218575703644271035
0.611000000000000432,-1.212098308249256684
0.612000000000000433,-1.205683656499432654
0.613000000000000433,-1.199331523102814767
0.614000000000000434,-1.193041668134287470
