# ZnO1m210NBDry_BSAIV7
# h[nm],U(h)[kJ/mol]
0.149999999999999994,192.658928324731533621
0.150999999999999995,189.204926034830378967
0.151999999999999996,187.011341319351856782
0.152999999999999997,185.129462496105730906
0.153999999999999998,183.183571802502882520
0.154999999999999999,181.082549657256720366
0.156000000000000000,178.857482662844347487
0.157000000000000001,176.575963964512794746
0.158000000000000002,174.301483987222070482
0.159000000000000002,172.078071173230910063
0.160000000000000003,169.928052138805014692
0.161000000000000004,167.855774259853490094
0.162000000000000005,165.853278495182308916
0.163000000000000006,163.905847799379159824
0.164000000000000007,161.996509047271615600
0.165000000000000008,160.109218153882920888
0.166000000000000009,158.230798064525856717
0.167000000000000010,156.351851511413343587
0.168000000000000010,154.466914816574160341
0.169000000000000011,152.574105942411108572
0.170000000000000012,150.674480259512620250
0.171000000000000013,148.771259172014168826
0.172000000000000014,146.869049723846700317
0.173000000000000015,144.973132447986984062
0.174000000000000016,143.088861821562971954
0.175000000000000017,141.221198835424189610
0.176000000000000018,139.374377569001012489
0.177000000000000018,137.551696089742478080
0.178000000000000019,135.755415198407462185
0.179000000000000020,133.986745324982848615
0.180000000000000021,132.245901212031014893
0.181000000000000022,130.532205055604123345
0.182000000000000023,128.844220844365224821
0.183000000000000024,127.179905246129038687
0.184000000000000025,125.536763178837048827
0.185000000000000026,123.911998925311124253
0.186000000000000026,122.302656152649120713
0.187000000000000027,120.705742390105001505
0.188000000000000028,119.118335365197438591
0.189000000000000029,117.537670092434353819
0.190000000000000030,115.961206770856733783
0.191000000000000031,114.386680407745259913
0.192000000000000032,112.812133685591490462
0.193000000000000033,111.235934969531598426
0.194000000000000034,109.656783553861757241
0.195000000000000034,108.073704307171922778
0.196000000000000035,106.486033830242334375
0.197000000000000036,104.893400118775417695
0.198000000000000037,103.295697549241097590
0.199000000000000038,101.693058801029380334
0.200000000000000039,100.085825107999227157
0.201000000000000040,98.474516009934148997
0.202000000000000041,96.859799558688820298
0.203000000000000042,95.242463731538791194
0.204000000000000042,93.623389619775110759
0.205000000000000043,92.003526796463020787
0.206000000000000044,90.383871124621720128
0.207000000000000045,88.765445145922200254
0.208000000000000046,87.149281089575467263
0.209000000000000047,85.536406460084137393
0.210000000000000048,83.927832099269508603
0.211000000000000049,82.324542570586288548
0.212000000000000050,80.727488680216680450
0.213000000000000050,79.137581927837757689
0.214000000000000051,77.555690668375021346
0.215000000000000052,75.982637762721779495
0.216000000000000053,74.419199498686253946
0.217000000000000054,72.866105571860202872
0.218000000000000055,71.324039928396302912
0.219000000000000056,69.793642286716249146
0.220000000000000057,68.275510171987463082
0.221000000000000058,66.770201315016208810
0.222000000000000058,65.278236285339517053
0.223000000000000059,63.800101246246072151
0.224000000000000060,62.336250736796714023
0.225000000000000061,60.887110402344546856
0.226000000000000062,59.453079610349199413
0.227000000000000063,58.034533902290561969
0.228000000000000064,56.631827245130423876
0.229000000000000065,55.245294057003832222
0.230000000000000066,53.875250991659683564
0.231000000000000066,52.521998474638095900
0.232000000000000067,51.185821991341732939
0.233000000000000068,49.866993133099853708
0.234000000000000069,48.565770412134554590
0.235000000000000070,47.282399860114189494
0.236000000000000071,46.017115427823931384
0.237000000000000072,44.770139205497159196
0.238000000000000073,43.541681484642140276
0.239000000000000073,42.331940682858409275
0.240000000000000074,41.141103153260118575
0.241000000000000075,39.969342899801233671
0.242000000000000076,38.816821219103175622
0.243000000000000077,37.683686288397822750
0.244000000000000078,36.570072717981460642
0.245000000000000079,35.476101085187117690
0.246000000000000080,34.401877465377786791
0.247000000000000081,33.347492973882687295
0.248000000000000081,32.313023331185824816
0.249000000000000082,31.298528462062062516
0.250000000000000111,30.304052137766682051
0.251000000000000112,29.329621668846204585
0.252000000000000113,28.375247654663798613
0.253000000000000114,27.440923794344108444
0.254000000000000115,26.526626762539439852
0.255000000000000115,25.632316152220205652
0.256000000000000116,24.757934485593651175
0.257000000000000117,23.903407293263050803
0.258000000000000118,23.068643260853924914
0.259000000000000119,22.253534441552595524
0.260000000000000120,21.457956532322054244
0.261000000000000121,20.681769210980370133
0.262000000000000122,19.924816530838036499
0.263000000000000123,19.186927369192179782
0.264000000000000123,18.467915925657838017
0.265000000000000124,17.767582266076551889
0.266000000000000125,17.085712907571828367
0.267000000000000126,16.422081440214689962
0.268000000000000127,15.776449180713086662
0.269000000000000128,15.148565853542152126
0.270000000000000129,14.538170294980037767
0.271000000000000130,13.944991175601277433
0.272000000000000131,13.368747736902966139
0.273000000000000131,12.809150537889305355
0.274000000000000132,12.265902207616722563
0.275000000000000133,11.738698199897239505
0.276000000000000134,11.227227546569158889
0.277000000000000135,10.731173605968795215
0.278000000000000136,10.250214803468422176
0.279000000000000137,9.784025361183896763
0.280000000000000138,9.332276014196764891
0.281000000000000139,8.894634710875802597
0.282000000000000139,8.470767295123110330
0.283000000000000140,8.060338168604754827
0.284000000000000141,7.663010931256738267
0.285000000000000142,7.278448998580154594
0.286000000000000143,6.906316194455193624
0.287000000000000144,6.546277318410583135
0.288000000000000145,6.197998686481642316
0.289000000000000146,5.861148644978223743
0.290000000000000147,5.535398056658936916
0.291000000000000147,5.220420758974826825
0.292000000000000148,4.915893994198939687
0.293000000000000149,4.621498811402686258
0.294000000000000150,4.336920440371395458
0.295000000000000151,4.061848637673076468
0.296000000000000152,3.795978005205149941
0.297000000000000153,3.539008281643793108
0.298000000000000154,3.290644607310708292
0.299000000000000155,3.050597763052192768
0.300000000000000155,2.818584383796208126
0.301000000000000156,2.594327147515063992
0.302000000000000157,2.377554940374226877
0.303000000000000158,2.168002998893421296
0.304000000000000159,1.965413029983244186
0.305000000000000160,1.769533309751318395
0.306000000000000161,1.580118761995490839
0.307000000000000162,1.396931017319003043
0.308000000000000163,1.219738453814599666
0.309000000000000163,1.048316220270709476
0.310000000000000164,0.882446242854396545
0.311000000000000165,0.721917216223161740
0.312000000000000166,0.566524580010313139
0.313000000000000167,0.416070481618509569
0.314000000000000168,0.270363726241980129
0.315000000000000169,0.129219715021299197
0.316000000000000170,-0.007539627784862546
0.317000000000000171,-0.140085937747827238
0.318000000000000171,-0.268584502497395516
0.319000000000000172,-0.393194362416467602
0.320000000000000173,-0.514068419013849032
0.321000000000000174,-0.631353550215064008
0.322000000000000175,-0.745190731839793896
0.323000000000000176,-0.855715164563513597
0.324000000000000177,-0.963056405691046225
0.325000000000000178,-1.067338505099528545
0.326000000000000179,-1.168680144739024707
0.327000000000000179,-1.267194781108920587
0.328000000000000180,-1.362990790158568277
0.329000000000000181,-1.456171614090812749
0.330000000000000182,-1.546835909576131041
0.331000000000000183,-1.635077696914898127
0.332000000000000184,-1.720986509713271717
0.333000000000000185,-1.804647544666617254
0.334000000000000186,-1.886141811071575303
0.335000000000000187,-1.965546279714387223
0.336000000000000187,-2.042934030809210988
0.337000000000000188,-2.118374400684544856
0.338000000000000189,-2.191933126940830867
0.339000000000000190,-2.263672491825018618
0.340000000000000191,-2.333651463590302289
0.341000000000000192,-2.401925835630996264
0.342000000000000193,-2.468548363202847540
0.343000000000000194,-2.533568897558937216
0.344000000000000195,-2.597034517349579907
0.345000000000000195,-2.658989657153338015
0.346000000000000196,-2.719476233022156464
0.347000000000000197,-2.778533764940505524
0.348000000000000198,-2.836199496113086305
0.349000000000000199,-2.892508509010135676
0.350000000000000200,-2.947493838112865028
0.351000000000000201,-3.001186579314095049
0.352000000000000202,-3.053615995941024064
0.353000000000000203,-3.104809621378227469
0.354000000000000203,-3.154793358279298410
0.355000000000000204,-3.203591574364867967
0.356000000000000205,-3.251227194814027222
0.357000000000000206,-3.297721791264280000
0.358000000000000207,-3.343095667442415042
0.359000000000000208,-3.387367941456085330
0.360000000000000209,-3.430556624782104880
0.361000000000000210,-3.472678697992944485
0.362000000000000210,-3.513750183268752547
0.363000000000000211,-3.553786213746374933
0.364000000000000212,-3.592801099761495642
0.365000000000000213,-3.630808392043651800
0.366000000000000214,-3.667820941927169454
0.367000000000000215,-3.703850958644073987
0.368000000000000216,-3.738910063767620251
0.369000000000000217,-3.773009342877050809
0.370000000000000218,-3.806159394516272609
0.371000000000000218,-3.838370376520342298
0.372000000000000219,-3.869652049785121228
0.373000000000000220,-3.900013819556239270
0.374000000000000221,-3.929464774314124220
0.375000000000000222,-3.958013722332127227
0.376000000000000223,-3.985669225985431385
0.377000000000000224,-4.012439633887717960
0.378000000000000225,-4.038333110932827985
0.379000000000000226,-4.063357666317950034
0.380000000000000226,-4.087521179624565626
0.381000000000000227,-4.110831425032246855
0.382000000000000228,-4.133296093739975419
0.383000000000000229,-4.154922814668358555
0.384000000000000230,-4.175719173515028970
0.385000000000000231,-4.195692730234597434
0.386000000000000232,-4.214851035012804559
0.387000000000000233,-4.233201642803546605
0.388000000000000234,-4.250752126495665806
0.389000000000000234,-4.267510088775264165
0.390000000000000235,-4.283483172747372336
0.391000000000000236,-4.298679071379491567
0.392000000000000237,-4.313105535827749470
0.393000000000000238,-4.326770382704850704
0.394000000000000239,-4.339681500347187360
0.395000000000000240,-4.351846854136936393
0.396000000000000241,-4.363274490933155114
0.397000000000000242,-4.373972542664174235
0.398000000000000242,-4.383949229131977710
0.399000000000000243,-4.393212860077370330
0.400000000000000244,-4.401771836553203698
0.401000000000000245,-4.409634651651222370
0.402000000000000246,-4.416809890626152146
0.403000000000000247,-4.423306230459465915
0.404000000000000248,-4.429132438903154778
0.405000000000000249,-4.434297373042571877
0.406000000000000250,-4.438809977415517416
0.407000000000000250,-4.442679281723499685
0.408000000000000251,-4.445914398169254156
0.409000000000000252,-4.448524518453365495
0.410000000000000253,-4.450518910461159550
0.411000000000000254,-4.451906914669732984
0.412000000000000255,-4.452697940303509405
0.413000000000000256,-4.452901461265410532
0.414000000000000257,-4.452527011869253037
0.415000000000000258,-4.451584182397954947
0.416000000000000258,-4.450082614510485257
0.417000000000000259,-4.448031996519711484
0.418000000000000260,-4.445442058561700271
0.419000000000000261,-4.442322567676208145
0.420000000000000262,-4.438683322816705967
0.421000000000000263,-4.434534149807527470
0.422000000000000264,-4.429884896264261407
0.423000000000000265,-4.424745426492946443
0.424000000000000266,-4.419125616382442168
0.425000000000000266,-4.413035348303282035
0.426000000000000267,-4.406484506025780234
0.427000000000000268,-4.399482969668956578
0.428000000000000269,-4.392040610691181790
0.429000000000000270,-4.384167286932719954
0.430000000000000271,-4.375872837719278152
0.431000000000000272,-4.367167079035416677
0.432000000000000273,-4.358059798775464344
0.433000000000000274,-4.348560752079356106
0.434000000000000274,-4.338679656759827807
0.435000000000000275,-4.328426188827050325
0.436000000000000276,-4.317809978116052605
0.437000000000000277,-4.306840604021759944
0.438000000000000278,-4.295527591346006702
0.439000000000000279,-4.283880406260339058
0.440000000000000280,-4.271908452387895849
0.441000000000000281,-4.259621067007305584
0.442000000000000282,-4.247027517381149586
0.443000000000000282,-4.234136997210819153
0.444000000000000283,-4.220958623219758010
0.445000000000000284,-4.207501431866196739
0.446000000000000285,-4.193774376186377495
0.447000000000000286,-4.179786322769154516
0.448000000000000287,-4.165546048862006856
0.449000000000000288,-4.151062239608889648
0.450000000000000289,-4.136343485419494037
0.451000000000000290,-4.121398279469628001
0.452000000000000290,-4.106235015332101668
0.453000000000000291,-4.090861984737117041
0.454000000000000292,-4.075287375461277506
0.455000000000000293,-4.059519269343842218
0.456000000000000294,-4.043565640428875341
0.457000000000000295,-4.027434353231782005
0.458000000000000296,-4.011133161128361380
0.459000000000000297,-3.994669704864740822
0.460000000000000298,-3.978051511186041722
0.461000000000000298,-3.961285991581882993
0.462000000000000299,-3.944380441146424054
0.463000000000000300,-3.927342037550734410
0.464000000000000301,-3.910177840125209858
0.465000000000000302,-3.892894789049576865
0.466000000000000303,-3.875499704648013299
0.467000000000000304,-3.857999286786929272
0.468000000000000305,-3.840400114372807927
0.469000000000000306,-3.822708644947464762
0.470000000000000306,-3.804931214378261650
0.471000000000000307,-3.787074036640366792
0.472000000000000308,-3.769143203688613220
0.473000000000000309,-3.751144685416176294
0.474000000000000310,-3.733084329697360371
0.475000000000000311,-3.714967862511817209
0.476000000000000312,-3.696800888147566244
0.477000000000000313,-3.678588889480018942
0.478000000000000314,-3.660337228324385794
0.479000000000000314,-3.642051145858878236
0.480000000000000315,-3.623735763115877084
0.481000000000000316,-3.605396081538697839
0.482000000000000317,-3.587036983601097795
0.483000000000000318,-3.568663233487163744
0.484000000000000319,-3.550279477828921504
0.485000000000000320,-3.531890246499198582
0.486000000000000321,-3.513499953457296154
0.487000000000000322,-3.495112897645008765
0.488000000000000322,-3.476733263930513740
0.489000000000000323,-3.458365124097992016
0.490000000000000324,-3.440012437880442864
0.491000000000000325,-3.421679054033536893
0.492000000000000326,-3.403368711448234940
0.493000000000000327,-3.385085040300047865
0.494000000000000328,-3.366831563232731472
0.495000000000000329,-3.348611696574391061
0.496000000000000330,-3.330428751583855096
0.497000000000000330,-3.312285935725530095
0.498000000000000331,-3.294186353970453673
0.499000000000000332,-3.276133010122030953
0.500000000000000333,-3.258128808164350687
0.501000000000000334,-3.240176553631305190
0.502000000000000335,-3.222278954994883371
0.503000000000000336,-3.204438625070837876
0.504000000000000337,-3.186658082440099182
0.505000000000000338,-3.168939752884308625
0.506000000000000338,-3.151285970833985317
0.507000000000000339,-3.133698980827731351
0.508000000000000340,-3.116180938981027992
0.509000000000000341,-3.098733914463337236
0.510000000000000342,-3.081359890981915761
0.511000000000000343,-3.064060768271242630
0.512000000000000344,-3.046838363586619636
0.513000000000000345,-3.029694413200801240
0.514000000000000346,-3.012630573902502551
0.515000000000000346,-2.995648424495513940
0.516000000000000347,-2.978749467297431952
0.517000000000000348,-2.961935129636967368
0.518000000000000349,-2.945206765348687306
0.519000000000000350,-2.928565656264378259
0.520000000000000351,-2.912013013699946917
0.521000000000000352,-2.895549979937129592
0.522000000000000353,-2.879177629698986607
0.523000000000000353,-2.862896971618467568
0.524000000000000354,-2.846708949699281455
0.525000000000000355,-2.830614444768246418
0.526000000000000356,-2.814614275918461139
0.527000000000000357,-2.798709201942671143
0.528000000000000358,-2.782899922756058242
0.529000000000000359,-2.767187080808031663
0.530000000000000360,-2.751571262482242819
0.531000000000000361,-2.736052999484462678
0.532000000000000361,-2.720632770217687124
0.533000000000000362,-2.705311001144062644
0.534000000000000363,-2.690088068133116295
0.535000000000000364,-2.674964297795937807
0.536000000000000365,-2.659939968804838184
0.537000000000000366,-2.645015313198190388
0.538000000000000367,-2.630190517670007999
0.539000000000000368,-2.615465724844097561
0.540000000000000369,-2.600841034532281437
0.541000000000000369,-2.586316504976650776
0.542000000000000370,-2.571892154075355208
0.543000000000000371,-2.557567960591922596
0.544000000000000372,-2.543343865347745147
0.545000000000000373,-2.529219772397655497
0.546000000000000374,-2.515195550188323192
0.547000000000000375,-2.501271032699396990
0.548000000000000376,-2.487446020567279259
0.549000000000000377,-2.473720282191336217
0.550000000000000377,-2.460093554822541773
0.551000000000000378,-2.446565545634399097
0.552000000000000379,-2.433135932776164800
0.553000000000000380,-2.419804366408253138
0.554000000000000381,-2.406570469719791383
0.555000000000000382,-2.393433839928442719
0.556000000000000383,-2.380394049262222644
0.557000000000000384,-2.367450645923660169
0.558000000000000385,-2.354603155036001816
0.559000000000000385,-2.341851079571733329
0.560000000000000386,-2.329193901263320932
0.561000000000000387,-2.316631081496313360
0.562000000000000388,-2.304162062184768267
0.563000000000000389,-2.291786266629246338
0.564000000000000390,-2.279503100357258116
0.565000000000000391,-2.267311951946416215
0.566000000000000392,-2.255212193830308465
0.567000000000000393,-2.243203183087266517
0.568000000000000393,-2.231284262212058778
0.569000000000000394,-2.219454759870728378
0.570000000000000395,-2.207713991638677875
0.571000000000000396,-2.196061260722057984
0.572000000000000397,-2.184495858662784507
0.573000000000000398,-2.173017066027127520
0.574000000000000399,-2.161624153078206323
0.575000000000000400,-2.150316380432408359
0.576000000000000401,-2.139092999699986564
0.577000000000000401,-2.127953254110028336
0.578000000000000402,-2.116896379119848515
0.579000000000000403,-2.105921603009078602
0.580000000000000404,-2.095028147458671164
0.581000000000000405,-2.084215228114859375
0.582000000000000406,-2.073482055138421210
0.583000000000000407,-2.062827833739312666
0.584000000000000408,-2.052251764696939595
0.585000000000000409,-2.041753044866235545
0.586000000000000409,-2.031330867669717488
0.587000000000000410,-2.020984423575795663
0.588000000000000411,-2.010712900563405903
0.589000000000000412,-2.000515484573353042
0.590000000000000413,-1.990391359946344085
0.591000000000000414,-1.980339709848095042
0.592000000000000415,-1.970359716681669537
0.593000000000000416,-1.960450562487154658
0.594000000000000417,-1.950611429329007773
0.595000000000000417,-1.940841499671275727
0.596000000000000418,-1.931139956740709263
0.597000000000000419,-1.921505984878266515
0.598000000000000420,-1.911938769878933186
0.599000000000000421,-1.902437499320264847
0.600000000000000422,-1.893001362879734417
0.601000000000000423,-1.883629552641138405
0.602000000000000424,-1.874321263390259062
0.603000000000000425,-1.865075692899998971
0.604000000000000425,-1.855892042205122383
0.605000000000000426,-1.846769515866874656
0.606000000000000427,-1.837707322227716489
0.607000000000000428,-1.828704673656130764
0.608000000000000429,-1.819760786782126161
0.609000000000000430,-1.810874882723108481
0.610000000000000431,-1.802046187300815561
0.611000000000000432,-1.793273931249136144
0.612000000000000433,-1.784557350413153332
