# ZnO1m210NBDry_SYRINGYL-AC
# h[nm],U(h)[kJ/mol]
0.149999999999999994,133.540472054883906594
0.150999999999999995,131.283717281510945440
0.151999999999999996,129.778750150347605086
0.152999999999999997,128.407877074284499486
0.153999999999999998,126.943342935327862619
0.154999999999999999,125.346657489789691908
0.156000000000000000,123.656750169544125129
0.157000000000000001,121.931896474832527133
0.158000000000000002,120.223018180914294817
0.159000000000000002,118.564353225323799279
0.160000000000000003,116.972981074646668276
0.161000000000000004,115.452220419186573963
0.162000000000000005,113.996139741573841775
0.163000000000000006,112.593783703015517972
0.164000000000000007,111.232522198144550885
0.165000000000000008,109.900377868763442279
0.166000000000000009,108.587416994513063173
0.167000000000000010,107.286386438981566016
0.168000000000000010,105.992802541398489780
0.169000000000000011,104.704682146530515752
0.170000000000000012,103.422073003941790148
0.171000000000000013,102.146503093020299957
0.172000000000000014,100.880432807135946405
0.173000000000000015,99.626763546634990121
0.174000000000000016,98.388432188436667047
0.175000000000000017,97.168102993954306612
0.176000000000000018,95.967956063151831358
0.177000000000000018,94.789563478474775593
0.178000000000000019,93.633839815749766444
0.179000000000000020,92.501051818889209244
0.180000000000000021,91.390871962888212465
0.181000000000000022,90.302461734152828399
0.182000000000000023,89.234572249652032383
0.183000000000000024,88.185651953839084172
0.184000000000000025,87.153953317866893258
0.185000000000000026,86.137632547865038646
0.186000000000000026,85.134838182759693836
0.187000000000000027,84.143786071688452921
0.188000000000000028,83.162819546531480341
0.189000000000000029,82.190454650921935809
0.190000000000000030,81.225411073500282555
0.191000000000000031,80.266629989419968183
0.192000000000000032,79.313280373759312170
0.193000000000000033,78.364755547990853302
0.194000000000000034,77.420661789062762637
0.195000000000000034,76.480800800219341795
0.196000000000000035,75.545147740114828139
0.197000000000000036,74.613826354854040801
0.198000000000000037,73.687082575231528381
0.199000000000000038,72.765257743856295747
0.200000000000000039,71.848762435921599945
0.201000000000000040,70.938051642023168597
0.202000000000000041,70.033601898046910605
0.203000000000000042,69.135890780018158353
0.204000000000000042,68.245379033497059140
0.205000000000000043,67.362495478817265848
0.206000000000000044,66.487624725347828303
0.207000000000000045,65.621097639377921951
0.208000000000000046,64.763184439995171715
0.209000000000000047,63.914090243889539522
0.210000000000000048,63.073952841598234897
0.211000000000000049,62.242842462433159767
0.212000000000000050,61.420763271319536614
0.213000000000000050,60.607656336199525526
0.214000000000000051,59.803403807792015812
0.215000000000000052,59.007834062773270034
0.216000000000000053,58.220727575418059985
0.217000000000000054,57.441823300161544807
0.218000000000000055,56.670825367303542919
0.219000000000000056,55.907409915251037091
0.220000000000000057,55.151231904489350200
0.221000000000000058,54.401931780252901660
0.222000000000000058,53.659141872112300575
0.223000000000000059,52.922492439011151077
0.224000000000000060,52.191617287371670386
0.225000000000000061,51.466158907534271805
0.226000000000000062,50.745773089863291716
0.227000000000000063,50.030132996268605439
0.228000000000000064,49.318932675634918894
0.229000000000000065,48.611890022735778416
0.230000000000000066,47.908749189693715209
0.231000000000000066,47.209282467000221573
0.232000000000000067,46.513291657631995690
0.233000000000000068,45.820608972993774444
0.234000000000000069,45.131097483401816817
0.235000000000000070,44.444651158713675443
0.236000000000000071,43.761194536626838669
0.237000000000000072,43.080682057230475834
0.238000000000000073,42.403097102712493438
0.239000000000000073,41.728450780807719411
0.240000000000000074,41.056780489719784555
0.241000000000000075,40.388148300957674053
0.242000000000000076,39.722639194879128866
0.243000000000000077,39.060359181807129403
0.244000000000000078,38.401433339452744065
0.245000000000000079,37.746003795097252009
0.246000000000000080,37.094227678616491062
0.247000000000000081,36.446275070013641084
0.248000000000000081,35.802326962708235669
0.249000000000000082,35.162573261439675321
0.250000000000000111,34.527210831312885375
0.251000000000000112,33.896441612265519439
0.252000000000000113,33.270470811086966023
0.253000000000000114,32.649505181086446726
0.254000000000000115,32.033751397597882260
0.255000000000000115,31.423414535732717923
0.256000000000000116,30.818696655151427422
0.257000000000000117,30.219795495122053097
0.258000000000000118,29.626903281770580634
0.259000000000000119,29.040205648199325594
0.260000000000000120,28.459880667054090253
0.261000000000000121,27.886097994153413282
0.262000000000000122,27.319018120947795580
0.263000000000000123,26.758791732847647893
0.264000000000000123,26.205559169839311551
0.265000000000000124,25.659449985290450513
0.266000000000000125,25.120582598424029186
0.267000000000000126,24.589064035605126435
0.268000000000000127,24.064989755329257548
0.269000000000000128,23.548443551619993030
0.270000000000000129,23.039497530427063055
0.271000000000000130,22.538212153558816908
0.272000000000000131,22.044636344679044981
0.273000000000000131,21.558807651939236649
0.274000000000000132,21.080752461899795236
0.275000000000000133,20.610486259510381046
0.276000000000000134,20.148013929066159733
0.277000000000000135,19.693330091228745005
0.278000000000000136,19.246419471392016476
0.279000000000000137,18.807257294881864595
0.280000000000000138,18.375809704700763803
0.281000000000000139,17.952034197758109713
0.282000000000000139,17.535880075765600594
0.283000000000000140,17.127288907217497638
0.284000000000000141,16.726194997118732033
0.285000000000000142,16.332525861365940756
0.286000000000000143,15.946202702925631911
0.287000000000000144,15.567140887190145548
0.288000000000000145,15.195250414121243665
0.289000000000000146,14.830436385015755008
0.290000000000000147,14.472599461943127963
0.291000000000000147,14.121636318113164776
0.292000000000000148,13.777440077630728865
0.293000000000000149,13.439900743284448836
0.294000000000000150,13.108905611195956098
0.295000000000000151,12.784339671326467425
0.296000000000000152,12.466085992997603782
0.297000000000000153,12.154026094733342944
0.298000000000000154,11.848040297869800952
0.299000000000000155,11.548008063509929144
0.300000000000000155,11.253808312520320101
0.301000000000000156,10.965319728378599251
0.302000000000000157,10.682421042781049536
0.303000000000000158,10.404991304013503139
0.304000000000000159,10.132910128172307296
0.305000000000000160,9.866057933398453272
0.306000000000000161,9.604316157356006300
0.307000000000000162,9.347567458246686556
0.308000000000000163,9.095695899706095489
0.309000000000000163,8.848587119974141046
0.310000000000000164,8.606128485772702064
0.311000000000000165,8.368209231358516575
0.312000000000000166,8.134720583248512327
0.313000000000000167,7.905555871138941981
0.314000000000000168,7.680610625559154414
0.315000000000000169,7.459782662815811705
0.316000000000000170,7.242972157794255850
0.317000000000000171,7.030081705191259189
0.318000000000000171,6.821016369756948805
0.319000000000000172,6.615683726124697905
0.320000000000000173,6.413993888805721966
0.321000000000000174,6.215859532920734232
0.322000000000000175,6.021195906234063422
0.323000000000000176,5.829920833047161466
0.324000000000000177,5.641954710497705250
0.325000000000000178,5.457220497798770609
0.326000000000000179,5.275643698938773163
0.327000000000000179,5.097152339348791195
0.328000000000000180,4.921676937028145460
0.329000000000000181,4.749150468602929109
0.330000000000000182,4.579508330775305502
0.331000000000000183,4.412688297603814647
0.332000000000000184,4.248630474037303983
0.333000000000000185,4.087277246106966189
0.334000000000000186,3.928573228162674180
0.335000000000000187,3.772465207521666919
0.336000000000000187,3.618902086879168145
0.337000000000000188,3.467834824812779715
0.338000000000000189,3.319216374694093474
0.339000000000000190,3.173001622303468050
0.340000000000000191,3.029147322426603228
0.341000000000000192,2.887612034694309049
0.342000000000000193,2.748356058910206290
0.343000000000000194,2.611341370094883096
0.344000000000000195,2.476531553459417445
0.345000000000000195,2.343891739505344241
0.346000000000000196,2.213388539434036240
0.347000000000000197,2.084989981033497308
0.348000000000000198,1.958665445197331323
0.349000000000000199,1.834385603217072669
0.350000000000000200,1.712122354976569838
0.351000000000000201,1.591848768164884742
0.352000000000000202,1.473539018612721296
0.353000000000000203,1.357168331846170251
0.354000000000000203,1.242712925941178881
0.355000000000000204,1.130149955752270952
0.356000000000000205,1.019457458579439368
0.357000000000000206,0.910614301328232401
0.358000000000000207,0.803600129209898761
0.359000000000000208,0.698395316020225865
0.360000000000000209,0.594980916028381990
0.361000000000000210,0.493338617500302057
0.362000000000000210,0.393450697874306865
0.363000000000000211,0.295299980600916001
0.364000000000000212,0.198869793652924759
0.365000000000000213,0.104143929706728741
0.366000000000000214,0.011106607990993811
0.367000000000000215,-0.080257562205651792
0.368000000000000216,-0.169963616380498006
0.369000000000000217,-0.258026268032169825
0.370000000000000218,-0.344459940265471054
0.371000000000000218,-0.429278795808133551
0.372000000000000219,-0.512496765465179083
0.373000000000000220,-0.594127575038921774
0.374000000000000221,-0.674184770744817974
0.375000000000000222,-0.752681743155476646
0.376000000000000223,-0.829631749707012256
0.377000000000000224,-0.905047935803130366
0.378000000000000225,-0.978943354553930334
0.379000000000000226,-1.051330985187317602
0.380000000000000226,-1.122223750172090861
0.381000000000000227,-1.191634531092135685
0.382000000000000228,-1.259576183312123288
0.383000000000000229,-1.326061549475272550
0.384000000000000230,-1.391103471874092889
0.385000000000000231,-1.454714803735252859
0.386000000000000232,-1.516908419459532364
0.387000000000000233,-1.577697223858067987
0.388000000000000234,-1.637094160425462519
0.389000000000000234,-1.695112218690476125
0.390000000000000235,-1.751764440684348445
0.391000000000000236,-1.807063926566463197
0.392000000000000237,-1.861023839446500405
0.393000000000000238,-1.913657409441706481
0.394000000000000239,-1.964977937007077013
0.395000000000000240,-2.014998795575818402
0.396000000000000241,-2.063733433546433016
0.397000000000000242,-2.111195375652122230
0.398000000000000242,-2.157398223747438948
0.399000000000000243,-2.202355657046021431
0.400000000000000244,-2.246081431842688936
0.401000000000000245,-2.288589380752011682
0.402000000000000246,-2.329893411494592836
0.403000000000000247,-2.370007505261547021
0.404000000000000248,-2.408945714686482553
0.405000000000000249,-2.446722161453461553
0.406000000000000250,-2.483351033568443889
0.407000000000000250,-2.518846582320764860
0.408000000000000251,-2.553223118960239901
0.409000000000000252,-2.586495011114493092
0.410000000000000253,-2.618676678970283778
0.411000000000000254,-2.649782591241487850
0.412000000000000255,-2.679827260945629508
0.413000000000000256,-2.708825241009893858
0.414000000000000257,-2.736791119726524446
0.415000000000000258,-2.763739516076897829
0.416000000000000258,-2.789685074942319876
0.417000000000000259,-2.814642462219135943
0.418000000000000260,-2.838626359854538261
0.419000000000000261,-2.861651460818942727
0.420000000000000262,-2.883732464029721498
0.421000000000000263,-2.904884069240593281
0.422000000000000264,-2.925120971909873635
0.423000000000000265,-2.944457858060377742
0.424000000000000266,-2.962909399142836797
0.425000000000000266,-2.980490246913964025
0.426000000000000267,-2.997215028339836884
0.427000000000000268,-3.013098340534372532
0.428000000000000269,-3.028154745742136722
0.429000000000000270,-3.042398766374174279
0.430000000000000271,-3.055844880104755301
0.431000000000000272,-3.068507515036633215
0.432000000000000273,-3.080401044941548427
0.433000000000000274,-3.091539784582470141
0.434000000000000274,-3.101937985123320196
0.435000000000000275,-3.111609829631567514
0.436000000000000276,-3.120569428678584334
0.437000000000000277,-3.128830816042141638
0.438000000000000278,-3.136407944515050339
0.439000000000000279,-3.143314681823552892
0.440000000000000280,-3.149564806658554428
0.441000000000000281,-3.155172004822558218
0.442000000000000282,-3.160149865494735977
0.443000000000000282,-3.164511877616131397
0.444000000000000283,-3.168271426396894075
0.445000000000000284,-3.171441789946842782
0.446000000000000285,-3.174036136030601085
0.447000000000000286,-3.176067518948186397
0.448000000000000287,-3.177548876541549383
0.449000000000000288,-3.178493027327575771
0.450000000000000289,-3.178912667757506583
0.451000000000000290,-3.178820369602766593
0.452000000000000290,-3.178228577466930549
0.453000000000000291,-3.177149606423138373
0.454000000000000292,-3.175595639776479739
0.455000000000000293,-3.173578726950319950
0.456000000000000294,-3.171110781495591446
0.457000000000000295,-3.168203579221931410
0.458000000000000296,-3.164868756449204845
0.459000000000000297,-3.161117808378130611
0.460000000000000298,-3.156962087578301102
0.461000000000000298,-3.152412802592026164
0.462000000000000299,-3.147481016652165842
0.463000000000000300,-3.142177646512061440
0.464000000000000301,-3.136513461385700641
0.465000000000000302,-3.130499081996013011
0.466000000000000303,-3.124144979729177152
0.467000000000000304,-3.117461475892914446
0.468000000000000305,-3.110458741076366440
0.469000000000000306,-3.103146794609438430
0.470000000000000306,-3.095535504119317771
0.471000000000000307,-3.087634585181659563
0.472000000000000308,-3.079453601064292112
0.473000000000000309,-3.071001962560914400
0.474000000000000310,-3.062288927912402592
0.475000000000000311,-3.053323602813313720
0.476000000000000312,-3.044114940501155164
0.477000000000000313,-3.034671741925983213
0.478000000000000314,-3.025002655997834466
0.479000000000000314,-3.015116179909651084
0.480000000000000315,-3.005020659533142346
0.481000000000000316,-2.994724289885288382
0.482000000000000317,-2.984235115662945859
0.483000000000000318,-2.973561031843262814
0.484000000000000319,-2.962709784347437925
0.485000000000000320,-2.951688970765532272
0.486000000000000321,-2.940506041139944404
0.487000000000000322,-2.929168298805289616
0.488000000000000322,-2.917682901282288466
0.489000000000000323,-2.906056861223577314
0.490000000000000324,-2.894297047409060131
0.491000000000000325,-2.882410185788674362
0.492000000000000326,-2.870402860570402392
0.493000000000000327,-2.858281515351407620
0.494000000000000328,-2.846052454290171063
0.495000000000000329,-2.833721843317635880
0.496000000000000330,-2.821295711385245486
0.497000000000000330,-2.808779951748046955
0.498000000000000331,-2.796180323280698321
0.499000000000000332,-2.783502451824743762
0.500000000000000333,-2.770751831565108514
0.501000000000000334,-2.757933826434023850
0.502000000000000335,-2.745053671540688800
0.503000000000000336,-2.732116474624856295
0.504000000000000337,-2.719127217532673946
0.505000000000000338,-2.706090757713135453
0.506000000000000338,-2.693011829733522156
0.507000000000000339,-2.679895046812282633
0.508000000000000340,-2.666744902367763626
0.509000000000000341,-2.653565771581457788
0.510000000000000342,-2.640361912974110048
0.511000000000000343,-2.627137469993490626
0.512000000000000344,-2.613896472612313726
0.513000000000000345,-2.600642838935078860
0.514000000000000346,-2.587380376812546068
0.515000000000000346,-2.574112785462538966
0.516000000000000347,-2.560843657095947190
0.517000000000000348,-2.547576478546765166
0.518000000000000349,-2.534314632904967723
0.519000000000000350,-2.521061401151269088
0.520000000000000351,-2.507819963792556006
0.521000000000000352,-2.494593402497180534
0.522000000000000353,-2.481384701728938325
0.523000000000000353,-2.468196750378954807
0.524000000000000354,-2.455032343394500494
0.525000000000000355,-2.441894183403889862
0.526000000000000356,-2.428784882336602280
0.527000000000000357,-2.415706963037918431
0.528000000000000358,-2.402662860877149864
0.529000000000000359,-2.389654925348934089
0.530000000000000360,-2.376685421666658637
0.531000000000000361,-2.363756532347571770
0.532000000000000361,-2.350870358788770709
0.533000000000000362,-2.338028922833550460
0.534000000000000363,-2.325234168327473760
0.535000000000000364,-2.312487962663680285
0.536000000000000365,-2.299792098316816080
0.537000000000000366,-2.287148294365188406
0.538000000000000367,-2.274558198000545595
0.539000000000000368,-2.262023386025205252
0.540000000000000369,-2.249545366335916619
0.541000000000000369,-2.237125579394250163
0.542000000000000370,-2.224765399682950395
0.543000000000000371,-2.212466137148081380
0.544000000000000372,-2.200229038626487998
0.545000000000000373,-2.188055289258392211
0.546000000000000374,-2.175946013884715757
0.547000000000000375,-2.163902278428965431
0.548000000000000376,-2.151925091263384271
0.549000000000000377,-2.140015404559154177
0.550000000000000377,-2.128174115620454998
0.551000000000000378,-2.116402068202142495
0.552000000000000379,-2.104700053810968363
0.553000000000000380,-2.093068812990075411
0.554000000000000381,-2.081509036586701278
0.555000000000000382,-2.070021367002987223
0.556000000000000383,-2.058606399429664613
0.557000000000000384,-2.047264683062722135
0.558000000000000385,-2.035996722302755302
0.559000000000000385,-2.024802977937111059
0.560000000000000386,-2.013683868304697366
0.561000000000000387,-2.002639770443416012
0.562000000000000388,-1.991671021220200899
0.563000000000000389,-1.980777918443687113
0.564000000000000390,-1.969960721959443051
0.565000000000000391,-1.959219654727817117
0.566000000000000392,-1.948554903884393896
0.567000000000000393,-1.937966621783141274
0.568000000000000393,-1.927454927022184350
0.569000000000000394,-1.917019905452350459
0.570000000000000395,-1.906661611168517734
0.571000000000000396,-1.896380067483773413
0.572000000000000397,-1.886175267886557760
0.573000000000000398,-1.876047176980768061
0.574000000000000399,-1.865995731408988778
0.575000000000000400,-1.856020840758901613
0.576000000000000401,-1.846122388452969165
0.577000000000000401,-1.836300232621576045
0.578000000000000402,-1.826554206959611237
0.579000000000000403,-1.816884121566707533
0.580000000000000404,-1.807289763771286362
0.581000000000000405,-1.797770898938390705
0.582000000000000406,-1.788327271261639151
0.583000000000000407,-1.778958604539252253
0.584000000000000408,-1.769664602934438280
0.585000000000000409,-1.760444951720203877
0.586000000000000409,-1.751299318008746386
0.587000000000000410,-1.742227351465640783
0.588000000000000411,-1.733228685008876280
0.589000000000000412,-1.724302935493033262
0.590000000000000413,-1.715449704378615436
0.591000000000000414,-1.706668578386830948
0.592000000000000415,-1.697959130139931050
0.593000000000000416,-1.689320918787259540
0.594000000000000417,-1.680753490617203694
0.595000000000000417,-1.672256379655298719
0.596000000000000418,-1.663829108248451760
0.597000000000000419,-1.655471187635745967
0.598000000000000420,-1.647182118505718718
0.599000000000000421,-1.638961391540523449
0.600000000000000422,-1.630808487947009722
0.601000000000000423,-1.622722879974944687
0.602000000000000424,-1.614704031422591779
0.603000000000000425,-1.606751398129782515
0.604000000000000425,-1.598864428458659948
0.605000000000000426,-1.591042563762313122
0.606000000000000427,-1.583285238841492415
0.607000000000000428,-1.575591882389461684
0.608000000000000429,-1.567961917425420459
0.609000000000000430,-1.560394761716357159
0.610000000000000431,-1.552889828187820287
0.611000000000000432,-1.545446525323573184
0.612000000000000433,-1.538064257554395686
0.613000000000000433,-1.530742425636238524
