# ZnO1m210NBDry_OXANE-AC
# h[nm],U(h)[kJ/mol]
0.149999999999999994,166.236085534358977611
0.150999999999999995,164.947326584071788602
0.151999999999999996,162.946010921507706826
0.152999999999999997,160.878354714250662028
0.153999999999999998,158.933048491127976831
0.154999999999999999,157.108061745333941417
0.156000000000000000,155.344501648224024848
0.157000000000000001,153.585956337755419554
0.158000000000000002,151.798510764959729613
0.159000000000000002,149.971922689206905943
0.160000000000000003,148.113339334660281565
0.161000000000000004,146.239441505193411786
0.162000000000000005,144.369704296395298115
0.163000000000000006,142.521694973716904542
0.164000000000000007,140.708425929734687543
0.165000000000000008,138.937383873935857537
0.166000000000000009,137.210739995084878728
0.167000000000000010,135.526272121518502445
0.168000000000000010,133.878617835444231332
0.169000000000000011,132.260581766088733957
0.170000000000000012,130.664317608577277952
0.171000000000000013,129.082285622903611966
0.172000000000000014,127.507946732072042550
0.173000000000000015,125.936196034845053759
0.174000000000000016,124.363564517083815986
0.175000000000000017,122.788231458642258076
0.176000000000000018,121.209894828138317280
0.177000000000000018,119.629545722422562903
0.178000000000000019,118.049187965519678301
0.179000000000000020,116.471537098476076721
0.180000000000000021,114.899725434071072527
0.181000000000000022,113.337032472041258302
0.182000000000000023,111.786653298737263640
0.183000000000000024,110.251511912511588775
0.184000000000000025,108.734121829836269058
0.185000000000000026,107.236492825595263412
0.186000000000000026,105.760080157898798348
0.187000000000000027,104.305770995166355419
0.188000000000000028,102.873901855202376510
0.189000000000000029,101.464300534965573775
0.190000000000000030,100.076346116930182006
0.191000000000000031,98.709041059500620463
0.192000000000000032,97.361090008935406104
0.193000000000000033,96.030980721387223298
0.194000000000000034,94.717063286749720419
0.195000000000000034,93.417624648246984975
0.196000000000000035,92.130956174796708069
0.197000000000000036,90.855412741060220583
0.198000000000000037,89.589462386731739230
0.199000000000000038,88.331726153989620798
0.200000000000000039,87.081008138227758764
0.201000000000000040,85.836316134837687741
0.202000000000000041,84.596873529708048522
0.203000000000000042,83.362123271105815547
0.204000000000000042,82.131724884703160683
0.205000000000000043,80.905545561214424310
0.206000000000000044,79.683646366836470065
0.207000000000000045,78.466264609482621495
0.208000000000000046,77.253793347010443426
0.209000000000000047,76.046758954804772657
0.210000000000000048,74.845797585810217356
0.211000000000000049,73.651631262106008080
0.212000000000000050,72.465044238158881740
0.213000000000000050,71.286860175896507030
0.214000000000000051,70.117920573828143915
0.215000000000000052,68.959064799007762758
0.216000000000000053,67.811111983453358221
0.217000000000000054,66.674844966933122237
0.218000000000000055,65.550996396558815604
0.219000000000000056,64.440237030775890048
0.220000000000000057,63.343166241162677466
0.221000000000000058,62.260304659781787961
0.222000000000000058,61.192088882280856410
0.223000000000000059,60.138868107025437837
0.224000000000000060,59.100902567649825414
0.225000000000000061,58.078363599876695389
0.226000000000000062,57.071335172587602358
0.227000000000000063,56.079816707227188033
0.228000000000000064,55.103727008007432175
0.229000000000000065,54.142909127384498902
0.230000000000000066,53.197135996291009974
0.231000000000000066,52.266116656040914279
0.232000000000000067,51.349502938158835263
0.233000000000000068,50.446896449143466157
0.234000000000000069,49.557855728935173545
0.235000000000000070,48.681903464250481761
0.236000000000000071,47.818533650651588118
0.237000000000000072,46.967218609964504594
0.238000000000000073,46.127415782218136542
0.239000000000000073,45.298574223465081445
0.240000000000000074,44.480140752506109436
0.241000000000000075,43.671565700570546653
0.242000000000000076,42.872308228308327216
0.243000000000000077,42.081841183972137799
0.244000000000000078,41.299655485373705233
0.245000000000000079,40.525264016065911221
0.246000000000000080,39.758205033236365011
0.247000000000000081,38.998045091006090956
0.248000000000000081,38.244381488236975031
0.249000000000000082,37.496844254594272172
0.250000000000000111,36.755097692525659170
0.251000000000000112,36.018841496050626461
0.252000000000000113,35.287811469850353774
0.253000000000000114,34.561779874162382953
0.254000000000000115,33.840555422460326440
0.255000000000000115,33.123982959896252964
0.256000000000000116,32.411942851045083103
0.257000000000000117,31.704350105669853122
0.258000000000000118,31.001153271069824768
0.259000000000000119,30.302333119124433836
0.260000000000000120,29.607901155447159169
0.261000000000000121,28.917897977156190592
0.262000000000000122,28.232391504685892869
0.263000000000000123,27.551475111843206633
0.264000000000000123,26.875265676981804575
0.265000000000000124,26.203901576756493341
0.266000000000000125,25.537540642452704276
0.267000000000000126,24.876358097385427470
0.268000000000000127,24.220544492345858600
0.269000000000000128,23.570303654563453222
0.270000000000000129,22.925850664155895231
0.271000000000000130,22.287409870576393445
0.272000000000000131,21.655212960146176471
0.273000000000000131,21.029497084387447359
0.274000000000000132,20.410503057558642581
0.275000000000000133,19.798473630541742807
0.276000000000000134,19.193651847047782155
0.277000000000000135,18.596279486993761765
0.278000000000000136,18.006595600862137729
0.279000000000000137,17.424835137886962144
0.280000000000000138,16.851227670017141946
0.281000000000000139,16.285996212785054382
0.282000000000000139,15.729356143460950790
0.283000000000000140,15.181514216193667366
0.284000000000000141,14.642667673227649061
0.285000000000000142,14.113003450740867706
0.286000000000000143,13.592697477365476288
0.287000000000000144,13.081914063030689377
0.288000000000000145,12.580805375400307966
0.289000000000000146,12.089511000865972079
0.290000000000000147,11.608157586793021565
0.291000000000000147,11.136858561501139064
0.292000000000000148,10.675713928288342203
0.293000000000000149,10.224810129675258707
0.294000000000000150,9.784219977950190383
0.295000000000000151,9.354002648033979739
0.296000000000000152,8.934203728651826992
0.297000000000000153,8.524855327796043269
0.298000000000000154,8.125976228484212527
0.299000000000000155,7.737572090860974861
0.300000000000000155,7.359635696754321721
0.301000000000000156,6.992147232877726992
0.302000000000000157,6.635074608963833498
0.303000000000000158,6.288373807224175494
0.304000000000000159,5.951989259647509911
0.305000000000000160,5.625854249777566096
0.306000000000000161,5.309891335745891894
0.307000000000000162,5.004012791476517563
0.308000000000000163,4.708121063124524497
0.309000000000000163,4.422109237958855132
0.310000000000000164,4.145861523049900299
0.311000000000000165,3.879253731273662797
0.312000000000000166,3.622153772294891105
0.313000000000000167,3.374422146341767181
0.314000000000000168,3.135912438732803231
0.315000000000000169,2.906471813262351933
0.316000000000000170,2.685941502693816929
0.317000000000000171,2.474157294749172120
0.318000000000000171,2.270950012118567951
0.319000000000000172,2.076145985144829620
0.320000000000000173,1.889567515964342359
0.321000000000000174,1.711033333007543789
0.322000000000000175,1.540359034878665101
0.323000000000000176,1.377357522746303520
0.324000000000000177,1.221839420482444982
0.325000000000000178,1.073613481889043264
0.326000000000000179,0.932486984446394329
0.327000000000000179,0.798266109108708655
0.328000000000000180,0.670756305757147508
0.329000000000000181,0.549762644000510337
0.330000000000000182,0.435090149089202072
0.331000000000000183,0.326544122777421397
0.332000000000000184,0.223930449034104306
0.333000000000000185,0.127055884563237020
0.334000000000000186,0.035728334149832633
0.335000000000000187,-0.050242889100645803
0.336000000000000187,-0.131046818514996222
0.337000000000000188,-0.206870603439236994
0.338000000000000189,-0.277899293463708008
0.339000000000000190,-0.344315637054549539
0.340000000000000191,-0.406299894328306099
0.341000000000000192,-0.464029663678417470
0.342000000000000193,-0.517679721937305382
0.343000000000000194,-0.567421877736079661
0.344000000000000195,-0.613424837704571124
0.345000000000000195,-0.655854085138842913
0.346000000000000196,-0.694871770748936912
0.347000000000000197,-0.730636615088892105
0.348000000000000198,-0.763303822261844234
0.349000000000000199,-0.793025004486062057
0.350000000000000200,-0.819948117102917484
0.351000000000000201,-0.844217403604454297
0.352000000000000202,-0.865973350256756702
0.353000000000000203,-0.885352649895342458
0.354000000000000203,-0.902488174470204685
0.355000000000000204,-0.917508955920620983
0.356000000000000205,-0.930540174963940259
0.357000000000000206,-0.941703157387427381
0.358000000000000207,-0.951115377437777965
0.359000000000000208,-0.958890467910016753
0.360000000000000209,-0.965138236544791139
0.361000000000000210,-0.969964688351022231
0.362000000000000210,-0.973472053479953359
0.363000000000000211,-0.975758820285453687
0.364000000000000212,-0.976919773215540688
0.365000000000000213,-0.977046035189648165
0.366000000000000214,-0.976225114126924809
0.367000000000000215,-0.974540953301130330
0.368000000000000216,-0.972073985208704805
0.369000000000000217,-0.968901188647271483
0.370000000000000218,-0.965096148713159074
0.371000000000000218,-0.960729119437161772
0.372000000000000219,-0.955867088789312036
0.373000000000000220,-0.950573845794152605
0.374000000000000221,-0.944910049509158689
0.375000000000000222,-0.938933299629619356
0.376000000000000223,-0.932698208494609937
0.377000000000000224,-0.926256474278654651
0.378000000000000225,-0.919656955164720791
0.379000000000000226,-0.912945744304147211
0.380000000000000226,-0.906166245379505186
0.381000000000000227,-0.899359248595939187
0.382000000000000228,-0.892563006936587633
0.383000000000000229,-0.885813312526819940
0.384000000000000230,-0.879143572961295861
0.385000000000000231,-0.872584887456938851
0.386000000000000232,-0.866166122703268981
0.387000000000000233,-0.859913988290309961
0.388000000000000234,-0.853853111602023818
0.389000000000000234,-0.848006112071457041
0.390000000000000235,-0.842393674701086836
0.391000000000000236,-0.837034622759312619
0.392000000000000237,-0.831945989570971434
0.393000000000000238,-0.827143089326637715
0.394000000000000239,-0.822639586841770964
0.395000000000000240,-0.818447566203195698
0.396000000000000241,-0.814577598246201240
0.397000000000000242,-0.811038806811220203
0.398000000000000242,-0.807838933734679410
0.399000000000000243,-0.804984402533474253
0.400000000000000244,-0.802480380747693012
0.401000000000000245,-0.800330840910904451
0.402000000000000246,-0.798538620121443832
0.403000000000000247,-0.797105478192830508
0.404000000000000248,-0.796032154365047928
0.405000000000000249,-0.795318422562370619
0.406000000000000250,-0.794963145186868725
0.407000000000000250,-0.794964325440249864
0.408000000000000251,-0.795319158169585760
0.409000000000000252,-0.796024079235674087
0.410000000000000253,-0.797074813405383109
0.411000000000000254,-0.798466420771988483
0.412000000000000255,-0.800193341709886319
0.413000000000000256,-0.802249440372415634
0.414000000000000257,-0.804628046743371073
0.415000000000000258,-0.807321997255071144
0.416000000000000258,-0.810323673987200954
0.417000000000000259,-0.813625042462748693
0.418000000000000260,-0.817217688058419989
0.419000000000000261,-0.821092851048646155
0.420000000000000262,-0.825241460303293373
0.421000000000000263,-0.829654165660519971
0.422000000000000264,-0.834321368997042123
0.423000000000000265,-0.839233254019127961
0.424000000000000266,-0.844379814798506656
0.425000000000000266,-0.849750883077781793
0.426000000000000267,-0.855336154370999635
0.427000000000000268,-0.861125212885191060
0.428000000000000269,-0.867107555289325815
0.429000000000000270,-0.873272613357558236
0.430000000000000271,-0.879609775513711334
0.431000000000000272,-0.886108407304492474
0.432000000000000273,-0.892757870828812861
0.433000000000000274,-0.899547543150905904
0.434000000000000274,-0.906466833724880794
0.435000000000000275,-0.913505200858379163
0.436000000000000276,-0.920652167242970498
0.437000000000000277,-0.927897334578792199
0.438000000000000278,-0.935230397320828133
0.439000000000000279,-0.942641155574065137
0.440000000000000280,-0.950119527164478561
0.441000000000000281,-0.957655558912593241
0.442000000000000282,-0.965239437136202860
0.443000000000000282,-0.972861497408196052
0.444000000000000283,-0.980512233595572047
0.445000000000000284,-0.988182306204908656
0.446000000000000285,-0.995862550059459450
0.447000000000000286,-1.003543981332652768
0.448000000000000287,-1.011217803962084050
0.449000000000000288,-1.018875415468073031
0.450000000000000289,-1.026508412199981013
0.451000000000000290,-1.034108594033380513
0.452000000000000290,-1.041667968540531231
0.453000000000000291,-1.049178754656080681
0.454000000000000292,-1.056633385859635510
0.455000000000000293,-1.064024512896151631
0.456000000000000294,-1.071345006054686522
0.457000000000000295,-1.078587957025631594
0.458000000000000296,-1.085746680355843097
0.459000000000000297,-1.092814714520821351
0.460000000000000298,-1.099785822632406873
0.461000000000000298,-1.106653992800076480
0.462000000000000299,-1.113413438163349367
0.463000000000000300,-1.120058596612317103
0.464000000000000301,-1.126584130212920920
0.465000000000000302,-1.132984924352955058
0.466000000000000303,-1.139256086624369502
0.467000000000000304,-1.145392945457014866
0.468000000000000305,-1.151391048518353388
0.469000000000000306,-1.157246160893302678
0.470000000000000306,-1.162954263057943916
0.471000000000000307,-1.168511548660160715
0.472000000000000308,-1.173914422120106105
0.473000000000000309,-1.179159496062737400
0.474000000000000310,-1.184243588594296570
0.475000000000000311,-1.189163720434196048
0.476000000000000312,-1.193917111913332718
0.477000000000000313,-1.198501179849442266
0.478000000000000314,-1.202913534309653532
0.479000000000000314,-1.207151975270135180
0.480000000000000315,-1.211214489182156351
0.481000000000000316,-1.215099245453696408
0.482000000000000317,-1.218804592855170954
0.483000000000000318,-1.222329055857675595
0.484000000000000319,-1.225671330911632051
0.485000000000000320,-1.228830282673481822
0.486000000000000321,-1.231804940187683828
0.487000000000000322,-1.234594493030988893
0.488000000000000322,-1.237198287425528065
0.489000000000000323,-1.239615822327194916
0.490000000000000324,-1.241846745495193360
0.491000000000000325,-1.243890849548535904
0.492000000000000326,-1.245748068014922882
0.493000000000000327,-1.247418471377206295
0.494000000000000328,-1.248902263122287692
0.495000000000000329,-1.250199775797119051
0.496000000000000330,-1.251311467076177575
0.497000000000000330,-1.252237915844647942
0.498000000000000331,-1.252979818301045656
0.499000000000000332,-1.253537984083194834
0.500000000000000333,-1.253913332420891535
0.501000000000000334,-1.254106888318484936
0.502000000000000335,-1.254119778770566906
0.503000000000000336,-1.253953229013496706
0.504000000000000337,-1.253608558815509033
0.505000000000000338,-1.253087178807837487
0.506000000000000338,-1.252390586859215116
0.507000000000000339,-1.251520364495849913
0.508000000000000340,-1.250478173368836599
0.509000000000000341,-1.249265751770940014
0.510000000000000342,-1.247884911204236058
0.511000000000000343,-1.246337533000320352
0.512000000000000344,-1.244625564994322309
0.513000000000000345,-1.242751018254076856
0.514000000000000346,-1.240715963865578253
0.515000000000000346,-1.238522529775627046
0.516000000000000347,-1.236172897692669803
0.517000000000000348,-1.233669300046584372
0.518000000000000349,-1.231014017008015715
0.519000000000000350,-1.228209373567931362
0.520000000000000351,-1.225257736677773490
0.521000000000000352,-1.222161512450708587
0.522000000000000353,-1.218923143424131661
0.523000000000000353,-1.215545105883734323
0.524000000000000354,-1.212029907249256189
0.525000000000000355,-1.208380083521939374
0.526000000000000356,-1.204598196793666753
0.527000000000000357,-1.200686832817805083
0.528000000000000358,-1.196648598641426586
0.529000000000000359,-1.192486120298915209
0.530000000000000360,-1.188202040566480822
0.531000000000000361,-1.183799016777447921
0.532000000000000361,-1.179279718697825441
0.533000000000000362,-1.174646826461827720
0.534000000000000363,-1.169903028566797287
0.535000000000000364,-1.165051019927153320
0.536000000000000365,-1.160093499986674992
0.537000000000000366,-1.155033170888704941
0.538000000000000367,-1.149872735703475923
0.539000000000000368,-1.144614896712154106
0.540000000000000369,-1.139262353746666623
0.541000000000000369,-1.133817802584869083
0.542000000000000370,-1.128283933400110461
0.543000000000000371,-1.122663429264606716
0.544000000000000372,-1.116958964705789814
0.545000000000000373,-1.111173204314874763
0.546000000000000374,-1.105308801406793773
0.547000000000000375,-1.099368396730748376
0.548000000000000376,-1.093354617230526182
0.549000000000000377,-1.087270074853712520
0.550000000000000377,-1.081117365408989617
0.551000000000000378,-1.074899067470616698
0.552000000000000379,-1.068617741329279003
0.553000000000000380,-1.062275927988381996
0.554000000000000381,-1.055876148204908382
0.555000000000000382,-1.049420901574042997
0.556000000000000383,-1.042912665656513527
0.557000000000000384,-1.036353895147969162
0.558000000000000385,-1.029747021089281400
0.559000000000000385,-1.023094450117095100
0.560000000000000386,-1.016398563753582618
0.561000000000000387,-1.009661717734595454
0.562000000000000388,-1.002886241375299914
0.563000000000000389,-0.996074436972453237
0.564000000000000390,-0.989228579242402928
0.565000000000000391,-0.982350914793962859
0.566000000000000392,-0.975443661635294057
0.567000000000000393,-0.968509008713975716
0.568000000000000393,-0.961549115489330752
0.569000000000000394,-0.954566111536231277
0.570000000000000395,-0.947562096179553670
0.571000000000000396,-0.940539138158377086
0.572000000000000397,-0.933499275319235933
0.573000000000000398,-0.926444514337470770
0.574000000000000399,-0.919376830466018036
0.575000000000000400,-0.912298167310724217
0.576000000000000401,-0.905210436631485260
0.577000000000000401,-0.898115518168457805
0.578000000000000402,-0.891015259492486500
0.579000000000000403,-0.883911475879071040
0.580000000000000404,-0.876805950205177931
0.581000000000000405,-0.869700432868031115
0.582000000000000406,-0.862596641725339786
0.583000000000000407,-0.855496262056103296
0.584000000000000408,-0.848400946541423728
0.585000000000000409,-0.841312315264573174
0.586000000000000409,-0.834231955729670682
0.587000000000000410,-0.827161422898343601
0.588000000000000411,-0.820102239243645448
0.589000000000000412,-0.813055894820736591
0.590000000000000413,-0.806023847353545486
0.591000000000000414,-0.799007522336925402
0.592000000000000415,-0.792008313153693022
0.593000000000000416,-0.785027581205887226
0.594000000000000417,-0.778066656059759554
0.595000000000000417,-0.771126835603959448
0.596000000000000418,-0.764209386220213061
0.597000000000000419,-0.757315542966181865
0.598000000000000420,-0.750446509769765902
0.599000000000000421,-0.743603459634502029
0.600000000000000422,-0.736787534855458448
0.601000000000000423,-0.729999847245168310
0.602000000000000424,-0.723241478369143986
0.603000000000000425,-0.716513479790485075
0.604000000000000425,-0.709816873323111386
0.605000000000000426,-0.703152651293207587
0.606000000000000427,-0.696521776808477711
0.607000000000000428,-0.689925184034625327
0.608000000000000429,-0.683363778478961903
0.609000000000000430,-0.676838437280332217
0.610000000000000431,-0.670350009505379818
0.611000000000000432,-0.663899316450473731
0.612000000000000433,-0.657487151949041060
0.613000000000000433,-0.651114282683998291
