# hydroxyapatite-001-ph5_HIESCA-AC
# h[nm],U(h)[kJ/mol]
0.149999999999999994,129.969933731065140137
0.150999999999999995,127.421268520133295965
0.151999999999999996,125.344779041856980939
0.152999999999999997,123.369132505575947789
0.153999999999999998,121.366564525293568977
0.154999999999999999,119.322081342053976982
0.156000000000000000,117.262996148314257994
0.157000000000000001,115.224020110329774980
0.158000000000000002,113.232430998631940611
0.159000000000000002,111.303889156615511524
0.160000000000000003,109.443340177485808340
0.161000000000000004,107.647872348466378867
0.162000000000000005,105.909883728628145150
0.163000000000000006,104.219794138168296627
0.164000000000000007,102.568034654246133641
0.165000000000000008,100.946308315417596191
0.166000000000000009,99.348235868670641935
0.167000000000000010,97.769540199122573654
0.168000000000000010,96.207920305609761158
0.169000000000000011,94.662743100759541903
0.170000000000000012,93.134652077939293235
0.171000000000000013,91.625163105077561454
0.172000000000000014,90.136292681939806926
0.173000000000000015,88.670244163389227765
0.174000000000000016,87.229162732833671612
0.175000000000000017,85.814959732254635583
0.176000000000000018,84.429200502098268544
0.177000000000000018,83.073046304928183758
0.178000000000000019,81.747239422481882798
0.179000000000000020,80.452120467998980757
0.180000000000000021,79.187667818318800528
0.181000000000000022,77.953550443104347778
0.182000000000000023,76.749187001513377027
0.183000000000000024,75.573805690331241181
0.184000000000000025,74.426500834200879808
0.185000000000000026,73.306283534478936303
0.186000000000000026,72.212124804103041242
0.187000000000000027,71.142990504621081982
0.188000000000000028,70.097868078973945671
0.189000000000000029,69.075785561139738888
0.190000000000000030,68.075823668164233027
0.191000000000000031,67.097121969973940736
0.192000000000000032,66.138880215550656771
0.193000000000000033,65.200355896148707302
0.194000000000000034,64.280859069810702522
0.195000000000000034,63.379745375593550705
0.196000000000000035,62.496408046329591457
0.197000000000000036,61.630269597832047168
0.198000000000000037,60.780773739684988755
0.199000000000000038,59.947377925065474358
0.200000000000000039,59.129546839196187591
0.201000000000000040,58.326747021027607332
0.202000000000000041,57.538442722204194979
0.203000000000000042,56.764093031800328504
0.204000000000000042,56.003150234439928568
0.205000000000000043,55.255059322390970067
0.206000000000000044,54.519258547829906547
0.207000000000000045,53.795180878256999790
0.208000000000000046,53.082256204468286853
0.209000000000000047,52.379914144996050140
0.210000000000000048,51.687587292016949903
0.211000000000000049,51.004714749999052970
0.212000000000000050,50.330745828539185993
0.213000000000000050,49.665143763813802025
0.214000000000000051,49.007389357849653777
0.215000000000000052,48.356984440596747277
0.216000000000000053,47.713455075875089051
0.217000000000000054,47.076354448120738994
0.218000000000000055,46.445265382054124359
0.219000000000000056,45.819802461613470257
0.220000000000000057,45.199613727516435802
0.221000000000000058,44.584381944488555405
0.222000000000000058,43.973825439448440022
0.223000000000000059,43.367698520746387203
0.224000000000000060,42.765791495931807731
0.225000000000000061,42.167930311533467602
0.226000000000000062,41.573975843050270385
0.227000000000000063,40.983822866869800805
0.228000000000000064,40.397398748264443213
0.229000000000000065,39.814661881075338101
0.230000000000000066,39.235599915301385465
0.231000000000000066,38.660227808680772910
0.232000000000000067,38.088585737596858394
0.233000000000000068,37.520736901368259453
0.234000000000000069,36.956765252292207435
0.235000000000000070,36.396773181794564778
0.236000000000000071,35.840879190781187447
0.237000000000000072,35.289215569857944388
0.238000000000000073,34.741926112557401041
0.239000000000000073,34.199163882135415804
0.240000000000000074,33.661089049927518602
0.241000000000000075,33.127866820727966513
0.242000000000000076,32.599665458203766377
0.243000000000000077,32.076654421010275087
0.244000000000000078,31.559002618057000689
0.245000000000000079,31.046876789294906018
0.246000000000000080,30.540440016473901608
0.247000000000000081,30.039850366555747030
0.248000000000000081,29.545259668869412906
0.249000000000000082,29.056812425661156851
0.250000000000000111,28.574644854419538831
0.251000000000000112,28.098884059241726163
0.252000000000000113,27.629647327545132640
0.253000000000000114,27.167041547612701180
0.254000000000000115,26.711162741779617136
0.255000000000000115,26.262095709517687681
0.256000000000000116,25.819913774240621507
0.257000000000000117,25.384678627328792544
0.258000000000000118,24.956440262647948458
0.259000000000000119,24.535236994700404978
0.260000000000000120,24.121095553492573060
0.261000000000000121,23.714031249218948005
0.262000000000000122,23.314048199940810235
0.263000000000000123,22.921139615570808701
0.264000000000000123,22.535288131653047117
0.265000000000000124,22.156466186646042615
0.266000000000000125,21.784636436665678616
0.267000000000000126,21.419752201920978507
0.268000000000000127,21.061757939370885140
0.269000000000000128,20.710589736441541220
0.270000000000000129,20.366175820964155463
0.271000000000000130,20.028437082820765625
0.272000000000000131,19.697287603115000820
0.273000000000000131,19.372635187013408142
0.274000000000000132,19.054381896728290968
0.275000000000000133,18.742424581432025832
0.276000000000000134,18.436655401203417171
0.277000000000000135,18.136962342408409654
0.278000000000000136,17.843229722206565668
0.279000000000000137,17.555338680152470232
0.280000000000000138,17.273167655125376996
0.281000000000000139,16.996592846070441851
0.282000000000000139,16.725488655270755345
0.283000000000000140,16.459728113090587698
0.284000000000000141,16.199183283336783035
0.285000000000000142,15.943725648576835496
0.286000000000000143,15.693226474929520720
0.287000000000000144,15.447557156007011514
0.288000000000000145,15.206589535836078753
0.289000000000000146,14.970196210722187757
0.290000000000000147,14.738250810142023539
0.291000000000000147,14.510628256860812257
0.292000000000000148,14.287205006568271415
0.293000000000000149,14.067859267414494440
0.294000000000000150,13.852471199902549159
0.295000000000000151,13.640923097661106667
0.296000000000000152,13.433099549676589035
0.297000000000000153,13.228887584612362360
0.298000000000000154,13.028176797881698690
0.299000000000000155,12.830859462173311414
0.300000000000000155,12.636830622152990244
0.301000000000000156,12.445988174083421285
0.302000000000000157,12.258232931116488373
0.303000000000000158,12.073468675019871199
0.304000000000000159,11.891602195101675932
0.305000000000000160,11.712543315095063079
0.306000000000000161,11.536204908758586285
0.307000000000000162,11.362502904938670767
0.308000000000000163,11.191356282828088808
0.309000000000000163,11.022687058139036154
0.310000000000000164,10.856420260892013729
0.311000000000000165,10.692483905502049524
0.312000000000000166,10.530808953822827334
0.313000000000000167,10.371329271786517978
0.314000000000000168,10.213981580253621573
0.315000000000000169,10.058705400662436347
0.316000000000000170,9.905442996042577164
0.317000000000000171,9.754139307931357195
0.318000000000000171,9.604741889705843860
0.319000000000000172,9.457200836817339251
0.320000000000000173,9.311468714389034673
0.321000000000000174,9.167500482611803392
0.322000000000000175,9.025253420347407740
0.323000000000000176,8.884687047323367892
0.324000000000000177,8.745763045278945214
0.325000000000000178,8.608445178397674979
0.326000000000000179,8.472699213338238167
0.327000000000000179,8.338492839152783276
0.328000000000000180,8.205795587359613563
0.329000000000000181,8.074578752415863647
0.330000000000000182,7.944815312815260988
0.331000000000000183,7.816479853016287116
0.332000000000000184,7.689548486387218773
0.333000000000000185,7.563998779336509770
0.334000000000000186,7.439809676779671754
0.335000000000000187,7.316961429077563750
0.336000000000000187,7.195435520565351517
0.337000000000000188,7.075214599776991520
0.338000000000000189,6.956282411455842585
0.339000000000000190,6.838623730429300274
0.340000000000000191,6.722224297412942917
0.341000000000000192,6.607070756798199440
0.342000000000000193,6.493150596466799485
0.343000000000000194,6.380452089665297422
0.344000000000000195,6.268964238963703473
0.345000000000000195,6.158676722313403573
0.346000000000000196,6.049579841211936149
0.347000000000000197,5.941664470974478363
0.348000000000000198,5.834922013105456884
0.349000000000000199,5.729344349757328203
0.350000000000000200,5.624923800258060602
0.351000000000000201,5.521653079683680687
0.352000000000000202,5.419525259447780741
0.353000000000000203,5.318533729875558613
0.354000000000000203,5.218672164726427809
0.355000000000000204,5.119934487625988240
0.356000000000000205,5.022314840365138977
0.357000000000000206,4.925807553021689600
0.358000000000000207,4.830407115857792810
0.359000000000000208,4.736108152944544791
0.360000000000000209,4.642905397463564121
0.361000000000000210,4.550793668634399936
0.362000000000000210,4.459767850215246021
0.363000000000000211,4.369822870524140868
0.364000000000000212,4.280953683926956188
0.365000000000000213,4.193155253738515498
0.366000000000000214,4.106422536482864594
0.367000000000000215,4.020750467458968913
0.368000000000000216,3.936133947558136725
0.369000000000000217,3.852567831280190980
0.370000000000000218,3.770046915895571171
0.371000000000000218,3.688565931701521805
0.372000000000000219,3.608119533321007655
0.373000000000000220,3.528702291994000095
0.374000000000000221,3.450308688811706048
0.375000000000000222,3.372933108845322714
0.376000000000000223,3.296569836121785890
0.377000000000000224,3.221213049400474038
0.378000000000000225,3.146856818705658032
0.379000000000000226,3.073495102570979132
0.380000000000000226,3.001121745953220010
0.381000000000000227,2.929730478774226210
0.382000000000000228,2.859314915050847006
0.383000000000000229,2.789868552574267913
0.384000000000000230,2.721384773101390486
0.385000000000000231,2.653856843022119882
0.386000000000000232,2.587277914468023798
0.387000000000000233,2.521641026828766119
0.388000000000000234,2.456939108644475844
0.389000000000000234,2.393164979843118711
0.390000000000000235,2.330311354293473247
0.391000000000000236,2.268370842645560881
0.392000000000000237,2.207335955431495744
0.393000000000000238,2.147199106401138202
0.394000000000000239,2.087952616068036615
0.395000000000000240,2.029588715442329772
0.396000000000000241,1.972099549928498563
0.397000000000000242,1.915477183366942171
0.398000000000000242,1.859713602199452254
0.399000000000000243,1.804800719739819259
0.400000000000000244,1.750730380531675845
0.401000000000000245,1.697494364776863662
0.402000000000000246,1.645084392818577212
0.403000000000000247,1.593492129664304091
0.404000000000000248,1.542709189534767322
0.405000000000000249,1.492727140425737620
0.406000000000000250,1.443537508670609704
0.407000000000000250,1.395131783492308486
0.408000000000000251,1.347501421533992438
0.409000000000000252,1.300637851358769748
0.410000000000000253,1.254532477909285459
0.411000000000000254,1.209176686918864707
0.412000000000000255,1.164561849266511517
0.413000000000000256,1.120679325268605364
0.414000000000000257,1.077520468901006279
0.415000000000000258,1.035076631945514469
0.416000000000000258,0.993339168055557109
0.417000000000000259,0.952299436736183558
0.418000000000000260,0.911948807234195913
0.419000000000000261,0.872278662334529331
0.420000000000000262,0.833280402059651926
0.421000000000000263,0.794945447268952554
0.422000000000000264,0.757265243155731183
0.423000000000000265,0.720231262639592251
0.424000000000000266,0.683835009652501324
0.425000000000000266,0.648068022317140224
0.426000000000000267,0.612921876016394362
0.427000000000000268,0.578388186353234857
0.428000000000000269,0.544458612000480291
0.429000000000000270,0.511124857440153679
0.430000000000000271,0.478378675592514013
0.431000000000000272,0.446211870334898619
0.432000000000000273,0.414616298910918613
0.433000000000000274,0.383583874230594368
0.434000000000000274,0.353106567062258958
0.435000000000000275,0.323176408117282321
0.436000000000000276,0.293785490028708518
0.437000000000000277,0.264925969225135727
0.438000000000000278,0.236590067701288292
0.439000000000000279,0.208770074686770751
0.440000000000000280,0.181458348214726672
0.441000000000000281,0.154647316592138401
0.442000000000000282,0.128329479773537480
0.443000000000000282,0.102497410640204303
0.444000000000000283,0.077143756186653922
0.445000000000000284,0.052261238616624975
0.446000000000000285,0.027842656350585315
0.447000000000000286,0.003880884946881036
0.448000000000000287,-0.019631122061182716
0.449000000000000288,-0.042700332410242584
0.450000000000000289,-0.065333634431419443
0.451000000000000290,-0.087537836452277057
0.452000000000000290,-0.109319666273979668
0.453000000000000291,-0.130685770721264666
0.454000000000000292,-0.151642715263041683
0.455000000000000293,-0.172196983701293493
0.456000000000000294,-0.192354977926007115
0.457000000000000295,-0.212123017733904240
0.458000000000000296,-0.231507340708664605
0.459000000000000297,-0.250514102160466490
0.460000000000000298,-0.269149375122594459
0.461000000000000298,-0.287419150402943357
0.462000000000000299,-0.305329336688249131
0.463000000000000300,-0.322885760698893132
0.464000000000000301,-0.340094167392215763
0.465000000000000302,-0.356960220212218515
0.466000000000000303,-0.373489501383638067
0.467000000000000304,-0.389687512248403645
0.468000000000000305,-0.405559673642461926
0.469000000000000306,-0.421111326311080336
0.470000000000000306,-0.436347731360752000
0.471000000000000307,-0.451274070745781075
0.472000000000000308,-0.465895447787807448
0.473000000000000309,-0.480216887726503561
0.474000000000000310,-0.494243338299642954
0.475000000000000311,-0.507979670350957702
0.476000000000000312,-0.521430678464057773
0.477000000000000313,-0.534601081620897811
0.478000000000000314,-0.547495523883139046
0.479000000000000314,-0.560118575095007287
0.480000000000000315,-0.572474731606076315
0.481000000000000316,-0.584568417012647501
0.482000000000000317,-0.596403982916252851
0.483000000000000318,-0.607985709698029786
0.484000000000000319,-0.619317807307614765
0.485000000000000320,-0.630404416065310613
0.486000000000000321,-0.641249607476360506
0.487000000000000322,-0.651857385056107019
0.488000000000000322,-0.662231685164899053
0.489000000000000323,-0.672376377851744977
0.490000000000000324,-0.682295267705548936
0.491000000000000325,-0.691992094713006822
0.492000000000000326,-0.701470535122132643
0.493000000000000327,-0.710734202310535412
0.494000000000000328,-0.719786647657488343
0.495000000000000329,-0.728631361418999313
0.496000000000000330,-0.737271773604964542
0.497000000000000330,-0.745711254857764239
0.498000000000000331,-0.753953117331331968
0.499000000000000332,-0.762000615570195827
0.500000000000000333,-0.769856947387668855
0.501000000000000334,-0.777525254742528871
0.502000000000000335,-0.785008624613651174
0.503000000000000336,-0.792310089871895107
0.504000000000000337,-0.799432630148762424
0.505000000000000338,-0.806379172701217839
0.506000000000000338,-0.813152593272209123
0.507000000000000339,-0.819755716946404811
0.508000000000000340,-0.826191319000626256
0.509000000000000341,-0.832462125748666182
0.510000000000000342,-0.838570815379942047
0.511000000000000343,-0.844520018791734772
0.512000000000000344,-0.850312320414549183
0.513000000000000345,-0.855950259030318406
0.514000000000000346,-0.861436328583151889
0.515000000000000346,-0.866772978982261355
0.516000000000000347,-0.871962616896861165
0.517000000000000348,-0.877007606542773765
0.518000000000000349,-0.881910270460474321
0.519000000000000350,-0.886672890284415205
0.520000000000000351,-0.891297707503354131
0.521000000000000352,-0.895786924211624203
0.522000000000000353,-0.900142703851023684
0.523000000000000353,-0.904367171943332715
0.524000000000000354,-0.908462416813223816
0.525000000000000355,-0.912430490301490038
0.526000000000000356,-0.916273408468451733
0.527000000000000357,-0.919993152287509219
0.528000000000000358,-0.923591668328695770
0.529000000000000359,-0.927070869432238931
0.530000000000000360,-0.930432635371973071
0.531000000000000361,-0.933678813508686312
0.532000000000000361,-0.936811219433270947
0.533000000000000362,-0.939831637599702896
0.534000000000000363,-0.942741821947809866
0.535000000000000364,-0.945543496515886206
0.536000000000000365,-0.948238356043060060
0.537000000000000366,-0.950828066561548391
0.538000000000000367,-0.953314265978689290
0.539000000000000368,-0.955698564648936100
0.540000000000000369,-0.957982545935689322
0.541000000000000369,-0.960167766763172059
0.542000000000000370,-0.962255758158237051
0.543000000000000371,-0.964248025782314166
0.544000000000000372,-0.966146050453447147
0.545000000000000373,-0.967951288658569831
0.546000000000000374,-0.969665173056036167
0.547000000000000375,-0.971289112968510282
0.548000000000000376,-0.972824494866306511
0.549000000000000377,-0.974272682841244353
0.550000000000000377,-0.975635019071144582
0.551000000000000378,-0.976912824274991154
0.552000000000000379,-0.978107398158970520
0.553000000000000380,-0.979220019853364265
0.554000000000000381,-0.980251948340478685
0.555000000000000382,-0.981204422873728888
0.556000000000000383,-0.982078663387888851
0.557000000000000384,-0.982875870900764559
0.558000000000000385,-0.983597227906248150
0.559000000000000385,-0.984243898758995761
0.560000000000000386,-0.984817030050783138
0.561000000000000387,-0.985317750978658813
0.562000000000000388,-0.985747173705011193
0.563000000000000389,-0.986106393709725637
0.564000000000000390,-0.986396490134461734
0.565000000000000391,-0.986618526119247163
0.566000000000000392,-0.986773549131465977
0.567000000000000393,-0.986862591287413493
0.568000000000000393,-0.986886669666467320
0.569000000000000394,-0.986846786618060356
0.570000000000000395,-0.986743930061577901
0.571000000000000396,-0.986579073779235594
0.572000000000000397,-0.986353177702164130
0.573000000000000398,-0.986067188189725385
0.574000000000000399,-0.985722038302253800
0.575000000000000400,-0.985318648067307734
0.576000000000000401,-0.984857924739540480
0.577000000000000401,-0.984340763054393664
0.578000000000000402,-0.983768045475609698
0.579000000000000403,-0.983140642436771017
0.580000000000000404,-0.982459412576992319
0.581000000000000405,-0.981725202970790134
0.582000000000000406,-0.980938849352373965
0.583000000000000407,-0.980101176334356672
0.584000000000000408,-0.979212997621090153
0.585000000000000409,-0.978275116216689833
0.586000000000000409,-0.977288324627851979
0.587000000000000410,-0.976253405061652146
0.588000000000000411,-0.975171129618299437
0.589000000000000412,-0.974042260479127231
0.590000000000000413,-0.972867550089751787
0.591000000000000414,-0.971647741338644066
0.592000000000000415,-0.970383567731152197
0.593000000000000416,-0.969075753559073938
0.594000000000000417,-0.967725014065909939
0.595000000000000417,-0.966332055607912799
0.596000000000000418,-0.964897575810942931
0.597000000000000419,-0.963422263723365147
0.598000000000000420,-0.961906799964941106
0.599000000000000421,-0.960351856871930254
0.600000000000000422,-0.958758098638421763
0.601000000000000423,-0.957126181453988090
0.602000000000000424,-0.955456753637816569
0.603000000000000425,-0.953750455769334593
0.604000000000000425,-0.952007920815438835
0.605000000000000426,-0.950229774254432558
0.606000000000000427,-0.948416634196759700
0.607000000000000428,-0.946569111502532090
0.608000000000000429,-0.944687809896109565
0.609000000000000430,-0.942773326077582352
0.610000000000000431,-0.940826249831453465
0.611000000000000432,-0.938847164132440071
0.612000000000000433,-0.936836645248540378
0.613000000000000433,-0.934795262841443653
0.614000000000000434,-0.932723580064326208
0.615000000000000435,-0.930622153657114759
