# hydroxyapatite-001-ph5_CS-6334-AC
# h[nm],U(h)[kJ/mol]
0.149999999999999994,128.696306709181186534
0.150999999999999995,126.333569636961556171
0.151999999999999996,124.344919336704066382
0.152999999999999997,122.423760170628156629
0.153999999999999998,120.473947851067578085
0.154999999999999999,118.491696063584981857
0.156000000000000000,116.504245515852886683
0.157000000000000001,114.541092253388541167
0.158000000000000002,112.622968706095349489
0.159000000000000002,110.759779316687286155
0.160000000000000003,108.952465113102107352
0.161000000000000004,107.196086353937886315
0.162000000000000005,105.482790492162848750
0.163000000000000006,103.804119742283162964
0.164000000000000007,102.152535026696185128
0.165000000000000008,100.522237431454698253
0.166000000000000009,98.909447516626869401
0.167000000000000010,97.312314672065738819
0.168000000000000010,95.730608033574782212
0.169000000000000011,94.165307453386247971
0.170000000000000012,92.618178633252540521
0.171000000000000013,91.091386153054855868
0.172000000000000014,89.587173848765161210
0.173000000000000015,88.107624075321751889
0.174000000000000016,86.654495180848968516
0.175000000000000017,85.229128990625667939
0.176000000000000018,83.832416153469722531
0.177000000000000018,82.464805829403815096
0.178000000000000019,81.126346544103469682
0.179000000000000020,79.816746428955440251
0.180000000000000021,78.535443000592664475
0.181000000000000022,77.281674752022610164
0.182000000000000023,76.054548890027334096
0.183000000000000024,74.853101414457213991
0.184000000000000025,73.676347317512721702
0.185000000000000026,72.523319957239948508
0.186000000000000026,71.393099634216682148
0.187000000000000027,70.284832099121203441
0.188000000000000028,69.197738178050826718
0.189000000000000029,68.131115963156418047
0.190000000000000030,67.084337119555129902
0.191000000000000031,66.056838844016354528
0.192000000000000032,65.048112910683840937
0.193000000000000033,64.057693083068329543
0.194000000000000034,63.085141983447805103
0.195000000000000034,62.130038309318436518
0.196000000000000035,61.191965085767662913
0.197000000000000036,60.270499452732664736
0.198000000000000037,59.365204313850313156
0.199000000000000038,58.475622023072141076
0.200000000000000039,57.601270158325725390
0.201000000000000040,56.741639328539477560
0.202000000000000041,55.896192880406729842
0.203000000000000042,55.064368312626655211
0.204000000000000042,54.245580165784346605
0.205000000000000043,53.439224133010029050
0.206000000000000044,52.644682127481118528
0.207000000000000045,51.861328045143579857
0.208000000000000046,51.088533972309271292
0.209000000000000047,50.325676605823900900
0.210000000000000048,49.572143676318773942
0.211000000000000049,48.827340190955268895
0.212000000000000050,48.090694339585681405
0.213000000000000050,47.361662936201419427
0.214000000000000051,46.639736294954275309
0.215000000000000052,45.924442466180735778
0.216000000000000053,45.215350782183080014
0.217000000000000054,44.512074684640367650
0.218000000000000055,43.814273825200622525
0.219000000000000056,43.121655447921135362
0.220000000000000057,42.433975076752439293
0.221000000000000058,41.751036543260909184
0.222000000000000058,41.072691399362625475
0.223000000000000059,40.398837767158838119
0.224000000000000060,39.729418683204045237
0.225000000000000061,39.064419997908188975
0.226000000000000062,38.403867892490019642
0.227000000000000063,37.747826076174000320
0.228000000000000064,37.096392725374727206
0.229000000000000065,36.449697224638939019
0.230000000000000066,35.807896766314613046
0.231000000000000066,35.171172862460672093
0.232000000000000067,34.539727818566049677
0.233000000000000068,33.913781214355239513
0.234000000000000069,33.293566432449090087
0.235000000000000070,32.679327271035745639
0.236000000000000071,32.071314672082614550
0.237000000000000072,31.469783592067422262
0.238000000000000073,30.874990037789974195
0.239000000000000073,30.287188285602599791
0.240000000000000074,29.706628298402783628
0.241000000000000075,29.133553351004092491
0.242000000000000076,28.568197871056987935
0.243000000000000077,28.010785499547118604
0.244000000000000078,27.461527372059599372
0.245000000000000079,26.920620619465779555
0.246000000000000080,26.388247084459017344
0.247000000000000081,25.864572248429219314
0.248000000000000081,25.349744361512115631
0.249000000000000082,24.843893767262784422
0.250000000000000111,24.347132412268884138
0.251000000000000112,23.859553530118819964
0.252000000000000113,23.381231488456201362
0.253000000000000114,22.912221787366284786
0.254000000000000115,22.452561197031950968
0.255000000000000115,22.002268022449666063
0.256000000000000116,21.561342482990760061
0.257000000000000117,21.129767194712133715
0.258000000000000118,20.707507743548802637
0.259000000000000119,20.294513337839909184
0.260000000000000120,19.890717529037168276
0.261000000000000121,19.496038989906622874
0.262000000000000122,19.110382340046545124
0.263000000000000123,18.733639009097668549
0.264000000000000123,18.365688128603316898
0.265000000000000124,18.006397444079233594
0.266000000000000125,17.655624239466686021
0.267000000000000126,17.313216266759972939
0.268000000000000127,16.979012674215166356
0.269000000000000128,16.652844927154678345
0.270000000000000129,16.334537715977212713
0.271000000000000130,16.023909846560652426
0.272000000000000131,15.720775108803824338
0.273000000000000131,15.424943119587993579
0.274000000000000132,15.136220136949464887
0.275000000000000133,14.854409842737675618
0.276000000000000134,14.579314091489242955
0.277000000000000135,14.310733623675355730
0.278000000000000136,14.048468741877844224
0.279000000000000137,13.792319948818269282
0.280000000000000138,13.542088546504652768
0.281000000000000139,13.297577196071845407
0.282000000000000139,13.058590438175761150
0.283000000000000140,12.824935174058250453
0.284000000000000141,12.596421107630657588
0.285000000000000142,12.372861149129764868
0.286000000000000143,12.154071781081990267
0.287000000000000144,11.939873387471417132
0.288000000000000145,11.730090547144943258
0.289000000000000146,11.524552292606513149
0.290000000000000147,11.323092335451084622
0.291000000000000147,11.125549259771304378
0.292000000000000148,10.931766684935064760
0.293000000000000149,10.741593399183082980
0.294000000000000150,10.554883465532418185
0.295000000000000151,10.371496301496183179
0.296000000000000152,10.191296734142873959
0.297000000000000153,10.014155032021383462
0.298000000000000154,9.839946915471216471
0.299000000000000155,9.668553546822780120
0.300000000000000155,9.499861501970460864
0.301000000000000156,9.333762724773004393
0.302000000000000157,9.170154465701376267
0.303000000000000158,9.008939206115893938
0.304000000000000159,8.850024569511273143
0.305000000000000160,8.693323221022216885
0.306000000000000161,8.538752756433234836
0.307000000000000162,8.386235581884943002
0.308000000000000163,8.235698785416708745
0.309000000000000163,8.087074001431124870
0.310000000000000164,7.940297269111232126
0.311000000000000165,7.795308885766241147
0.312000000000000166,7.652053256026311701
0.313000000000000167,7.510478737752161571
0.314000000000000168,7.370537485471018613
0.315000000000000169,7.232185292096858120
0.316000000000000170,7.095381429640589488
0.317000000000000171,6.960088489564489223
0.318000000000000171,6.826272223385553062
0.319000000000000172,6.693901384083781991
0.320000000000000173,6.562947568824976763
0.321000000000000174,6.433385063462495168
0.322000000000000175,6.305190689239019264
0.323000000000000176,6.178343652068193137
0.324000000000000177,6.052825394736201403
0.325000000000000178,5.928619452325802897
0.326000000000000179,5.805711311129364560
0.327000000000000179,5.684088271283735949
0.328000000000000180,5.563739313327539904
0.329000000000000181,5.444654968851414090
0.330000000000000182,5.326827195383335045
0.331000000000000183,5.210249255624502140
0.332000000000000184,5.094915601126585258
0.333000000000000185,4.980821760477934568
0.334000000000000186,4.867964232044871054
0.335000000000000187,4.756340381294380748
0.336000000000000187,4.645948342706121892
0.337000000000000188,4.536786926264982256
0.338000000000000189,4.428855528509851425
0.339000000000000190,4.322154048100237844
0.340000000000000191,4.216682805849821136
0.341000000000000192,4.112442469164300007
0.342000000000000193,4.009433980810642950
0.343000000000000194,3.907658491935686040
0.344000000000000195,3.807117299243958364
0.345000000000000195,3.707811786237144247
0.346000000000000196,3.609743368411804543
0.347000000000000197,3.512913442306325074
0.348000000000000198,3.417323338283685619
0.349000000000000199,3.322974276932926241
0.350000000000000200,3.229867328969073359
0.351000000000000201,3.138003378509018670
0.352000000000000202,3.047383089599123629
0.353000000000000203,2.958006875869074292
0.354000000000000203,2.869874873185918496
0.355000000000000204,2.782986915182166232
0.356000000000000205,2.697342511531993114
0.357000000000000206,2.612940828850225383
0.358000000000000207,2.529780674090177595
0.359000000000000208,2.447860480317417764
0.360000000000000209,2.367178294738388367
0.361000000000000210,2.287731768864946336
0.362000000000000210,2.209518150697705519
0.363000000000000211,2.132534278813847273
0.364000000000000212,2.056776578247386134
0.365000000000000213,1.982241058052772731
0.366000000000000214,1.908923310445537425
0.367000000000000215,1.836818511416725697
0.368000000000000216,1.765921422720799772
0.369000000000000217,1.696226395140185250
0.370000000000000218,1.627727372932439964
0.371000000000000218,1.560417899369678896
0.372000000000000219,1.494291123282913247
0.373000000000000220,1.429339806527362589
0.374000000000000221,1.365556332288168973
0.375000000000000222,1.302932714149249493
0.376000000000000223,1.241460605851055110
0.377000000000000224,1.181131311666680617
0.378000000000000225,1.121935797328635465
0.379000000000000226,1.063864701442018390
0.380000000000000226,1.006908347322655883
0.381000000000000227,0.951056755202274062
0.382000000000000228,0.896299654745337349
0.383000000000000229,0.842626497825428422
0.384000000000000230,0.790026471511847239
0.385000000000000231,0.738488511219761778
0.386000000000000232,0.688001313980287632
0.387000000000000233,0.638553351789089452
0.388000000000000234,0.590132884995160700
0.389000000000000234,0.542727975693435560
0.390000000000000235,0.496326501087695271
0.391000000000000236,0.450916166792290851
0.392000000000000237,0.406484520043565500
0.393000000000000238,0.363018962793967670
0.394000000000000239,0.320506764663980648
0.395000000000000240,0.278935075728868387
0.396000000000000241,0.238290939119257306
0.397000000000000242,0.198561303416372681
0.398000000000000242,0.159733034824408204
0.399000000000000243,0.121792929104346290
0.400000000000000244,0.084727723254940560
0.401000000000000245,0.048524106928208612
0.402000000000000246,0.013168733568273260
0.403000000000000247,-0.021351768736476373
0.404000000000000248,-0.055050786696318355
0.405000000000000249,-0.087941711565706987
0.406000000000000250,-0.120037929197447116
0.407000000000000250,-0.151352810410692845
0.408000000000000251,-0.181899701676819348
0.409000000000000252,-0.211691916126229340
0.410000000000000253,-0.240742724878333897
0.411000000000000254,-0.269065348695978923
0.412000000000000255,-0.296672949964858823
0.413000000000000256,-0.323578624997760245
0.414000000000000257,-0.349795396662592684
0.415000000000000258,-0.375336207332831351
0.416000000000000258,-0.400213912158007556
0.417000000000000259,-0.424441272651730206
0.418000000000000260,-0.448030950593875599
0.419000000000000261,-0.470995502243356345
0.420000000000000262,-0.493347372857265931
0.421000000000000263,-0.515098891512001833
0.422000000000000264,-0.536262266221359640
0.423000000000000265,-0.556849579346540779
0.424000000000000266,-0.576872783292560642
0.425000000000000266,-0.596343696485272856
0.426000000000000267,-0.615273999623141221
0.427000000000000268,-0.633675232197539851
0.428000000000000269,-0.651558789275243355
0.429000000000000270,-0.668935918536691765
0.430000000000000271,-0.685817717563316775
0.431000000000000272,-0.702215131367334267
0.432000000000000273,-0.718138950157100830
0.433000000000000274,-0.733599807331246523
0.434000000000000274,-0.748608177694661259
0.435000000000000275,-0.763174375889366874
0.436000000000000276,-0.777308555033396686
0.437000000000000277,-0.791020705560672832
0.438000000000000278,-0.804320654254993550
0.439000000000000279,-0.817218063471232270
0.440000000000000280,-0.829722430536885325
0.441000000000000281,-0.841843087327124096
0.442000000000000282,-0.853589200006733884
0.443000000000000282,-0.864969768932090988
0.444000000000000283,-0.875993628706758898
0.445000000000000284,-0.886669448384094450
0.446000000000000285,-0.897005731810471496
0.447000000000000286,-0.907010818102899519
0.448000000000000287,-0.916692882254700359
0.449000000000000288,-0.926059935863300487
0.450000000000000289,-0.935119827974062345
0.451000000000000290,-0.943880246034349613
0.452000000000000290,-0.952348716952144181
0.453000000000000291,-0.960532608253522824
0.454000000000000292,-0.968439129333627968
0.455000000000000293,-0.976075332795727335
0.456000000000000294,-0.983448115873198914
0.457000000000000295,-0.990564221929382094
0.458000000000000296,-0.997430242030329262
0.459000000000000297,-1.004052616585713986
0.460000000000000298,-1.010437637053204663
0.461000000000000298,-1.016591447701814532
0.462000000000000299,-1.022520047429842593
0.463000000000000300,-1.028229291633124598
0.464000000000000301,-1.033724894119570248
0.465000000000000302,-1.039012429065937715
0.466000000000000303,-1.044097333013030537
0.467000000000000304,-1.048984906895661373
0.468000000000000305,-1.053680318103722424
0.469000000000000306,-1.058188602570978576
0.470000000000000306,-1.062514666888301207
0.471000000000000307,-1.066663290438036871
0.472000000000000308,-1.070639127546565872
0.473000000000000309,-1.074446709652066012
0.474000000000000310,-1.078090447484623349
0.475000000000000311,-1.081574633256043194
0.476000000000000312,-1.084903442856734790
0.477000000000000313,-1.088080938057231162
0.478000000000000314,-1.091111068711907661
0.479000000000000314,-1.093997674962748246
0.480000000000000315,-1.096744489440896420
0.481000000000000316,-1.099355139464049724
0.482000000000000317,-1.101833149227651187
0.483000000000000318,-1.104181941988116256
0.484000000000000319,-1.106404842236281771
0.485000000000000320,-1.108505077859440746
0.486000000000000321,-1.110485782290408618
0.487000000000000322,-1.112349996642117755
0.488000000000000322,-1.114100671826313560
0.489000000000000323,-1.115740670655140043
0.490000000000000324,-1.117272769924267051
0.491000000000000325,-1.118699662476475343
0.492000000000000326,-1.120023959244580869
0.493000000000000327,-1.121248191272738115
0.494000000000000328,-1.122374811715115772
0.495000000000000329,-1.123406197811165130
0.496000000000000330,-1.124344652836566150
0.497000000000000330,-1.125192408029255242
0.498000000000000331,-1.125951624489681446
0.499000000000000332,-1.126624395054843131
0.500000000000000333,-1.127212746145440869
0.501000000000000334,-1.127718639585616911
0.502000000000000335,-1.128143974394936633
0.503000000000000336,-1.128490588552080620
0.504000000000000337,-1.128760260729979592
0.505000000000000338,-1.128954712002019578
0.506000000000000338,-1.129075607519095747
0.507000000000000339,-1.129124558157257319
0.508000000000000340,-1.129103122135752812
0.509000000000000341,-1.129012806605391717
0.510000000000000342,-1.128855069207009176
0.511000000000000343,-1.128631319600070571
0.512000000000000344,-1.128342920961275198
0.513000000000000345,-1.127991191453215247
0.514000000000000346,-1.127577405663114929
0.515000000000000346,-1.127102796011633323
0.516000000000000347,-1.126568554131874178
0.517000000000000348,-1.125975832218701456
0.518000000000000349,-1.125325744348428358
0.519000000000000350,-1.124619367769122302
0.520000000000000351,-1.123857744161594230
0.521000000000000352,-1.123041880871385123
0.522000000000000353,-1.122172752111833427
0.523000000000000353,-1.121251300138562890
0.524000000000000354,-1.120278436395576449
0.525000000000000355,-1.119255042633247488
0.526000000000000356,-1.118181971998449598
0.527000000000000357,-1.117060050097184343
0.528000000000000358,-1.115890076029933731
0.529000000000000359,-1.114672823400130630
0.530000000000000360,-1.113409041295990498
0.531000000000000361,-1.112099455246127189
0.532000000000000361,-1.110744768149244832
0.533000000000000362,-1.109345661178277265
0.534000000000000363,-1.107902794659329615
0.535000000000000364,-1.106416808925832607
0.536000000000000365,-1.104888325148201789
0.537000000000000366,-1.103317946139489747
0.538000000000000367,-1.101706257137303746
0.539000000000000368,-1.100053826562503279
0.540000000000000369,-1.098361206754935759
0.541000000000000369,-1.096628934686754597
0.542000000000000370,-1.094857532653560117
0.543000000000000371,-1.093047508943910007
0.544000000000000372,-1.091199358487508375
0.545000000000000373,-1.089313563482518177
0.546000000000000374,-1.087390594002383137
0.547000000000000375,-1.085430908582571075
0.548000000000000376,-1.083434954787648286
0.549000000000000377,-1.081403169759074689
0.550000000000000377,-1.079335980744147161
0.551000000000000378,-1.077233805606429895
0.552000000000000379,-1.075097053318178286
0.553000000000000380,-1.072926124435037210
0.554000000000000381,-1.070721411553468227
0.555000000000000382,-1.068483299751338267
0.556000000000000383,-1.066212167011927558
0.557000000000000384,-1.063908384631915505
0.558000000000000385,-1.061572317613563188
0.559000000000000385,-1.059204325041590344
0.560000000000000386,-1.056804760445071434
0.561000000000000387,-1.054373972144718064
0.562000000000000388,-1.051912303585920805
0.563000000000000389,-1.049420093657950748
0.564000000000000390,-1.046897676999613669
0.565000000000000391,-1.044345384291761158
0.566000000000000392,-1.041763542536983778
0.567000000000000393,-1.039152475326866831
0.568000000000000393,-1.036512503097082982
0.569000000000000394,-1.033843943370715834
0.570000000000000395,-1.031147110990146221
0.571000000000000396,-1.028422318337749219
0.572000000000000397,-1.025669875545847542
0.573000000000000398,-1.022890090696110033
0.574000000000000399,-1.020083270008799170
0.575000000000000400,-1.017249718022112059
0.576000000000000401,-1.014389737761931531
0.577000000000000401,-1.011503630902332640
0.578000000000000402,-1.008591697917029073
0.579000000000000403,-1.005654238222116970
0.580000000000000404,-1.002691550310419899
0.581000000000000405,-0.999703931877592877
0.582000000000000406,-0.996691679940394648
0.583000000000000407,-0.993655090947265229
0.584000000000000408,-0.990594460881556449
0.585000000000000409,-0.987510085357619971
0.586000000000000409,-0.984402259709990624
0.587000000000000410,-0.981271279075969671
0.588000000000000411,-0.978117438471737044
0.589000000000000412,-0.974941032862352563
0.590000000000000413,-0.971742357225741649
0.591000000000000414,-0.968521706610984801
0.592000000000000415,-0.965279376191087501
0.593000000000000416,-0.962015661310414161
0.594000000000000417,-0.958730857527038127
0.595000000000000417,-0.955425260650214603
0.596000000000000418,-0.952099166773074379
0.597000000000000419,-0.948752872300887118
0.598000000000000420,-0.945386673974915381
0.599000000000000421,-0.942000868892176380
0.600000000000000422,-0.938595754521205472
0.601000000000000423,-0.935171628713998837
0.602000000000000424,-0.931728789714367123
0.603000000000000425,-0.928267536162791229
0.604000000000000425,-0.924788167097951308
0.605000000000000426,-0.921290981955126709
0.606000000000000427,-0.917776280561594104
0.607000000000000428,-0.914244363129096960
0.608000000000000429,-0.910695530243708418
0.609000000000000430,-0.907130082852986908
0.610000000000000431,-0.903548322250788849
0.611000000000000432,-0.899950550059703147
0.612000000000000433,-0.896337068211298438
0.613000000000000433,-0.892708178924329965
0.614000000000000434,-0.889064184680973368
