# hydroxyapatite-001-ph5_CS-6334-AC
# h[nm],U(h)[kJ/mol]
0.149999999999999994,128.696314695043326992
0.150999999999999995,126.333577420158164273
0.151999999999999996,124.344926601940755972
0.152999999999999997,122.423766912233105586
0.153999999999999998,120.473954157372787677
0.154999999999999999,118.491702023999437188
0.156000000000000000,116.504251191076789951
0.157000000000000001,114.541097674720930399
0.158000000000000002,112.622973885389413340
0.159000000000000002,110.759784257767364579
0.160000000000000003,108.952469820730954098
0.161000000000000004,107.196090839246451765
0.162000000000000005,105.482794774823645412
0.163000000000000006,103.804123850245474614
0.164000000000000007,102.152538994395314376
0.165000000000000008,100.522241297291373030
0.166000000000000009,98.909451320316264855
0.167000000000000010,97.312318452254800150
0.168000000000000010,95.730611825949878835
0.169000000000000011,94.165311289359152624
0.170000000000000012,92.618182539216789451
0.171000000000000013,91.091390150145315374
0.172000000000000014,89.587177953022404608
0.173000000000000015,88.107628298151695390
0.174000000000000016,86.654499529672563085
0.175000000000000017,85.229133469624770214
0.176000000000000018,83.832420764353088316
0.177000000000000018,82.464810572133970368
0.178000000000000019,81.126351417544270817
0.179000000000000020,79.816751431414701301
0.180000000000000021,78.535448130248610710
0.181000000000000022,77.281680007232012031
0.182000000000000023,76.054554269522810728
0.183000000000000024,74.853106917444947044
0.184000000000000025,73.676352943686097774
0.185000000000000026,72.523325706726154749
0.186000000000000026,71.393105507472952809
0.187000000000000027,70.284838096797045637
0.188000000000000028,69.197744300831146802
0.189000000000000029,68.131122211598025729
0.190000000000000030,67.084343493927434565
0.191000000000000031,66.056845344154680788
0.192000000000000032,65.048119535861559370
0.193000000000000033,64.057699831891966369
0.194000000000000034,63.085148853778015621
0.195000000000000034,62.130045298217353889
0.196000000000000035,61.191972189472764398
0.197000000000000036,60.270506666655364825
0.198000000000000037,59.365211632597777225
0.199000000000000038,58.475629440489306887
0.200000000000000039,57.601277667554690254
0.201000000000000040,56.741646922093124772
0.202000000000000041,55.896200550253375638
0.203000000000000042,55.064376050282646702
0.204000000000000042,54.245587962411590865
0.205000000000000043,53.439231979515753324
0.206000000000000044,52.644690014617523843
0.207000000000000045,51.861335963604993538
0.208000000000000046,51.088541912825405689
0.209000000000000047,50.325684559247122252
0.210000000000000048,49.572151633704848450
0.211000000000000049,48.827348143636115196
0.212000000000000050,48.090702279233866534
0.213000000000000050,47.361670854885915105
0.214000000000000051,46.639744185187240078
0.215000000000000052,45.924450320955564564
0.216000000000000053,45.215358595003728226
0.217000000000000054,44.512082449542404561
0.218000000000000055,43.814281536764497105
0.219000000000000056,43.121663101278024044
0.220000000000000057,42.433982667583542536
0.221000000000000058,41.751044067790608949
0.222000000000000058,41.072698854346370467
0.223000000000000059,40.398845149866268400
0.224000000000000060,39.729425991398144902
0.225000000000000061,39.064427229821149012
0.226000000000000062,38.403875046796279946
0.227000000000000063,37.747833151961359022
0.228000000000000064,37.096399722113758912
0.229000000000000065,36.449704142151539088
0.230000000000000066,35.807903604741873949
0.231000000000000066,35.171179622230830830
0.232000000000000067,34.539734500362541780
0.233000000000000068,33.913787819085492004
0.234000000000000069,33.293572961214181305
0.235000000000000070,32.679333725101209041
0.236000000000000071,32.071321052850620958
0.237000000000000072,31.469789901050443603
0.238000000000000073,30.874996276586138322
0.239000000000000073,30.287194455872736398
0.240000000000000074,29.706634401849299820
0.241000000000000075,29.133559389351649571
0.242000000000000076,28.568203846035043370
0.243000000000000077,28.010791412874272766
0.244000000000000078,27.461533225429725746
0.245000000000000079,26.920626414535917093
0.246000000000000080,26.388252822838939693
0.247000000000000081,25.864577931672585009
0.248000000000000081,25.349749991109145952
0.249000000000000082,24.843899344634415627
0.250000000000000111,24.347137938762177356
0.251000000000000112,23.859559007003696252
0.252000000000000113,23.381236916923235469
0.253000000000000114,22.912227168525593157
0.254000000000000115,22.452566531912975023
0.255000000000000115,22.002273312001847216
0.256000000000000116,21.561347728084889752
0.257000000000000117,21.129772396142403323
0.258000000000000118,20.707512902035400515
0.259000000000000119,20.294518454032093757
0.260000000000000120,19.890722603516742595
0.261000000000000121,19.496044023191707595
0.262000000000000122,19.110387332595642818
0.263000000000000123,18.733643961313894977
0.264000000000000123,18.365693040838731775
0.265000000000000124,18.006402316639331218
0.266000000000000125,17.655629072614793529
0.267000000000000126,17.313221060721737388
0.268000000000000127,16.979017429182903243
0.269000000000000128,16.652849643291688153
0.270000000000000129,16.334542393421934037
0.271000000000000130,16.023914485430680088
0.272000000000000131,15.720779709199751650
0.273000000000000131,15.424947681597107163
0.274000000000000132,15.136224660649157059
0.275000000000000133,14.854414328198719986
0.276000000000000134,14.579318538778801795
0.277000000000000135,14.310738032859770641
0.278000000000000136,14.048473113025215397
0.279000000000000137,13.792324282000766544
0.280000000000000138,13.542092841800620562
0.281000000000000139,13.297581453567692833
0.282000000000000139,13.058594657967578456
0.283000000000000140,12.824939356253258538
0.284000000000000141,12.596425252348439017
0.285000000000000142,12.372865256503251530
0.286000000000000143,12.154075851258307139
0.287000000000000144,11.939877420612521775
0.288000000000000145,11.730094543428084108
0.289000000000000146,11.524556252224533281
0.290000000000000147,11.323096258612560305
0.291000000000000147,11.125553146700562834
0.292000000000000148,10.931770535872043837
0.293000000000000149,10.741597214383100223
0.294000000000000150,10.554887245265806683
0.295000000000000151,10.371500046047824384
0.296000000000000152,10.191300443811670107
0.297000000000000153,10.014158707119616309
0.298000000000000154,9.839950556323874054
0.299000000000000155,9.668557153766785817
0.300000000000000155,9.499865075353877586
0.301000000000000156,9.333766264954194369
0.302000000000000157,9.170157973048119970
0.303000000000000158,9.008942681004484143
0.304000000000000159,8.850028012325587667
0.305000000000000160,8.693326632152805544
0.306000000000000161,8.538756136276351327
0.307000000000000162,8.386238930841626527
0.308000000000000163,8.235702103891842540
0.309000000000000163,8.087077289832517835
0.310000000000000164,7.940300527848711098
0.311000000000000165,7.795312115250759177
0.312000000000000166,7.652056456669089179
0.313000000000000167,7.510481909963854896
0.314000000000000168,7.370540629660895959
0.315000000000000169,7.232188408672039159
0.316000000000000170,7.095384519005295765
0.317000000000000171,6.960091552119339831
0.318000000000000171,6.826275259526900285
0.319000000000000172,6.693904394203070929
0.320000000000000173,6.562950553308172452
0.321000000000000174,6.433388022689515928
0.322000000000000175,6.305193623583233098
0.323000000000000176,6.178346561895954991
0.324000000000000177,6.052828280406418848
0.325000000000000178,5.928622314189548881
0.326000000000000179,5.805714149529532797
0.327000000000000179,5.684091086554732719
0.328000000000000180,5.563742105795016712
0.329000000000000181,5.444657738832036742
0.330000000000000182,5.326829943184582916
0.331000000000000183,5.210251981544521627
0.332000000000000184,5.094918305454062768
0.333000000000000185,4.980824443491999709
0.334000000000000186,4.867966894015052226
0.335000000000000187,4.756343022480574056
0.336000000000000187,4.645950963358588481
0.337000000000000188,4.536789526624394497
0.338000000000000189,4.428858108807338212
0.339000000000000190,4.322156608557468083
0.340000000000000191,4.216685346679122759
0.341000000000000192,4.112444990568779879
0.342000000000000193,4.009436482984340522
0.343000000000000194,3.907660975063741660
0.344000000000000195,3.807119763502802900
0.345000000000000195,3.707814231794697157
0.346000000000000196,3.609745795427700354
0.347000000000000197,3.512915850932142980
0.348000000000000198,3.417325728663188844
0.349000000000000199,3.322976649202322275
0.350000000000000200,3.229869683257279966
0.351000000000000201,3.138005714937934343
0.352000000000000202,3.047385408283905583
0.353000000000000203,2.958009176918429795
0.354000000000000203,2.869877156702395737
0.355000000000000204,2.782989181262443878
0.356000000000000205,2.697344760267186725
0.357000000000000206,2.612943060326179179
0.358000000000000207,2.529782888387771322
0.359000000000000208,2.447862677512859797
0.360000000000000209,2.367180474903522125
0.361000000000000210,2.287733932067548270
0.362000000000000210,2.209520297001776434
0.363000000000000211,2.132536408279907647
0.364000000000000212,2.056778690932767883
0.365000000000000213,1.982243154011899211
0.366000000000000214,1.908925389730211419
0.367000000000000215,1.836820574076394763
0.368000000000000216,1.765923468802832019
0.369000000000000217,1.696228424690129355
0.370000000000000218,1.627729385994284517
0.371000000000000218,1.560419895986100203
0.372000000000000219,1.494293103495516029
0.373000000000000220,1.429341770376916454
0.374000000000000221,1.365558279814837128
0.375000000000000222,1.302934645392806567
0.376000000000000223,1.241462520851097207
0.377000000000000224,1.181133210462826932
0.378000000000000225,1.121937679960729906
0.379000000000000226,1.063866567950305209
0.380000000000000226,1.006910197747963753
0.381000000000000227,0.951058589586184278
0.382000000000000228,0.896301473130341919
0.383000000000000229,0.842628300255081841
0.384000000000000230,0.790028258030912700
0.385000000000000231,0.738490281874345844
0.386000000000000232,0.688003068817960139
0.387000000000000233,0.638555090859006524
0.388000000000000234,0.590134608348173773
0.389000000000000234,0.542729683382193073
0.390000000000000235,0.496328193166734100
0.391000000000000236,0.450917843318124067
0.392000000000000237,0.406486181074757091
0.393000000000000238,0.363020608391207145
0.394000000000000239,0.320508394890141102
0.395000000000000240,0.278936690649065788
0.396000000000000241,0.238292538800894960
0.397000000000000242,0.198562887929185916
0.398000000000000242,0.159734604240499151
0.399000000000000243,0.121794483498209691
0.400000000000000244,0.084729262703490169
0.401000000000000245,0.048525631510786128
0.402000000000000246,0.013170243366662860
0.403000000000000247,-0.021350273638035589
0.404000000000000248,-0.055049306211150298
0.405000000000000249,-0.087940245604692532
0.406000000000000250,-0.120036477669036939
0.407000000000000250,-0.151351373220927232
0.408000000000000251,-0.181898278729346247
0.409000000000000252,-0.211690507322328608
0.410000000000000253,-0.240741330116947511
0.411000000000000254,-0.269063967873743703
0.412000000000000255,-0.296671582976143711
0.413000000000000256,-0.323577271734706073
0.414000000000000257,-0.349794057015158255
0.415000000000000258,-0.375334881188833180
0.416000000000000258,-0.400212599403177216
0.417000000000000259,-0.424439973169764617
0.418000000000000260,-0.448029664266489491
0.419000000000000261,-0.470994228950341653
0.420000000000000262,-0.493346112476552912
0.421000000000000263,-0.515097643919717796
0.422000000000000264,-0.536261031291892953
0.423000000000000265,-0.556848356952606371
0.424000000000000266,-0.576871573305266949
0.425000000000000266,-0.596342498774190100
0.426000000000000267,-0.615272814056370132
0.427000000000000268,-0.633674058641781501
0.428000000000000269,-0.651557627595870215
0.429000000000000270,-0.668934768597817753
0.430000000000000271,-0.685816579227874312
0.431000000000000272,-0.702214004497145217
0.432000000000000273,-0.718137834612947557
0.433000000000000274,-0.733598702972948602
0.434000000000000274,-0.748607084381146537
0.435000000000000275,-0.763173293478747405
0.436000000000000276,-0.777307483383040787
0.437000000000000277,-0.791019644527281018
0.438000000000000278,-0.804319603694667817
0.439000000000000279,-0.817217023239553142
0.440000000000000280,-0.829721400488980576
0.441000000000000281,-0.841842067317744913
0.442000000000000282,-0.853588189890320592
0.443000000000000282,-0.864968768562847323
0.444000000000000283,-0.875992637938720620
0.445000000000000284,-0.886668467071199728
0.446000000000000285,-0.897004759806624419
0.447000000000000286,-0.907009855262043585
0.448000000000000287,-0.916691928430880099
0.449000000000000288,-0.926058990910726409
0.450000000000000289,-0.935118891747175995
0.451000000000000290,-0.943879318387885968
0.452000000000000290,-0.952347797741194158
0.453000000000000291,-0.960531697333592005
0.454000000000000292,-0.968438226560695670
0.455000000000000293,-0.976074438026304891
0.456000000000000294,-0.983447228964383746
0.457000000000000295,-0.990563342738916885
0.458000000000000296,-0.997429370416651695
0.459000000000000297,-1.004051752408010145
0.460000000000000298,-1.010436780171461546
0.461000000000000298,-1.016590597976867016
0.462000000000000299,-1.022519204723420172
0.463000000000000300,-1.028228455807901565
0.464000000000000301,-1.033724065039207884
0.465000000000000302,-1.039011606595127368
0.466000000000000303,-1.044096517017537806
0.467000000000000304,-1.048984097242366076
0.468000000000000305,-1.053679514660654792
0.469000000000000306,-1.058187805207359888
0.470000000000000306,-1.062513875474579539
0.471000000000000307,-1.066662504845919068
0.472000000000000308,-1.070638347649053967
0.473000000000000309,-1.074445935323488754
0.474000000000000310,-1.078089678600662182
0.475000000000000311,-1.081573869693765122
0.476000000000000312,-1.084902684494620129
0.477000000000000313,-1.088080184775196191
0.478000000000000314,-1.091110320391332156
0.479000000000000314,-1.093996931486496127
0.480000000000000315,-1.096743750693341068
0.481000000000000316,-1.099354405331090634
0.482000000000000317,-1.101832419596735502
0.483000000000000318,-1.104181216748256755
0.484000000000000319,-1.106404121278072639
0.485000000000000320,-1.108504361075071998
0.486000000000000321,-1.110485069573682093
0.487000000000000322,-1.112349287888458438
0.488000000000000322,-1.114099966932782904
0.489000000000000323,-1.115739969520443964
0.490000000000000324,-1.117272072448767251
0.491000000000000325,-1.118698968562197082
0.492000000000000326,-1.120023268795219407
0.493000000000000327,-1.121247504193666478
0.494000000000000328,-1.122374127913387643
0.495000000000000329,-1.123405517195519732
0.496000000000000330,-1.124343975317428690
0.497000000000000330,-1.125191733518743353
0.498000000000000331,-1.125950952901603408
0.499000000000000332,-1.126623726304698758
0.500000000000000333,-1.127212080150417517
0.501000000000000334,-1.127717976264593247
0.502000000000000335,-1.128143313668475534
0.503000000000000336,-1.128489930342425840
0.504000000000000337,-1.128759604961055096
0.505000000000000338,-1.128954058599421995
0.506000000000000338,-1.129074956410086816
0.507000000000000339,-1.129123909270760340
0.508000000000000340,-1.129102475402342431
0.509000000000000341,-1.129012161957289706
0.510000000000000342,-1.128854426578071113
0.511000000000000343,-1.128630678925780728
0.512000000000000344,-1.128342282178735667
0.513000000000000345,-1.127990554501132392
0.514000000000000346,-1.127576770481790280
0.515000000000000346,-1.127102162542954256
0.516000000000000347,-1.126567922319298587
0.517000000000000348,-1.125975202007245768
0.518000000000000349,-1.125325115684653987
0.519000000000000350,-1.124618740601124767
0.520000000000000351,-1.123857118438984060
0.521000000000000352,-1.123041256545278088
0.522000000000000353,-1.122172129134833662
0.523000000000000353,-1.121250678464745798
0.524000000000000354,-1.120277815980478264
0.525000000000000355,-1.119254423433842849
0.526000000000000356,-1.118181353973139114
0.527000000000000357,-1.117059433205777497
0.528000000000000358,-1.115889460233631558
0.529000000000000359,-1.114672208661509067
0.530000000000000360,-1.113408427578980397
0.531000000000000361,-1.112098842516000552
0.532000000000000361,-1.110744156372594160
0.533000000000000362,-1.109345050322998683
0.534000000000000363,-1.107902184694605108
0.535000000000000364,-1.106416199822108926
0.536000000000000365,-1.104887716877173354
0.537000000000000366,-1.103317338674082659
0.538000000000000367,-1.101705650451653140
0.539000000000000368,-1.100053220631933781
0.540000000000000369,-1.098360601555946614
0.541000000000000369,-1.096628330196997236
0.542000000000000370,-1.094856928851819289
0.543000000000000371,-1.093046905810086011
0.544000000000000372,-1.091198756002596415
0.545000000000000373,-1.089312961628588816
0.546000000000000374,-1.087389992762563873
0.547000000000000375,-1.085430307941025019
0.548000000000000376,-1.083434354729558624
0.549000000000000377,-1.081402570270620922
0.550000000000000377,-1.079335381812487338
0.551000000000000378,-1.077233207219683297
0.552000000000000379,-1.075096455465402334
0.553000000000000380,-1.072925527106211252
0.554000000000000381,-1.070720814739473337
0.555000000000000382,-1.068482703443938142
0.556000000000000383,-1.066211571203748765
0.557000000000000384,-1.063907789316429264
0.558000000000000385,-1.061571722785066729
0.559000000000000385,-1.059203730695187584
0.560000000000000386,-1.056804166576654325
0.561000000000000387,-1.054373378750947499
0.562000000000000388,-1.051911710664209743
0.563000000000000389,-1.049419501206444449
0.564000000000000390,-1.046897085017171936
0.565000000000000391,-1.044344792777940345
0.566000000000000392,-1.041762951492018363
0.567000000000000393,-1.039151884751652988
0.568000000000000393,-1.036511912993159257
0.569000000000000394,-1.033843353740246274
0.570000000000000395,-1.031146521835903496
0.571000000000000396,-1.028421729663097084
0.572000000000000397,-1.025669287354724624
0.573000000000000398,-1.022889502993012067
0.574000000000000399,-1.020082682798761686
0.575000000000000400,-1.017249131310696386
0.576000000000000401,-1.014389151555206370
0.577000000000000401,-1.011503045206858742
0.578000000000000402,-1.008591112739842810
0.579000000000000403,-1.005653653570715456
0.580000000000000404,-1.002690966192745003
0.581000000000000405,-0.999703348302015904
0.582000000000000406,-0.996691096915702568
0.583000000000000407,-0.993654508482642362
0.584000000000000408,-0.990593878986574028
0.585000000000000409,-0.987509504042217268
0.586000000000000409,-0.984401678984464845
0.587000000000000410,-0.981270698950959308
0.588000000000000411,-0.978116858958207880
0.589000000000000412,-0.974940453971584686
0.590000000000000413,-0.971741778969316905
0.591000000000000414,-0.968521129000771586
0.592000000000000415,-0.965278799239227658
0.593000000000000416,-0.962015085029314321
0.594000000000000417,-0.958730281929350503
0.595000000000000417,-0.955424685748829994
0.596000000000000418,-0.952098592581106518
0.597000000000000419,-0.948752298831662122
0.598000000000000420,-0.945386101241959764
0.599000000000000421,-0.942000296909206392
0.600000000000000422,-0.938595183302112779
0.601000000000000423,-0.935171058272842637
0.602000000000000424,-0.931728220065362267
0.603000000000000425,-0.928266967320295122
0.604000000000000425,-0.924787599076457467
0.605000000000000426,-0.921290414769250221
0.606000000000000427,-0.917775714226064188
0.607000000000000428,-0.914243797658746415
0.608000000000000429,-0.910694965653461863
0.609000000000000430,-0.907129519157855335
0.610000000000000431,-0.903547759465857303
0.611000000000000432,-0.899949988200120954
0.612000000000000433,-0.896336507292272877
0.613000000000000433,-0.892707618961114391
0.614000000000000434,-0.889063625688862103
