# hydroxyapatite-001-ph5_CS-13254-AC
# h[nm],U(h)[kJ/mol]
0.149999999999999994,138.170162135487544219
0.150999999999999995,135.908435177724072673
0.151999999999999996,134.046625179812195938
0.152999999999999997,132.249038414990195633
0.153999999999999998,130.410450303968076469
0.154999999999999999,128.526564757275991724
0.156000000000000000,126.627074490697097531
0.157000000000000001,124.744400416080907235
0.158000000000000002,122.901749238526548424
0.159000000000000002,121.110839290286961045
0.160000000000000003,119.373829062480851348
0.161000000000000004,117.686530269319717945
0.162000000000000005,116.041490019017174973
0.163000000000000006,114.430375332220108930
0.164000000000000007,112.845542177670878914
0.165000000000000008,111.280883552191014019
0.166000000000000009,109.732129667661183703
0.167000000000000010,108.196781201887688439
0.168000000000000010,106.673831456516950311
0.169000000000000011,105.163396574340566758
0.170000000000000012,103.666336087295803736
0.171000000000000013,102.183914342652343521
0.172000000000000014,100.717528657031252237
0.173000000000000015,99.268512368891038022
0.174000000000000016,97.838009392142780030
0.175000000000000017,96.426910178429494636
0.176000000000000018,95.035835918804934863
0.177000000000000018,93.665157242379137870
0.178000000000000019,92.315034687190490104
0.179000000000000020,90.985470125341208814
0.180000000000000021,89.676360611091553210
0.181000000000000022,88.387548440100971447
0.182000000000000023,87.118863342080857137
0.183000000000000024,85.870154556798681256
0.184000000000000025,84.641312013587167939
0.185000000000000026,83.432276943750963483
0.186000000000000026,82.243043030036176333
0.187000000000000027,81.073649681055570682
0.188000000000000028,79.924169262141234071
0.189000000000000029,78.794690169457453521
0.190000000000000030,77.685297550176144910
0.191000000000000031,76.596053291427324439
0.192000000000000032,75.526976661270623481
0.193000000000000033,74.478026715838879568
0.194000000000000034,73.449087311186076477
0.195000000000000034,72.439955293295128058
0.196000000000000035,71.450332197008179946
0.197000000000000036,70.479819571800632616
0.198000000000000037,69.527917873278326510
0.199000000000000038,68.594028715245840999
0.200000000000000039,67.677460167352947451
0.201000000000000040,66.777434705413554639
0.202000000000000041,65.893099372311951356
0.203000000000000042,65.023537683231367623
0.204000000000000042,64.167782805799532753
0.205000000000000043,63.324831559701941330
0.206000000000000044,62.493658807598350791
0.207000000000000045,61.673231846326572736
0.208000000000000046,60.862524451288685157
0.209000000000000047,60.060530274891632985
0.210000000000000048,59.266275349678018358
0.211000000000000049,58.478829496452895853
0.212000000000000050,57.697316485793066931
0.213000000000000050,56.920922846671757611
0.214000000000000051,56.148905257701372307
0.215000000000000052,55.380596494130756469
0.216000000000000053,54.615409936893442477
0.217000000000000054,53.852842678549428967
0.218000000000000055,53.092477284911240076
0.219000000000000056,52.333982290633358048
0.220000000000000057,51.577111522304143421
0.221000000000000058,50.821702353916521133
0.222000000000000058,50.067673007348275860
0.223000000000000059,49.315019015036952510
0.224000000000000060,48.563808963767918669
0.225000000000000061,47.814179637798574163
0.226000000000000062,47.066330676788780352
0.227000000000000063,46.320518859558973190
0.228000000000000064,45.577052118886797416
0.229000000000000065,44.836283385688751935
0.230000000000000066,44.098604353297297109
0.231000000000000066,43.364439244383675032
0.232000000000000067,42.634238654612701680
0.233000000000000068,41.908473538540462755
0.234000000000000069,41.187629394737143684
0.235000000000000070,40.472200698775324668
0.236000000000000071,39.762685624676279872
0.237000000000000072,39.059581087742969885
0.238000000000000073,38.363378134495881966
0.239000000000000073,37.674557698717293874
0.240000000000000074,36.993586736431026907
0.241000000000000075,36.320914747023323343
0.242000000000000076,35.656970682648179150
0.243000000000000077,35.002160243558435582
0.244000000000000078,34.356863553049677762
0.245000000000000079,33.721433202280095998
0.246000000000000080,33.096192652313270344
0.247000000000000081,32.481434978293520999
0.248000000000000081,31.877421938676739899
0.249000000000000082,31.284383350869802598
0.250000000000000111,30.702516753444939468
0.251000000000000112,30.131987334258781175
0.252000000000000113,29.572928103283373957
0.253000000000000114,29.025440288717714310
0.254000000000000115,28.489593934956655374
0.255000000000000115,27.965428681222562091
0.256000000000000116,27.452954700080475448
0.257000000000000117,26.952153775634503319
0.258000000000000118,26.462980501914302067
0.259000000000000119,25.985363582781843661
0.260000000000000120,25.519207215597994320
0.261000000000000121,25.064392541866283182
0.262000000000000122,24.620779149097639760
0.263000000000000123,24.188206609200655350
0.264000000000000123,23.766496039779937632
0.265000000000000124,23.355451675809735690
0.266000000000000125,22.954862440228676945
0.267000000000000126,22.564503503064674561
0.268000000000000127,22.184137819738573683
0.269000000000000128,21.813517640204544534
0.270000000000000129,21.452385981557789307
0.271000000000000130,21.100478057671779197
0.272000000000000131,20.757522660314606355
0.273000000000000131,20.423243487033605703
0.274000000000000132,20.097360411888207210
0.275000000000000133,19.779590695850721715
0.276000000000000134,19.469650134383879703
0.277000000000000135,19.167254140342262048
0.278000000000000136,18.872118760931510195
0.279000000000000137,18.583961627997219068
0.280000000000000138,18.302502841404589162
0.281000000000000139,18.027465785711633828
0.282000000000000139,17.758577880735817445
0.283000000000000140,17.495571266967164803
0.284000000000000141,17.238183427092934608
0.285000000000000142,16.986157745171912126
0.286000000000000143,16.739244005231778800
0.287000000000000144,16.497198831264917374
0.288000000000000145,16.259786070765688493
0.289000000000000146,16.026777124092014049
0.290000000000000147,15.797951222043474573
0.291000000000000147,15.573095654134302634
0.292000000000000148,15.352005950099893994
0.293000000000000149,15.134486017216371323
0.294000000000000150,14.920348236032506151
0.295000000000000151,14.709413517116294301
0.296000000000000152,14.501511321405706312
0.297000000000000153,14.296479646726044876
0.298000000000000154,14.094164982997162028
0.299000000000000155,13.894422238603411301
0.300000000000000155,13.697114640339929537
0.301000000000000156,13.502113609281028772
0.302000000000000157,13.309298614841964081
0.303000000000000158,13.118557009225620291
0.304000000000000159,12.929783844360438039
0.305000000000000160,12.742881673348142257
0.306000000000000161,12.557760338348469276
0.307000000000000162,12.374336746735295378
0.308000000000000163,12.192534637264543562
0.309000000000000163,12.012284337899554743
0.310000000000000164,11.833522516845221162
0.311000000000000165,11.656191928248190948
0.312000000000000166,11.480241153927739362
0.313000000000000167,11.305624342410565575
0.314000000000000168,11.132300946453369761
0.315000000000000169,10.960235460149709397
0.316000000000000170,10.789397156632787755
0.317000000000000171,10.619759827303592914
0.318000000000000171,10.451301523434489482
0.319000000000000172,10.284004300921708364
0.320000000000000173,10.117853968887006388
0.321000000000000174,9.952839842758454125
0.322000000000000175,9.788954502393339752
0.323000000000000176,9.626193555742396768
0.324000000000000177,9.464555408494124578
0.325000000000000178,9.304041040080669234
0.326000000000000179,9.144653786372721527
0.327000000000000179,8.986399129340103542
0.328000000000000180,8.829284493906916609
0.329000000000000181,8.673319052185595623
0.330000000000000182,8.518513535232457912
0.331000000000000183,8.364880052428649293
0.332000000000000184,8.212431918554466748
0.333000000000000185,8.061183488591890267
0.334000000000000186,7.911150000259453918
0.335000000000000187,7.762347424255724881
0.336000000000000187,7.614792322161849647
0.337000000000000188,7.468501711930540132
0.338000000000000189,7.323492940867572187
0.339000000000000190,7.179783565992901018
0.340000000000000191,7.037391241651664409
0.341000000000000192,6.896333614230027997
0.342000000000000193,6.756628223817510381
0.343000000000000194,6.618292412645804923
0.344000000000000195,6.481343240124232352
0.345000000000000195,6.345797404282801146
0.346000000000000196,6.211671169427340544
0.347000000000000197,6.078980299804656262
0.348000000000000198,5.947739999071314898
0.349000000000000199,5.817964855355847398
0.350000000000000200,5.689668791701698147
0.351000000000000201,5.562865021676537403
0.352000000000000202,5.437566009932939259
0.353000000000000203,5.313783437505351870
0.354000000000000203,5.191528171629105515
0.355000000000000204,5.070810239868846381
0.356000000000000205,4.951638808345583342
0.357000000000000206,4.834022163854244880
0.358000000000000207,4.717967699666946402
0.359000000000000208,4.603481904820428738
0.360000000000000209,4.490570356690107623
0.361000000000000210,4.379237716657709889
0.362000000000000210,4.269487728683609262
0.363000000000000211,4.161323220600193551
0.364000000000000212,4.054746107947339695
0.365000000000000213,3.949757400176436395
0.366000000000000214,3.846357209054760862
0.367000000000000215,3.744544759107424348
0.368000000000000216,3.644318399939634023
0.369000000000000217,3.545675620287870977
0.370000000000000218,3.448613063653917177
0.371000000000000218,3.353126545381692303
0.372000000000000219,3.259211071042202867
0.373000000000000220,3.166860855997836399
0.374000000000000221,3.076069346022664686
0.375000000000000222,2.986829238861194113
0.376000000000000223,2.899132506613073090
0.377000000000000224,2.812970418837223541
0.378000000000000225,2.728333566273733357
0.379000000000000226,2.645211885087352499
0.380000000000000226,2.563594681541269349
0.381000000000000227,2.483470657015181438
0.382000000000000228,2.404827933286184383
0.383000000000000229,2.327654077996007764
0.384000000000000230,2.251936130232620847
0.385000000000000231,2.177660626158638202
0.386000000000000232,2.104813624623527613
0.387000000000000233,2.033380732700427185
0.388000000000000234,1.963347131092893161
0.389000000000000234,1.894697599360359419
0.390000000000000235,1.827416540915193677
0.391000000000000236,1.761488007747643580
0.392000000000000237,1.696895724838554553
0.393000000000000238,1.633623114222989114
0.394000000000000239,1.571653318671199173
0.395000000000000240,1.510969224956283385
0.396000000000000241,1.451553486680933869
0.397000000000000242,1.393388546638405501
0.398000000000000242,1.336456658685415633
0.399000000000000243,1.280739909107418750
0.400000000000000244,1.226220237458789608
0.401000000000000245,1.172879456862994330
0.402000000000000246,1.120699273759910852
0.403000000000000247,1.069661307089325497
0.404000000000000248,1.019747106901829792
0.405000000000000249,0.970938172389935183
0.406000000000000250,0.923215969334066577
0.407000000000000250,0.876561946959600435
0.408000000000000251,0.830957554202661486
0.409000000000000252,0.786384255383833608
0.410000000000000253,0.742823545290155929
0.411000000000000254,0.700256963667105436
0.412000000000000255,0.658666109123363763
0.413000000000000256,0.618032652452117692
0.414000000000000257,0.578338349373893612
0.415000000000000258,0.539565052706433068
0.416000000000000258,0.501694723968368228
0.417000000000000259,0.464709444423841656
0.418000000000000260,0.428591425576179297
0.419000000000000261,0.393323019119174166
0.420000000000000262,0.358886726355251873
0.421000000000000263,0.325265207090123631
0.422000000000000264,0.292441288014240741
0.423000000000000265,0.260397970581484006
0.424000000000000266,0.229118438396080121
0.425000000000000266,0.198586064119025268
0.426000000000000267,0.168784415905433416
0.427000000000000268,0.139697263384629788
0.428000000000000269,0.111308583194868221
0.429000000000000270,0.083602564084727146
0.430000000000000271,0.056563611593452204
0.431000000000000272,0.030176352322400034
0.432000000000000273,0.004425637810035887
0.433000000000000274,-0.020703451977266418
0.434000000000000274,-0.045225605526211153
0.435000000000000275,-0.069155277017036804
0.436000000000000276,-0.092506683911182816
0.437000000000000277,-0.115293804873936340
0.438000000000000278,-0.137530378019931204
0.439000000000000279,-0.159229899469525649
0.440000000000000280,-0.180405622204110744
0.441000000000000281,-0.201070555208610446
0.442000000000000282,-0.221237462889636222
0.443000000000000282,-0.240918864757724810
0.444000000000000283,-0.260127035362547443
0.445000000000000284,-0.278874004469889969
0.446000000000000285,-0.297171557469574465
0.447000000000000286,-0.315031236003699699
0.448000000000000287,-0.332464338804594917
0.449000000000000288,-0.349481922732393646
0.450000000000000289,-0.366094804002071506
0.451000000000000290,-0.382313559590219953
0.452000000000000290,-0.398148528811993085
0.453000000000000291,-0.413609815058818664
0.454000000000000292,-0.428707287687862038
0.455000000000000293,-0.443450584054330132
0.456000000000000294,-0.457849111677993359
0.457000000000000295,-0.471912050535612693
0.458000000000000296,-0.485648355471014537
0.459000000000000297,-0.499066758715043857
0.460000000000000298,-0.512175772507641014
0.461000000000000298,-0.524983691814686515
0.462000000000000299,-0.537498597132404998
0.463000000000000300,-0.549728357372356813
0.464000000000000301,-0.561680632820384051
0.465000000000000302,-0.573362878162953171
0.466000000000000303,-0.584782345574661577
0.467000000000000304,-0.595946087860941054
0.468000000000000305,-0.606860961650047548
0.469000000000000306,-0.617533630628838814
0.470000000000000306,-0.627970568816975327
0.471000000000000307,-0.638178063874296209
0.472000000000000308,-0.648162220436514724
0.473000000000000309,-0.657928963474477380
0.474000000000000310,-0.667484041672368855
0.475000000000000311,-0.676833030820612414
0.476000000000000312,-0.685981337219231047
0.477000000000000313,-0.694934201087761827
0.478000000000000314,-0.703696699977865769
0.479000000000000314,-0.712273752185107245
0.480000000000000315,-0.720670120156394978
0.481000000000000316,-0.728890413889869193
0.482000000000000317,-0.736939094324106536
0.483000000000000318,-0.744820476713727198
0.484000000000000319,-0.752538733988613817
0.485000000000000320,-0.760097900094073853
0.486000000000000321,-0.767501873309550886
0.487000000000000322,-0.774754419543462580
0.488000000000000322,-0.781859175601962386
0.489000000000000323,-0.788819652429648910
0.490000000000000324,-0.795639238320176800
0.491000000000000325,-0.802321202095025443
0.492000000000000326,-0.808868696248693397
0.493000000000000327,-0.815284760058800573
0.494000000000000328,-0.821572322659562260
0.495000000000000329,-0.827734206077376022
0.496000000000000330,-0.833773128227161875
0.497000000000000330,-0.839691705868474969
0.498000000000000331,-0.845492457520136909
0.499000000000000332,-0.851177806332631626
0.500000000000000333,-0.856750082917307254
0.501000000000000334,-0.862211528131572535
0.502000000000000335,-0.867564295819514109
0.503000000000000336,-0.872810455507207372
0.504000000000000337,-0.877951995052276279
0.505000000000000338,-0.882990823247168599
0.506000000000000338,-0.887928772375808473
0.507000000000000339,-0.892767600723290200
0.508000000000000340,-0.897508995038306168
0.509000000000000341,-0.902154572948224875
0.510000000000000342,-0.906705885326521743
0.511000000000000343,-0.911164418612639415
0.512000000000000344,-0.915531597084105142
0.513000000000000345,-0.919808785081012714
0.514000000000000346,-0.923997289182932002
0.515000000000000346,-0.928098360338295514
0.516000000000000347,-0.932113195946456918
0.517000000000000348,-0.936042941892651692
0.518000000000000349,-0.939888694536002101
0.519000000000000350,-0.943651502650935448
0.520000000000000351,-0.947332369322211099
0.521000000000000352,-0.950932253794021798
0.522000000000000353,-0.954452073273384549
0.523000000000000353,-0.957892704688337759
0.524000000000000354,-0.961254986401308131
0.525000000000000355,-0.964539719878080737
0.526000000000000356,-0.967747671312852553
0.527000000000000357,-0.970879573209883828
0.528000000000000358,-0.973936125922191587
0.529000000000000359,-0.976917999147888239
0.530000000000000360,-0.979825833384608047
0.531000000000000361,-0.982660241342686591
0.532000000000000361,-0.985421809317585273
0.533000000000000362,-0.988111098522162612
0.534000000000000363,-0.990728646379407052
0.535000000000000364,-0.993274967776222595
0.536000000000000365,-0.995750556278856891
0.537000000000000366,-0.998155885310652358
0.538000000000000367,-1.000491409292657563
0.539000000000000368,-1.002757564747856822
0.540000000000000369,-1.004954771369512390
0.541000000000000369,-1.007083433054419164
0.542000000000000370,-1.009143938901549520
0.543000000000000371,-1.011136664176896405
0.544000000000000372,-1.013061971245052817
0.545000000000000373,-1.014920210468239770
0.546000000000000374,-1.016711721073405794
0.547000000000000375,-1.018436831988057900
0.548000000000000376,-1.020095862645475693
0.549000000000000377,-1.021689123759956352
0.550000000000000377,-1.023216918072753501
0.551000000000000378,-1.024679541069290156
0.552000000000000379,-1.026077281668391405
0.553000000000000380,-1.027410422884075025
0.554000000000000381,-1.028679242460564858
0.555000000000000382,-1.029884013481217497
0.556000000000000383,-1.031025004951845681
0.557000000000000384,-1.032102482359228857
0.558000000000000385,-1.033116708205252809
0.559000000000000385,-1.034067942517417071
0.560000000000000386,-1.034956443336239706
0.561000000000000387,-1.035782467180175637
0.562000000000000388,-1.036546269488598515
0.563000000000000389,-1.037248105043512947
0.564000000000000390,-1.037888228370452692
0.565000000000000391,-1.038466894119225659
0.566000000000000392,-1.038984357424993066
0.567000000000000393,-1.039440874250308067
0.568000000000000393,-1.039836701708555022
0.569000000000000394,-1.040172098369406717
0.570000000000000395,-1.040447324546806218
0.571000000000000396,-1.040662642569928575
0.572000000000000397,-1.040818317037742302
0.573000000000000398,-1.040914615057551673
0.574000000000000399,-1.040951806468102037
0.575000000000000400,-1.040930164047677353
0.576000000000000401,-1.040849963707666470
0.577000000000000401,-1.040711484672131482
0.578000000000000402,-1.040515009643720568
0.579000000000000403,-1.040260824956448671
0.580000000000000404,-1.039949220715814526
0.581000000000000405,-1.039580490926566458
0.582000000000000406,-1.039154933608686493
0.583000000000000407,-1.038672850901872113
0.584000000000000408,-1.038134549159019926
0.585000000000000409,-1.037540339029059844
0.586000000000000409,-1.036890535529511048
0.587000000000000410,-1.036185458109220692
0.588000000000000411,-1.035425430701521154
0.589000000000000412,-1.034610781768336984
0.590000000000000413,-1.033741844335424931
0.591000000000000414,-1.032818956019227574
0.592000000000000415,-1.031842459045613225
0.593000000000000416,-1.030812700260830272
0.594000000000000417,-1.029730031135013046
0.595000000000000417,-1.028594807758603569
0.596000000000000418,-1.027407390831855283
0.597000000000000419,-1.026168145647899488
0.598000000000000420,-1.024877442069499711
0.599000000000000421,-1.023535654499911240
0.600000000000000422,-1.022143161848025894
0.601000000000000423,-1.020700347488107562
0.602000000000000424,-1.019207599214408955
0.603000000000000425,-1.017665309190884271
0.604000000000000425,-1.016073873896234492
0.605000000000000426,-1.014433694064578173
0.606000000000000427,-1.012745174621971556
0.607000000000000428,-1.011008724618901233
0.608000000000000429,-1.009224757159193908
0.609000000000000430,-1.007393689325274178
0.610000000000000431,-1.005515942100243088
0.611000000000000432,-1.003591940286800988
0.612000000000000433,-1.001622112423272259
0.613000000000000433,-0.999606890696952077
0.614000000000000434,-0.997546710854914087
