# hydroxyapatite-001-ph5_CS-29107-AC
# h[nm],U(h)[kJ/mol]
0.149999999999999994,138.064862187094689716
0.150999999999999995,135.584680687704377533
0.151999999999999996,133.378876889825079388
0.152999999999999997,131.238453584408517827
0.153999999999999998,129.098692934893762185
0.154999999999999999,126.957780549081945765
0.156000000000000000,124.834615375711877050
0.157000000000000001,122.749094917353318124
0.158000000000000002,120.714650874628844690
0.159000000000000002,118.736957563850836550
0.160000000000000003,116.815339890246875143
0.161000000000000004,114.945006325745680442
0.162000000000000005,113.119184732414083783
0.163000000000000006,111.330783337090565510
0.164000000000000007,109.573491914256436530
0.165000000000000008,107.842380239685368792
0.166000000000000009,106.134106279564520037
0.167000000000000010,104.446855243089615328
0.168000000000000010,102.780116619119255006
0.169000000000000011,101.134383596121665505
0.170000000000000012,99.510835446664742676
0.171000000000000013,97.911042292770048334
0.172000000000000014,96.336714634120298228
0.173000000000000015,94.789507333057386518
0.174000000000000016,93.270878986191760873
0.175000000000000017,91.782002084145304366
0.176000000000000018,90.323716325786307380
0.177000000000000018,88.896516224543034923
0.178000000000000019,87.500564140586618578
0.179000000000000020,86.135720631600449337
0.180000000000000021,84.801585188051078035
0.181000000000000022,83.497541757002906593
0.182000000000000023,82.222804793449853378
0.183000000000000024,80.976462805084452157
0.184000000000000025,79.757517417871724774
0.185000000000000026,78.564916861952227123
0.186000000000000026,77.397583459270776984
0.187000000000000027,76.254435199309369864
0.188000000000000028,75.134401838881132107
0.189000000000000029,74.036436181232232911
0.190000000000000030,72.959521304362070282
0.191000000000000031,71.902674542769801747
0.192000000000000032,70.864949002466914862
0.193000000000000033,69.845433324643352080
0.194000000000000034,68.843250324159015463
0.195000000000000034,67.857555027203233067
0.196000000000000035,66.887532527303079632
0.197000000000000036,65.932395977115135111
0.198000000000000037,64.991384939729130110
0.199000000000000038,64.063764240424518448
0.200000000000000039,63.148823389461504973
0.201000000000000040,62.245876589006286395
0.202000000000000041,61.354263292373317995
0.203000000000000042,60.473349250566073465
0.204000000000000042,59.602527958416978038
0.205000000000000043,58.741222399093246054
0.206000000000000044,57.888886979885725736
0.207000000000000045,57.045009552600063785
0.208000000000000046,56.209113417154227932
0.209000000000000047,55.380759215904745929
0.210000000000000048,54.559546637664901425
0.211000000000000049,53.745115863385059640
0.212000000000000050,52.937148699224778170
0.213000000000000050,52.135369356607178304
0.214000000000000051,51.339544852280411646
0.215000000000000052,50.549485014025080432
0.216000000000000053,49.765042089155642202
0.217000000000000054,48.986109963176133419
0.218000000000000055,48.212623004758114575
0.219000000000000056,47.444554560570445290
0.220000000000000057,46.681915129414235821
0.221000000000000058,45.924750249660874601
0.222000000000000058,45.173138137233024736
0.223000000000000059,44.427187113422704101
0.224000000000000060,43.687032862820174728
0.225000000000000061,42.952835561666837805
0.226000000000000062,42.224776916171464336
0.227000000000000063,41.503057148875008409
0.228000000000000064,40.787891969138250658
0.229000000000000065,40.079509561375246562
0.230000000000000066,39.378147621876834705
0.231000000000000066,38.684050472055432124
0.232000000000000067,37.997466272789829134
0.233000000000000068,37.318644361328075831
0.234000000000000069,36.647832728989598650
0.235000000000000070,35.985275654748619445
0.236000000000000071,35.331211506726631910
0.237000000000000072,34.685870720711371007
0.238000000000000073,34.049473962081165723
0.239000000000000073,33.422230474970682224
0.240000000000000074,32.804336620179796569
0.241000000000000075,32.195974601213592337
0.242000000000000076,31.597311375950759782
0.243000000000000077,31.008497749770661756
0.244000000000000078,30.429667644522321979
0.245000000000000079,29.860937536484708943
0.246000000000000080,29.302406055438808608
0.247000000000000081,28.754153736135059205
0.248000000000000081,28.216242912785059360
0.249000000000000082,27.688717746719401447
0.250000000000000111,27.171604377019843213
0.251000000000000112,26.664911183740940714
0.252000000000000113,26.168629153267950471
0.253000000000000114,25.682732335402647550
0.254000000000000115,25.207178381910175347
0.255000000000000115,24.741909156487910337
0.256000000000000116,24.286851406416740673
0.257000000000000117,23.841917486516951641
0.258000000000000118,23.407006126441572746
0.259000000000000119,22.982003232791715419
0.260000000000000120,22.566782718019926079
0.261000000000000121,22.161207348592604660
0.262000000000000122,21.765129605400769464
0.263000000000000123,21.378392549936346967
0.264000000000000123,21.000830690279251201
0.265000000000000124,20.632270841466610278
0.266000000000000125,20.272532975332762106
0.267000000000000126,19.921431055414579703
0.268000000000000127,19.578773853006822492
0.269000000000000128,19.244365740925431396
0.270000000000000129,18.918007461988661788
0.271000000000000130,18.599496869656825027
0.272000000000000131,18.288629638678919775
0.273000000000000131,17.985199943977718817
0.274000000000000132,17.689001106363768656
0.275000000000000133,17.399826204002305730
0.276000000000000134,17.117468648866044134
0.277000000000000135,16.841722727691010419
0.278000000000000136,16.572384107212165816
0.279000000000000137,16.309250303691623429
0.280000000000000138,16.052121116965498260
0.281000000000000139,15.800799029426105591
0.282000000000000139,15.555089570526018150
0.283000000000000140,15.314801647539741936
0.284000000000000141,15.079747843449291977
0.285000000000000142,14.849744682931710571
0.286000000000000143,14.624612867522102988
0.287000000000000144,14.404177481104920133
0.288000000000000145,14.188268166950573246
0.289000000000000146,13.976719277565877064
0.290000000000000147,13.769369998664547694
0.291000000000000147,13.566064448591337310
0.292000000000000148,13.366651754549261355
0.293000000000000149,13.170986106986589448
0.294000000000000150,12.978926793498288816
0.295000000000000151,12.790338213587151728
0.296000000000000152,12.605089875613776584
0.297000000000000153,12.423056377242216897
0.298000000000000154,12.244117370660536182
0.299000000000000155,12.068157513823553728
0.300000000000000155,11.895066408929096724
0.301000000000000156,11.724738529299830958
0.302000000000000157,11.557073135800830954
0.303000000000000158,11.391974183879039373
0.304000000000000159,11.229350222264855574
0.305000000000000160,11.069114284329234721
0.306000000000000161,10.911183773041603473
0.307000000000000162,10.755480340425709329
0.308000000000000163,10.601929762361782750
0.309000000000000163,10.450461809535218194
0.310000000000000164,10.301010115283663282
0.311000000000000165,10.153512041047259018
0.312000000000000166,10.007908540079917259
0.313000000000000167,9.864144020034158800
0.314000000000000168,9.722166204987271243
0.315000000000000169,9.581925997433611286
0.316000000000000170,9.443377340725797708
0.317000000000000171,9.306477082407212720
0.318000000000000171,9.171184838839508302
0.319000000000000172,9.037462861491224686
0.320000000000000173,8.905275905218227095
0.321000000000000174,8.774591098832484448
0.322000000000000175,8.645377818223341393
0.323000000000000176,8.517607562264819521
0.324000000000000177,8.391253831713138212
0.325000000000000178,8.266292011271659135
0.326000000000000179,8.142699254974075984
0.327000000000000179,8.020454375012937120
0.328000000000000180,7.899537734117568100
0.329000000000000181,7.779931141564418340
0.330000000000000182,7.661617752883165267
0.331000000000000183,7.544581973303515099
0.332000000000000184,7.428809364970821782
0.333000000000000185,7.314286557943110445
0.334000000000000186,7.201001164967602008
0.335000000000000187,7.088941700021919701
0.336000000000000187,6.978097500593067437
0.337000000000000188,6.868458653656690949
0.338000000000000189,6.760015925309059703
0.339000000000000190,6.652760693995634078
0.340000000000000191,6.546684887272316011
0.341000000000000192,6.441780922028405243
0.342000000000000193,6.338041648094273839
0.343000000000000194,6.235460295151493249
0.344000000000000195,6.134030422858727682
0.345000000000000195,6.033745874102508289
0.346000000000000196,5.934600731279272345
0.347000000000000197,5.836589275512086950
0.348000000000000198,5.739705948703617722
0.349000000000000199,5.643945318325371829
0.350000000000000200,5.549302044842143289
0.351000000000000201,5.455770851670058263
0.352000000000000202,5.363346497566430671
0.353000000000000203,5.272023751349733445
0.354000000000000203,5.181797368848567231
0.355000000000000204,5.092662071979360050
0.356000000000000205,5.004612529853553760
0.357000000000000206,4.917643341816293479
0.358000000000000207,4.831749022320492415
0.359000000000000208,4.746923987541559420
0.360000000000000209,4.663162543640107849
0.361000000000000210,4.580458876582253147
0.362000000000000210,4.498807043428951324
0.363000000000000211,4.418200965008451497
0.364000000000000212,4.338634419888154348
0.365000000000000213,4.260101039564772485
0.366000000000000214,4.182594304794161388
0.367000000000000215,4.106107542984856806
0.368000000000000216,4.030633926581820958
0.369000000000000217,3.956166472369840648
0.370000000000000218,3.882698041628317664
0.371000000000000218,3.810221341072229428
0.372000000000000219,3.738728924516350194
0.373000000000000220,3.668213195202683519
0.374000000000000221,3.598666408733592448
0.375000000000000222,3.530080676555793051
0.376000000000000223,3.462447969942634707
0.377000000000000224,3.395760124425013515
0.378000000000000225,3.330008844623387976
0.379000000000000226,3.265185709435974637
0.380000000000000226,3.201282177540361040
0.381000000000000227,3.138289593168347658
0.382000000000000228,3.076199192115768533
0.383000000000000229,3.015002107951425980
0.384000000000000230,2.954689378391324617
0.385000000000000231,2.895251951806351531
0.386000000000000232,2.836680693833714795
0.387000000000000233,2.778966394064125822
0.388000000000000234,2.722099772778830751
0.389000000000000234,2.666071487712103671
0.390000000000000235,2.610872140816718368
0.391000000000000236,2.556492285011499277
0.392000000000000237,2.502922430891578731
0.393000000000000238,2.450153053383571145
0.394000000000000239,2.398174598329320339
0.395000000000000240,2.346977488983158722
0.396000000000000241,2.296552132409077185
0.397000000000000242,2.246888925765354372
0.398000000000000242,2.197978262465421828
0.399000000000000243,2.149810538204934396
0.400000000000000244,2.102376156845965127
0.401000000000000245,2.055665536150368844
0.402000000000000246,2.009669113355383452
0.403000000000000247,1.964377350585214455
0.404000000000000248,1.919780740093504523
0.405000000000000249,1.875869809332153526
0.406000000000000250,1.832635125842939861
0.407000000000000250,1.790067301968878200
0.408000000000000251,1.748156999383133625
0.409000000000000252,1.706894933433793282
0.410000000000000253,1.666271877303461268
0.411000000000000254,1.626278665983157623
0.412000000000000255,1.586906200060549610
0.413000000000000256,1.548145449322891887
0.414000000000000257,1.509987456175740927
0.415000000000000258,1.472423338878541044
0.416000000000000258,1.435444294598983150
0.417000000000000259,1.399041602287955488
0.418000000000000260,1.363206625377559877
0.419000000000000261,1.327930814304691065
0.420000000000000262,1.293205708863141679
0.421000000000000263,1.259022940387216183
0.422000000000000264,1.225374233770279986
0.423000000000000265,1.192251409321619660
0.424000000000000266,1.159646384465299551
0.425000000000000266,1.127551175284841944
0.426000000000000267,1.095957897917568813
0.427000000000000268,1.064858769802673466
0.428000000000000269,1.034246110787128803
0.429000000000000270,1.004112344093564868
0.430000000000000271,0.974449997154411940
0.431000000000000272,0.945251702316526332
0.432000000000000273,0.916510197420664974
0.433000000000000274,0.888218326260110436
0.434000000000000274,0.860369038922754514
0.435000000000000275,0.832955392021053398
0.436000000000000276,0.805970548814079812
0.437000000000000277,0.779407779226042208
0.438000000000000278,0.753260459765516699
0.439000000000000279,0.727522073349600840
0.440000000000000280,0.702186209037214959
0.441000000000000281,0.677246561675681646
0.442000000000000282,0.652696931464605168
0.443000000000000282,0.628531223441180842
0.444000000000000283,0.604743446890754655
0.445000000000000284,0.581327714686630359
0.446000000000000285,0.558278242562874283
0.447000000000000286,0.535589348323809777
0.448000000000000287,0.513255450993956308
0.449000000000000288,0.491271069911859370
0.450000000000000289,0.469630823771376105
0.451000000000000290,0.448329429613780861
0.452000000000000290,0.427361701773951108
0.453000000000000291,0.406722550783936765
0.454000000000000292,0.386406982236949248
0.455000000000000293,0.366410095614844167
0.456000000000000294,0.346727083082042753
0.457000000000000295,0.327353228248683903
0.458000000000000296,0.308283904905851502
0.459000000000000297,0.289514575735436874
0.460000000000000298,0.271040790997294279
0.461000000000000298,0.252858187196105644
0.462000000000000299,0.234962485730371151
0.463000000000000300,0.217349491525844429
0.464000000000000301,0.200015091655564442
0.465000000000000302,0.182955253948666879
0.466000000000000303,0.166166025589990524
0.467000000000000304,0.149643531712395195
0.468000000000000305,0.133383973983737303
0.469000000000000306,0.117383629190218414
0.470000000000000306,0.101638847817820094
0.471000000000000307,0.086146052633513090
0.472000000000000308,0.070901737267722240
0.473000000000000309,0.055902464799523058
0.474000000000000310,0.041144866346041462
0.475000000000000311,0.026625639657287970
0.476000000000000312,0.012341547717765921
0.477000000000000313,-0.001710582644039271
0.478000000000000314,-0.015533862137061472
0.479000000000000314,-0.029131340379015123
0.480000000000000315,-0.042506007256602696
0.481000000000000316,-0.055660794273736804
0.482000000000000317,-0.068598575886818836
0.483000000000000318,-0.081322170826328422
0.484000000000000319,-0.093834343403918719
0.485000000000000320,-0.106137804804318142
0.486000000000000321,-0.118235214361416680
0.487000000000000322,-0.130129180817902868
0.488000000000000322,-0.141822263567868090
0.489000000000000323,-0.153316973881962082
0.490000000000000324,-0.164615776114543977
0.491000000000000325,-0.175721088892455135
0.492000000000000326,-0.186635286285019575
0.493000000000000327,-0.197360698954959723
0.494000000000000328,-0.207899615289884071
0.495000000000000329,-0.218254282514147968
0.496000000000000330,-0.228426907780763411
0.497000000000000330,-0.238419659243317122
0.498000000000000331,-0.248234667107536777
0.499000000000000332,-0.257874024662566204
0.500000000000000333,-0.267339789291749397
0.501000000000000334,-0.276633983462829636
0.502000000000000335,-0.285758595697615247
0.503000000000000336,-0.294715581520988257
0.504000000000000337,-0.303506864389350872
0.505000000000000338,-0.312134336598456907
0.506000000000000338,-0.320599860170741324
0.507000000000000339,-0.328905267722191641
0.508000000000000340,-0.337052363308822156
0.509000000000000341,-0.345042923252946498
0.510000000000000342,-0.352878696949249615
0.511000000000000343,-0.360561407650933419
0.512000000000000344,-0.368092753235972514
0.513000000000000345,-0.375474406953729245
0.514000000000000346,-0.382708018152110863
0.515000000000000346,-0.389795212985412087
0.516000000000000347,-0.396737595103088037
0.517000000000000348,-0.403536746319707429
0.518000000000000349,-0.410194227266240496
0.519000000000000350,-0.416711578023003237
0.520000000000000351,-0.423090318734411386
0.521000000000000352,-0.429331950205927626
0.522000000000000353,-0.435437954483309297
0.523000000000000353,-0.441409795414562267
0.524000000000000354,-0.447248919194796812
0.525000000000000355,-0.452956754894291602
0.526000000000000356,-0.458534714970025348
0.527000000000000357,-0.463984195761018903
0.528000000000000358,-0.469306577967709138
0.529000000000000359,-0.474503227115717130
0.530000000000000360,-0.479575494004235714
0.531000000000000361,-0.484524715139407369
0.532000000000000361,-0.489352213152946913
0.533000000000000362,-0.494059297206322356
0.534000000000000363,-0.498647263380792238
0.535000000000000364,-0.503117395053634509
0.536000000000000365,-0.507470963260801433
0.537000000000000366,-0.511709227046395432
0.538000000000000367,-0.515833433799152363
0.539000000000000368,-0.519844819576375294
0.540000000000000369,-0.523744609415471296
0.541000000000000369,-0.527534017633527363
0.542000000000000370,-0.531214248115082444
0.543000000000000371,-0.534786494588525452
0.544000000000000372,-0.538251940891309011
0.545000000000000373,-0.541611761224337407
0.546000000000000374,-0.544867120395766680
0.547000000000000375,-0.548019174054525715
0.548000000000000376,-0.551069068913849991
0.549000000000000377,-0.554017942965071564
0.550000000000000377,-0.556866925681997693
0.551000000000000378,-0.559617138216058185
0.552000000000000379,-0.562269693582614694
0.553000000000000380,-0.564825696838571090
0.554000000000000381,-0.567286245251615640
0.555000000000000382,-0.569652428461381199
0.556000000000000383,-0.571925328632657992
0.557000000000000384,-0.574106020601067524
0.558000000000000385,-0.576195572011289903
0.559000000000000385,-0.578195043448192059
0.560000000000000386,-0.580105488561058147
0.561000000000000387,-0.581927954181141849
0.562000000000000388,-0.583663480432763171
0.563000000000000389,-0.585313100838243616
0.564000000000000390,-0.586877842416787643
0.565000000000000391,-0.588358725777622937
0.566000000000000392,-0.589756765207549272
0.567000000000000393,-0.591072968753156958
0.568000000000000393,-0.592308338297845016
0.569000000000000394,-0.593463869633904517
0.570000000000000395,-0.594540552529840505
0.571000000000000396,-0.595539370793074840
0.572000000000000397,-0.596461302328317844
0.573000000000000398,-0.597307319191662578
0.574000000000000399,-0.598078387640697762
0.575000000000000400,-0.598775468180716142
0.576000000000000401,-0.599399515607232813
0.577000000000000401,-0.599951479045010005
0.578000000000000402,-0.600432301983653605
0.579000000000000403,-0.600842922310011907
0.580000000000000404,-0.601184272337545011
0.581000000000000405,-0.601457278832704612
0.582000000000000406,-0.601662863038611717
0.583000000000000407,-0.601801940696038207
0.584000000000000408,-0.601875422061933674
0.585000000000000409,-0.601884211925555968
0.586000000000000409,-0.601829209622361416
0.587000000000000410,-0.601711309045815712
0.588000000000000411,-0.601531398657140337
0.589000000000000412,-0.601290361493264647
0.590000000000000413,-0.600989075172939424
0.591000000000000414,-0.600628411901231507
0.592000000000000415,-0.600209238472481199
0.593000000000000416,-0.599732416271773872
0.594000000000000417,-0.599198801275088733
0.595000000000000417,-0.598609244048231570
0.596000000000000418,-0.597964589744522934
0.597000000000000419,-0.597265678101530417
0.598000000000000420,-0.596513343436723353
0.599000000000000421,-0.595708414642300843
0.600000000000000422,-0.594851715179179785
0.601000000000000423,-0.593944063070226069
0.602000000000000424,-0.592986270892868150
0.603000000000000425,-0.591979145771105109
0.604000000000000425,-0.590923489366970589
0.605000000000000426,-0.589820097871579074
0.606000000000000427,-0.588669761995794683
0.607000000000000428,-0.587473266960500284
0.608000000000000429,-0.586231392486722291
0.609000000000000430,-0.584944912785420490
0.610000000000000431,-0.583614596547224029
0.611000000000000432,-0.582241206932006650
0.612000000000000433,-0.580825501558423607
0.613000000000000433,-0.579368232493465585
0.614000000000000434,-0.577870146242036364
0.615000000000000435,-0.576331983736613429
0.616000000000000436,-0.574754480327026696
