# hydroxyapatite-001-ph5_BSAI26
# h[nm],U(h)[kJ/mol]
0.149999999999999994,121.306389938186114819
0.150999999999999995,118.634950556237569685
0.151999999999999996,116.804154959685504878
0.152999999999999997,115.151457200079605059
0.153999999999999998,113.441734662102930997
0.154999999999999999,111.638844673466039126
0.156000000000000000,109.782728708905210624
0.157000000000000001,107.928505000487348298
0.158000000000000002,106.120447198245386744
0.159000000000000002,104.384403928414513985
0.160000000000000003,102.729006300975285626
0.161000000000000004,101.150254267231062499
0.162000000000000005,99.636657682722116647
0.163000000000000006,98.173629701917391799
0.164000000000000007,96.746683644144439995
0.165000000000000008,95.343428359529355021
0.166000000000000009,93.954558259700590384
0.167000000000000010,92.574098236764825742
0.168000000000000010,91.199156009621475505
0.169000000000000011,89.829394117654473462
0.170000000000000012,88.466383183463563000
0.171000000000000013,87.112949078684394522
0.172000000000000014,85.772584796095259208
0.173000000000000015,84.448965016648713799
0.174000000000000016,83.145577414112111114
0.175000000000000017,81.865468540397074548
0.176000000000000018,80.611092196146060473
0.177000000000000018,79.384243007751706500
0.178000000000000019,78.186056151213790599
0.179000000000000020,77.017054658680109469
0.180000000000000021,75.877227628997928832
0.181000000000000022,74.766125276064059335
0.182000000000000023,73.682959616805263181
0.183000000000000024,72.626702408563232893
0.184000000000000025,71.596174498733887503
0.185000000000000026,70.590122942948411833
0.186000000000000026,69.607284041211698877
0.187000000000000027,68.646431836857516373
0.188000000000000028,67.706412650824205457
0.189000000000000029,66.786166928783870844
0.190000000000000030,65.884740112987515204
0.191000000000000031,65.001284467097121933
0.192000000000000032,64.135053830627001048
0.193000000000000033,63.285393204616958940
0.194000000000000034,62.451724910278230141
0.195000000000000034,61.633532849483557925
0.196000000000000035,60.830346155649479556
0.197000000000000036,60.041723275474211619
0.198000000000000037,59.267237280683524148
0.199000000000000038,58.506462984557821017
0.200000000000000039,57.758966237101859065
0.201000000000000040,57.024295598906348914
0.202000000000000041,56.301976448434537303
0.203000000000000042,55.591507460353724923
0.204000000000000042,54.892359302140256716
0.205000000000000043,54.203975330233546970
0.206000000000000044,53.525774022736229085
0.207000000000000045,52.857152860063294497
0.208000000000000046,52.197493354999338067
0.209000000000000047,51.546166936392616265
0.210000000000000048,50.902541403454776514
0.211000000000000049,50.265987687855307797
0.212000000000000050,49.635886686293986259
0.213000000000000050,49.011635955104758011
0.214000000000000051,48.392656089081654613
0.215000000000000052,47.778396637806466174
0.216000000000000053,47.168341443245537903
0.217000000000000054,46.562013311453156916
0.218000000000000055,45.958977958274303433
0.219000000000000056,45.358847193561679489
0.220000000000000057,44.761281330349255825
0.221000000000000058,44.165990824532045167
0.222000000000000058,43.572737166858907187
0.223000000000000059,42.981333062518544352
0.224000000000000060,42.391641944407460585
0.225000000000000061,41.803576874487269777
0.226000000000000062,41.217098893669842141
0.227000000000000063,40.632214884637839702
0.228000000000000064,40.048975014149810647
0.229000000000000065,39.467469821929185514
0.230000000000000066,38.887827022429377166
0.231000000000000066,38.310208083823738434
0.232000000000000067,37.734804645701082393
0.233000000000000068,37.161834833347903384
0.234000000000000069,36.591539522345094326
0.235000000000000070,36.024178602659425508
0.236000000000000071,35.460027286607868291
0.237000000000000072,34.899372500140636078
0.238000000000000073,34.342509391929716855
0.239000000000000073,33.789737989856277522
0.240000000000000074,33.241360029730941505
0.241000000000000075,32.697675976521203722
0.242000000000000076,32.158982254040971327
0.243000000000000077,31.625568695018351661
0.244000000000000078,31.097716219719917063
0.245000000000000079,30.575694747892704584
0.246000000000000080,30.059761345694159473
0.247000000000000081,29.550158606518579063
0.248000000000000081,29.047113262191999183
0.249000000000000082,28.550835018887937622
0.250000000000000111,28.061515610300780565
0.251000000000000112,27.579328059089029068
0.252000000000000113,27.104426136347871790
0.253000000000000114,26.636944007873381679
0.254000000000000115,26.176996055217806258
0.255000000000000115,25.724676858987702843
0.256000000000000116,25.280061331484123599
0.257000000000000117,24.843204985605773061
0.258000000000000118,24.414144326914545502
0.259000000000000119,23.992897355876223742
0.260000000000000120,23.579464167522331763
0.261000000000000121,23.173827636113717432
0.262000000000000122,22.775954172806031295
0.263000000000000123,22.385794544808579332
0.264000000000000123,22.003284745075216478
0.265000000000000124,21.628346902158696707
0.266000000000000125,21.260890220484846225
0.267000000000000126,20.900811941951168649
0.268000000000000127,20.547998320415786111
0.269000000000000128,20.202325601310086256
0.270000000000000129,19.863660999273534458
0.271000000000000130,19.531863667366373249
0.272000000000000131,19.206785652060609948
0.273000000000000131,18.888272828835695805
0.274000000000000132,18.576165813810650462
0.275000000000000133,18.270300847424774560
0.276000000000000134,17.970510646732620330
0.277000000000000135,17.676625223404027309
0.278000000000000136,17.388472665014290897
0.279000000000000137,17.105879877673590528
0.280000000000000138,16.828673288476998948
0.281000000000000139,16.556679506656927003
0.282000000000000139,16.289725942689290861
0.283000000000000140,16.027641384942867830
0.284000000000000141,15.770256533769472895
0.285000000000000142,15.517404493211007122
0.286000000000000143,15.268921220749771095
0.287000000000000144,15.024645935751399506
0.288000000000000145,14.784421487446332222
0.289000000000000146,14.548094683468576704
0.290000000000000147,14.315516580118559986
0.291000000000000147,14.086542735644400182
0.292000000000000148,13.861033427941714891
0.293000000000000149,13.638853838159693765
0.294000000000000150,13.419874201770188193
0.295000000000000151,13.203969928709957671
0.296000000000000152,12.991021694243865880
0.297000000000000153,12.780915502221573021
0.298000000000000154,12.573542722411692907
0.299000000000000155,12.368800103598200479
0.300000000000000155,12.166589764114327465
0.301000000000000156,11.966819161470734656
0.302000000000000157,11.769401042708079075
0.303000000000000158,11.574253377071039850
0.304000000000000159,11.381299272560969627
0.305000000000000160,11.190466877880052010
0.306000000000000161,11.001689271230457479
0.307000000000000162,10.814904337379518395
0.308000000000000163,10.630054634346098652
0.309000000000000163,10.447087251005516606
0.310000000000000164,10.265953656850440368
0.311000000000000165,10.086609545084314732
0.312000000000000166,9.909014670162095584
0.313000000000000167,9.733132680831056760
0.314000000000000168,9.558930949662459042
0.315000000000000169,9.386380400003261570
0.316000000000000170,9.215455331216219292
0.317000000000000171,9.046133243016884151
0.318000000000000171,8.878394659657445231
0.319000000000000172,8.712222954649851303
0.320000000000000173,8.547604176665441145
0.321000000000000174,8.384526877194101502
0.322000000000000175,8.222981940494056730
0.323000000000000176,8.062962416313379066
0.324000000000000177,7.904463355816162107
0.325000000000000178,7.747481651100419420
0.326000000000000179,7.592015878650860472
0.327000000000000179,7.438066147028173702
0.328000000000000180,7.285633949056614433
0.329000000000000181,7.134722018734689364
0.330000000000000182,6.985334193058140961
0.331000000000000183,6.837475278911490761
0.332000000000000184,6.691150925153218409
0.333000000000000185,6.546367499990769723
0.334000000000000186,6.403131973714347502
0.335000000000000187,6.261451806833427725
0.336000000000000187,6.121334843636584644
0.337000000000000188,5.982789211174038613
0.338000000000000189,5.845823223642208077
0.339000000000000190,5.710445292131877792
0.340000000000000191,5.576663839685052082
0.341000000000000192,5.444487221590686765
0.342000000000000193,5.313923650836027690
0.343000000000000194,5.184981128618324497
0.344000000000000195,5.057667379811111807
0.345000000000000195,4.931989793269427658
0.346000000000000196,4.807955366850583445
0.347000000000000197,4.685570657019510143
0.348000000000000198,4.564841732901922633
0.349000000000000199,4.445774134643221132
0.350000000000000200,4.328372835926987072
0.351000000000000201,4.212642210503484641
0.352000000000000202,4.098586002576153575
0.353000000000000203,3.986207300892156802
0.354000000000000203,3.875508516381965585
0.355000000000000204,3.766491363192543851
0.356000000000000205,3.659156842958682265
0.357000000000000206,3.553505232157589511
0.358000000000000207,3.449536072393199593
0.359000000000000208,3.347248163457925862
0.360000000000000209,3.246639559021535781
0.361000000000000210,3.147707564799385516
0.362000000000000210,3.050448739054451686
0.363000000000000211,2.954858895290812804
0.364000000000000212,2.860933106999163922
0.365000000000000213,2.768665714318408355
0.366000000000000214,2.678050332480826690
0.367000000000000215,2.589079861912105152
0.368000000000000216,2.501746499861176254
0.369000000000000217,2.416041753439022166
0.370000000000000218,2.331956453949258989
0.371000000000000218,2.249480772397816963
0.372000000000000219,2.168604236072785962
0.373000000000000220,2.089315746089874359
0.374000000000000221,2.011603595803101108
0.375000000000000222,1.935455489984504895
0.376000000000000223,1.860858564680604843
0.377000000000000224,1.787799407657876483
0.378000000000000225,1.716264079353235772
0.379000000000000226,1.646238134249798701
0.380000000000000226,1.577706642601963249
0.381000000000000227,1.510654212438047095
0.382000000000000228,1.445065011772263652
0.383000000000000229,1.380922790961822244
0.384000000000000230,1.318210905148494039
0.385000000000000231,1.256912336727554536
0.386000000000000232,1.197009717790666672
0.387000000000000233,1.138485352492398350
0.388000000000000234,1.081321239293701941
0.389000000000000234,1.025499093038563014
0.390000000000000235,0.971000366823297489
0.391000000000000236,0.917806273620959678
0.392000000000000237,0.865897807626109239
0.393000000000000238,0.815255765288015910
0.394000000000000239,0.765860766003110482
0.395000000000000240,0.717693272439894225
0.396000000000000241,0.670733610472129760
0.397000000000000242,0.624961988698429227
0.398000000000000242,0.580358517528540618
0.399000000000000243,0.536903227818945061
0.400000000000000244,0.494576089042205347
0.401000000000000245,0.453357026976620614
0.402000000000000246,0.413225940904618116
0.403000000000000247,0.374162720309834107
0.404000000000000248,0.336147261064800751
0.405000000000000249,0.299159481102517610
0.406000000000000250,0.263179335566798067
0.407000000000000250,0.228186831437593607
0.408000000000000251,0.194162041628861470
0.409000000000000252,0.161085118557831752
0.410000000000000253,0.128936307185548493
0.411000000000000254,0.097695957529824004
0.412000000000000255,0.067344536652649362
0.413000000000000256,0.037862640125009686
0.414000000000000257,0.009231002973121072
0.415000000000000258,-0.018569489889348034
0.416000000000000258,-0.045557793737489582
0.417000000000000259,-0.071752694613757662
0.418000000000000260,-0.097172800402087131
0.419000000000000261,-0.121836532390268454
0.420000000000000262,-0.145762117312565220
0.421000000000000263,-0.168967579864357564
0.422000000000000264,-0.191470735679845572
0.423000000000000265,-0.213289184763761075
0.424000000000000266,-0.234440305367531826
0.425000000000000266,-0.254941248299990153
0.426000000000000267,-0.274808931662674449
0.427000000000000268,-0.294060035999281766
0.428000000000000269,-0.312710999848821558
0.429000000000000270,-0.330778015691839067
0.430000000000000271,-0.348277026278807800
0.431000000000000272,-0.365223721329938134
0.432000000000000273,-0.381633534595316348
0.433000000000000274,-0.397521641264436287
0.434000000000000274,-0.412902955714090303
0.435000000000000275,-0.427792129583548841
0.436000000000000276,-0.442203550166084203
0.437000000000000277,-0.456151339105823783
0.438000000000000278,-0.469649351389041070
0.439000000000000279,-0.482711174619103622
0.440000000000000280,-0.495350128564269188
0.441000000000000281,-0.507579264967743748
0.442000000000000282,-0.519411367609534436
0.443000000000000282,-0.530858952609617463
0.444000000000000283,-0.541934268962320220
0.445000000000000284,-0.552649299291723572
0.446000000000000285,-0.563015760818229127
0.447000000000000286,-0.573045106526586800
0.448000000000000287,-0.582748526525688759
0.449000000000000288,-0.592136949590905237
0.450000000000000289,-0.601221044879646005
0.451000000000000290,-0.610011223811204095
0.452000000000000290,-0.618517642102124343
0.453000000000000291,-0.626750201948395258
0.454000000000000292,-0.634718554346200059
0.455000000000000293,-0.642432101542958378
0.456000000000000294,-0.649899999610726420
0.457000000000000295,-0.657131161134221875
0.458000000000000296,-0.664134258005868672
0.459000000000000297,-0.670917724320596820
0.460000000000000298,-0.677489759363233413
0.461000000000000298,-0.683858330681615612
0.462000000000000299,-0.690031177238710325
0.463000000000000300,-0.696015812637251652
0.464000000000000301,-0.701819528410672411
0.465000000000000302,-0.707449397374216304
0.466000000000000303,-0.712912277030374075
0.467000000000000304,-0.718214813023063559
0.468000000000000305,-0.723363442634988640
0.469000000000000306,-0.728364398323003259
0.470000000000000306,-0.733223711286444479
0.471000000000000307,-0.737947215063462059
0.472000000000000308,-0.742540549150786822
0.473000000000000309,-0.747009162642399693
0.474000000000000310,-0.751358317882788618
0.475000000000000311,-0.755593094130693532
0.476000000000000312,-0.759718391229382783
0.477000000000000313,-0.763738933279697774
0.478000000000000314,-0.767659272312223417
0.479000000000000314,-0.771483791955210552
0.480000000000000315,-0.775216711094894650
0.481000000000000316,-0.778862087525162061
0.482000000000000317,-0.782423821583534851
0.483000000000000318,-0.785905659770705589
0.484000000000000319,-0.789311198350926224
0.485000000000000320,-0.792643886930707309
0.486000000000000321,-0.795907032013484228
0.487000000000000322,-0.799103800527952046
0.488000000000000322,-0.802237223327921356
0.489000000000000323,-0.805310198661784660
0.490000000000000324,-0.808325495609616085
0.491000000000000325,-0.811285757486198689
0.492000000000000326,-0.814193505208315016
0.493000000000000327,-0.817051140624800554
0.494000000000000328,-0.819860949807880046
0.495000000000000329,-0.822625106304533338
0.496000000000000330,-0.825345674346582014
0.497000000000000330,-0.828024612018511519
0.498000000000000331,-0.830663774381806497
0.499000000000000332,-0.833264916555055857
0.500000000000000333,-0.835829696748864093
0.501000000000000334,-0.838359679254782941
0.502000000000000335,-0.840856337387674069
0.503000000000000336,-0.843321056380782919
0.504000000000000337,-0.845755136233072746
0.505000000000000338,-0.848159794508285048
0.506000000000000338,-0.850536169085382432
0.507000000000000339,-0.852885320860003793
0.508000000000000340,-0.855208236396664878
0.509000000000000341,-0.857505830531548385
0.510000000000000342,-0.859778948925617903
0.511000000000000343,-0.862028370568098223
0.512000000000000344,-0.864254810230138171
0.513000000000000345,-0.866458920868756310
0.514000000000000346,-0.868641295981086969
0.515000000000000346,-0.870802471909002174
0.516000000000000347,-0.872942930094260938
0.517000000000000348,-0.875063099284391632
0.518000000000000349,-0.877163357689459411
0.519000000000000350,-0.879244035090049225
0.520000000000000351,-0.881305414896647710
0.521000000000000352,-0.883347736160882357
0.522000000000000353,-0.885371195538800171
0.523000000000000353,-0.887375949206706371
0.524000000000000354,-0.889362114729888242
0.525000000000000355,-0.891329772884668414
0.526000000000000356,-0.893278969434234904
0.527000000000000357,-0.895209716858751725
0.528000000000000358,-0.897121996040191272
0.529000000000000359,-0.899015757902469126
0.530000000000000360,-0.900890925007318599
0.531000000000000361,-0.902747393106553830
0.532000000000000361,-0.904585032651209708
0.533000000000000362,-0.906403690258165917
0.534000000000000363,-0.908203190134810101
0.535000000000000364,-0.909983335462400178
0.536000000000000365,-0.911743909738649050
0.537000000000000366,-0.913484678080234369
0.538000000000000367,-0.915205388485764049
0.539000000000000368,-0.916905773059942142
0.540000000000000369,-0.918585549199457008
0.541000000000000369,-0.920244420741336278
0.542000000000000370,-0.921882079074312855
0.543000000000000371,-0.923498204213961338
0.544000000000000372,-0.925092465842161760
0.545000000000000373,-0.926664524311616722
0.546000000000000374,-0.928214031616028890
0.547000000000000375,-0.929740632326615524
0.548000000000000376,-0.931243964495626741
0.549000000000000377,-0.932723660527492671
0.550000000000000377,-0.934179348018303712
0.551000000000000378,-0.935610650564196789
0.552000000000000379,-0.937017188539400636
0.553000000000000380,-0.938398579844486491
0.554000000000000381,-0.939754440625528153
0.555000000000000382,-0.941084385964826575
0.556000000000000383,-0.942388030543739874
0.557000000000000384,-0.943664989278392929
0.558000000000000385,-0.944914877928747066
0.559000000000000385,-0.946137313681757020
0.560000000000000386,-0.947331915709190175
0.561000000000000387,-0.948498305700709032
0.562000000000000388,-0.949636108372819643
0.563000000000000389,-0.950744951954336059
0.564000000000000390,-0.951824468648866606
0.565000000000000391,-0.952874295074969901
0.566000000000000392,-0.953894072684524419
0.567000000000000393,-0.954883448159918657
0.568000000000000393,-0.955842073790556968
0.569000000000000394,-0.956769607829303204
0.570000000000000395,-0.957665714829382564
0.571000000000000396,-0.958530065962250211
0.572000000000000397,-0.959362339317030743
0.573000000000000398,-0.960162220181959292
0.574000000000000399,-0.960929401308425191
0.575000000000000400,-0.961663583158064106
0.576000000000000401,-0.962364474133404868
0.577000000000000401,-0.963031790792623688
0.578000000000000402,-0.963665258048786555
0.579000000000000403,-0.964264609354113844
0.580000000000000404,-0.964829586869764499
0.581000000000000405,-0.965359941621482198
0.582000000000000406,-0.965855433641696237
0.583000000000000407,-0.966315832098386784
0.584000000000000408,-0.966740915411235746
0.585000000000000409,-0.967130471355442389
0.586000000000000409,-0.967484297153614614
0.587000000000000410,-0.967802199556197396
0.588000000000000411,-0.968083994910727386
0.589000000000000412,-0.968329509220451023
0.590000000000000413,-0.968538578192534194
0.591000000000000414,-0.968711047276353932
0.592000000000000415,-0.968846771692186470
0.593000000000000416,-0.968945616450633929
0.594000000000000417,-0.969007456363176978
0.595000000000000417,-0.969032176044199445
0.596000000000000418,-0.969019669904736758
0.597000000000000419,-0.968969842138410309
0.598000000000000420,-0.968882606699718041
0.599000000000000421,-0.968757887275119023
0.600000000000000422,-0.968595617247140717
0.601000000000000423,-0.968395739651797927
0.602000000000000424,-0.968158207129686366
0.603000000000000425,-0.967882981870960890
0.604000000000000425,-0.967570035554473962
0.605000000000000426,-0.967219349281399965
0.606000000000000427,-0.966830913503567757
0.607000000000000428,-0.966404727946697184
0.608000000000000429,-0.965940801528949899
0.609000000000000430,-0.965439152274816137
0.610000000000000431,-0.964899807224780637
0.611000000000000432,-0.964322802340842222
0.612000000000000433,-0.963708182408176683
0.613000000000000433,-0.963056000933164347
0.614000000000000434,-0.962366320037966405
0.615000000000000435,-0.961639210351845741
