# hydroxyapatite-001-ph5_GLN-AC
# h[nm],U(h)[kJ/mol]
0.149999999999999994,143.102701849117380561
0.150999999999999995,140.172687065020966202
0.151999999999999996,137.974702806674542899
0.152999999999999997,135.952072655799781842
0.153999999999999998,133.905758155860951319
0.154999999999999999,131.802378764126643773
0.156000000000000000,129.671518211225901496
0.157000000000000001,127.555214420039646939
0.158000000000000002,125.486640767610651892
0.159000000000000002,123.484093526279963271
0.160000000000000003,121.552182386327629615
0.161000000000000004,119.685717647315101431
0.162000000000000005,117.873966785767720467
0.163000000000000006,116.104227400880148480
0.164000000000000007,114.364371821178337996
0.165000000000000008,112.644381995901738946
0.166000000000000009,110.937053727410031456
0.167000000000000010,109.238096321965983293
0.168000000000000010,107.545842338351050671
0.169000000000000011,105.860744955947396306
0.170000000000000012,104.184796031038644060
0.171000000000000013,102.520955816161944085
0.172000000000000014,100.872649938258376778
0.173000000000000015,99.243361878576891399
0.174000000000000016,97.636329552956382827
0.175000000000000017,96.054341571393152321
0.176000000000000018,94.499621016489356862
0.177000000000000018,92.973780795334121763
0.178000000000000019,91.477833618137054827
0.179000000000000020,90.012240478182306447
0.180000000000000021,88.576983404894306773
0.181000000000000022,87.171650684123818564
0.182000000000000023,85.795525301918999617
0.183000000000000024,84.447669817640900192
0.184000000000000025,83.127003058813528469
0.185000000000000026,81.832365877883816552
0.186000000000000026,80.562574696854156286
0.187000000000000027,79.316462700956847698
0.188000000000000028,78.092909359711967454
0.189000000000000029,76.890859496554497809
0.190000000000000030,75.709333444580494188
0.191000000000000031,74.547429963109507867
0.192000000000000032,73.404323591423903395
0.193000000000000033,72.279258020768139659
0.194000000000000034,71.171536906110617338
0.195000000000000034,70.080513341919683512
0.196000000000000035,69.005579012239138592
0.197000000000000036,67.946153810496724645
0.198000000000000037,66.901676520131076131
0.199000000000000038,65.871596960938205711
0.200000000000000039,64.855369842656159562
0.201000000000000040,63.852450428971600616
0.202000000000000041,62.862292002286814352
0.203000000000000042,61.884345031349745625
0.204000000000000042,60.918057878430815322
0.205000000000000043,59.962878837769927998
0.206000000000000044,59.018259269836867986
0.207000000000000045,58.083657583769685573
0.208000000000000046,57.158543820438538319
0.209000000000000047,56.242404598334339028
0.210000000000000048,55.334748201530700840
0.211000000000000049,54.435109611201440316
0.212000000000000050,53.543055307755267336
0.213000000000000050,52.658187698030147317
0.214000000000000051,51.780149049884222734
0.215000000000000052,50.908624843909628055
0.216000000000000053,50.043346478087059381
0.217000000000000054,49.184093285405161566
0.218000000000000055,48.330693846388768975
0.219000000000000056,47.483026597858511764
0.220000000000000057,46.641019755956008908
0.221000000000000058,45.804650585499167903
0.222000000000000058,44.973944059131447659
0.223000000000000059,44.148970958633057649
0.224000000000000060,43.329845477331701886
0.225000000000000061,42.516722386991617100
0.226000000000000062,41.709793835092682457
0.227000000000000063,40.909285839264171614
0.228000000000000064,40.115454545045551527
0.229000000000000065,39.328582311331388155
0.230000000000000066,38.548973685040188286
0.231000000000000066,37.776951322926016985
0.232000000000000067,37.012851914219581317
0.233000000000000068,36.257022153104955464
0.234000000000000069,35.509814805068167232
0.235000000000000070,34.771584906021139716
0.236000000000000071,34.042686127928632800
0.237000000000000072,33.323467339541579690
0.238000000000000073,32.614269385850782612
0.239000000000000073,31.915422105087401405
0.240000000000000074,31.227241597558794695
0.241000000000000075,30.550027756367768461
0.242000000000000076,29.884062066140312908
0.243000000000000077,29.229605672306757214
0.244000000000000078,28.586897720250494359
0.245000000000000079,27.956153960761177757
0.246000000000000080,27.337565615703248056
0.247000000000000081,26.731298495624525202
0.248000000000000081,26.137492359174366641
0.249000000000000082,25.556260502659103651
0.250000000000000111,24.987689566814765385
0.251000000000000112,24.431839546906694238
0.252000000000000113,23.888743991546927958
0.253000000000000114,23.358410375137030002
0.254000000000000115,22.840820628568014428
0.255000000000000115,22.335931812723583079
0.256000000000000116,21.843676919413518078
0.257000000000000117,21.363965784590842389
0.258000000000000118,20.896686099060605812
0.259000000000000119,20.441704502348589045
0.260000000000000120,19.998867745949866048
0.261000000000000121,19.568003912802023336
0.262000000000000122,19.148923680510886669
0.263000000000000123,18.741421616585132170
0.264000000000000123,18.345277494695764631
0.265000000000000124,17.960257621757641289
0.266000000000000125,17.586116166421572160
0.267000000000000126,17.222596480359051441
0.268000000000000127,16.869432404508422962
0.269000000000000128,16.526349553226232558
0.270000000000000129,16.193066570043093577
0.271000000000000130,15.869296349455430217
0.272000000000000131,15.554747219889971888
0.273000000000000131,15.249124083651528494
0.274000000000000132,14.952129510305931959
0.275000000000000133,14.663464780555548472
0.276000000000000134,14.382830878234404537
0.277000000000000135,14.109929428582066890
0.278000000000000136,13.844463581449861778
0.279000000000000137,13.586138838549809194
0.280000000000000138,13.334663824276614008
0.281000000000000139,13.089751000015761306
0.282000000000000139,12.851117322198444270
0.283000000000000140,12.618484844676489232
0.284000000000000141,12.391581266270454975
0.285000000000000142,12.170140424591108896
0.286000000000000143,11.953902737452132499
0.287000000000000144,11.742615593380209660
0.288000000000000145,11.536033692889770208
0.289000000000000146,11.333919342325890156
0.290000000000000147,11.136042702190286136
0.291000000000000147,10.942181991955852283
0.292000000000000148,10.752123653444026985
0.293000000000000149,10.565662474890379130
0.294000000000000150,10.382601677856845512
0.295000000000000151,10.202752969166738239
0.296000000000000152,10.025936560042184809
0.297000000000000153,9.851981154614062319
0.298000000000000154,9.680723909953812267
0.299000000000000155,9.512010369745290461
0.300000000000000155,9.345694373674936273
0.301000000000000156,9.181637944570807619
0.302000000000000157,9.019711155266138647
0.303000000000000158,8.859791977103254723
0.304000000000000159,8.701766111928085579
0.305000000000000160,8.545526809356838172
0.306000000000000161,8.390974671023974096
0.307000000000000162,8.238017443445956545
0.308000000000000163,8.086569801058995921
0.309000000000000163,7.936553120911329806
0.310000000000000164,7.787895250412407044
0.311000000000000165,7.640530269463170043
0.312000000000000166,7.494398248213518521
0.313000000000000167,7.349445001616014217
0.314000000000000168,7.205621841868591559
0.315000000000000169,7.062885329764322151
0.316000000000000170,6.921197025893131460
0.317000000000000171,6.780523242569167053
0.318000000000000171,6.640834797288303726
0.319000000000000172,6.502106768453214336
0.320000000000000173,6.364318254038979994
0.321000000000000174,6.227452133809940449
0.322000000000000175,6.091494835638960659
0.323000000000000176,5.956436106423195653
0.324000000000000177,5.822268788036139675
0.325000000000000178,5.688988598704041166
0.326000000000000179,5.556593920145577847
0.327000000000000179,5.425085590767485755
0.328000000000000180,5.294466705164884601
0.329000000000000181,5.164742420133921819
0.330000000000000182,5.035919767365770738
0.331000000000000183,4.908007472954664330
0.332000000000000184,4.781015783819168696
0.333000000000000185,4.654956301104392402
0.334000000000000186,4.529841820603699887
0.335000000000000187,4.405686180211814573
0.336000000000000187,4.282504114396185280
0.337000000000000188,4.160311115651191827
0.338000000000000189,4.039123302878595112
0.339000000000000190,3.918957296619099306
0.340000000000000191,3.799830101042829256
0.341000000000000192,3.681758992590972390
0.342000000000000193,3.564761415147337686
0.343000000000000194,3.448854881606149725
0.344000000000000195,3.334056881692048613
0.345000000000000195,3.220384795878277195
0.346000000000000196,3.107855815241611364
0.347000000000000197,2.996486867085166317
0.348000000000000198,2.886294546154799523
0.349000000000000199,2.777295051269953685
0.350000000000000200,2.669504127186101972
0.351000000000000201,2.562937011503164886
0.352000000000000202,2.457608386432357239
0.353000000000000203,2.353532335232600303
0.354000000000000203,2.250722303127295820
0.355000000000000204,2.149191062512451289
0.356000000000000205,2.048950682267927981
0.357000000000000206,1.950012500984765085
0.358000000000000207,1.852387103923796685
0.359000000000000208,1.756084303522641665
0.360000000000000209,1.661113123271040548
0.361000000000000210,1.567481784777707388
0.362000000000000210,1.475197697854956358
0.363000000000000211,1.384267453451303087
0.364000000000000212,1.294696819266004439
0.365000000000000213,1.206490737883667119
0.366000000000000214,1.119653327271388665
0.367000000000000215,1.034187883485356174
0.368000000000000216,0.950096885438258432
0.369000000000000217,0.867382001583912321
0.370000000000000218,0.786044098379782508
0.371000000000000218,0.706083250393349404
0.372000000000000219,0.627498751922788367
0.373000000000000220,0.550289130007405647
0.374000000000000221,0.474452158708199789
0.375000000000000222,0.399984874543752755
0.376000000000000223,0.326883592971189796
0.377000000000000224,0.255143925807205463
0.378000000000000225,0.184760799488416977
0.379000000000000226,0.115728474075258353
0.380000000000000226,0.048040562907942966
0.381000000000000227,-0.018309947172182817
0.382000000000000228,-0.083330675118477873
0.383000000000000229,-0.147029824570100054
0.384000000000000230,-0.209416162412255247
0.385000000000000231,-0.270498997075555525
0.386000000000000232,-0.330288156640152042
0.387000000000000233,-0.388793966806798064
0.388000000000000234,-0.446027228792836350
0.389000000000000234,-0.501999197207865011
0.390000000000000235,-0.556721557959962032
0.391000000000000236,-0.610206406240171084
0.392000000000000237,-0.662466224629540079
0.393000000000000238,-0.713513861369933222
0.394000000000000239,-0.763362508836646803
0.395000000000000240,-0.812025682248124214
0.396000000000000241,-0.859517198645075808
0.397000000000000242,-0.905851156168700378
0.398000000000000242,-0.951041913665174654
0.399000000000000243,-0.995104070640933314
0.400000000000000244,-1.038052447591155225
0.401000000000000245,-1.079902066721453613
0.402000000000000246,-1.120668133080588103
0.403000000000000247,-1.160366016120230936
0.404000000000000248,-1.199011231695598978
0.405000000000000249,-1.236619424519145749
0.406000000000000250,-1.273206351077623699
0.407000000000000250,-1.308787863021309672
0.408000000000000251,-1.343379891032579376
0.409000000000000252,-1.376998429179515870
0.410000000000000253,-1.409659519758985846
0.411000000000000254,-1.441379238632194193
0.412000000000000255,-1.472173681054565808
0.413000000000000256,-1.502058948000775107
0.414000000000000257,-1.531051132984442509
0.415000000000000258,-1.559166309371341264
0.416000000000000258,-1.586420518183716322
0.417000000000000259,-1.612829756392761826
0.418000000000000260,-1.638409965695281745
0.419000000000000261,-1.663177021770002595
0.420000000000000262,-1.687146724008167453
0.421000000000000263,-1.710334785712653627
0.422000000000000264,-1.732756824759000169
0.423000000000000265,-1.754428354711509375
0.424000000000000266,-1.775364776386969323
0.425000000000000266,-1.795581369858070264
0.426000000000000267,-1.815093286888415536
0.427000000000000268,-1.833915543790492819
0.428000000000000269,-1.852063014697781451
0.429000000000000270,-1.869550425241926161
0.430000000000000271,-1.886392346625586303
0.431000000000000272,-1.902603190081536111
0.432000000000000273,-1.918197201708252253
0.433000000000000274,-1.933188457672277094
0.434000000000000274,-1.947590859767409865
0.435000000000000275,-1.961418131320748159
0.436000000000000276,-1.974683813435599733
0.437000000000000277,-1.987401261561172472
0.438000000000000278,-1.999583642378994996
0.439000000000000279,-2.011243930996049034
0.440000000000000280,-2.022394908434573146
0.441000000000000281,-2.033049159408543805
0.442000000000000282,-2.043219070377066959
0.443000000000000282,-2.052916827864650795
0.444000000000000283,-2.062154417038844390
0.445000000000000284,-2.070943620535468987
0.446000000000000285,-2.079296017521984563
0.447000000000000286,-2.087222982989670683
0.448000000000000287,-2.094735687265251389
0.449000000000000288,-2.101845095732996160
0.450000000000000289,-2.108561968758256189
0.451000000000000290,-2.114896861803666983
0.452000000000000290,-2.120860125729458368
0.453000000000000291,-2.126461907269303175
0.454000000000000292,-2.131712149673525403
0.455000000000000293,-2.136620593511511235
0.456000000000000294,-2.141196777625414605
0.457000000000000295,-2.145450040227462107
0.458000000000000296,-2.149389520133227816
0.459000000000000297,-2.153024158123612253
0.460000000000000298,-2.156362698428289981
0.461000000000000298,-2.159413690323690016
0.462000000000000299,-2.162185489838718500
0.463000000000000300,-2.164686261561568514
0.464000000000000301,-2.166923980541352712
0.465000000000000302,-2.168906434278200734
0.466000000000000303,-2.170641224795869739
0.467000000000000304,-2.172135770791070897
0.468000000000000305,-2.173397309853777326
0.469000000000000306,-2.174432900753106690
0.470000000000000306,-2.175249425783557733
0.471000000000000307,-2.175853593166348965
0.472000000000000308,-2.176251939501100630
0.473000000000000309,-2.176450832263068236
0.474000000000000310,-2.176456472341298021
0.475000000000000311,-2.176274896613414889
0.476000000000000312,-2.175911980552734715
0.477000000000000313,-2.175373440863705099
0.478000000000000314,-2.174664838141684875
0.479000000000000314,-2.173791579553449260
0.480000000000000315,-2.172758921534696519
0.481000000000000316,-2.171571972501252112
0.482000000000000317,-2.170235695570575718
0.483000000000000318,-2.168754911290531773
0.484000000000000319,-2.167134300372342004
0.485000000000000320,-2.165378406424918190
0.486000000000000321,-2.163491638687847995
0.487000000000000322,-2.161478274760433749
0.488000000000000322,-2.159342463324265715
0.489000000000000323,-2.157088226857134305
0.490000000000000324,-2.154719464335921764
0.491000000000000325,-2.152239953926452287
0.492000000000000326,-2.149653355658271980
0.493000000000000327,-2.146963214082556970
0.494000000000000328,-2.144172960911284953
0.495000000000000329,-2.141285917636113645
0.496000000000000330,-2.138305298125286136
0.497000000000000330,-2.135234211197270859
0.498000000000000331,-2.132075663169532120
0.499000000000000332,-2.128832560381405781
0.500000000000000333,-2.125507711689732293
0.501000000000000334,-2.122103830936141300
0.502000000000000335,-2.118623539385075638
0.503000000000000336,-2.115069368131505811
0.504000000000000337,-2.111443760477523579
0.505000000000000338,-2.107749074277003309
0.506000000000000338,-2.103987584247605014
0.507000000000000339,-2.100161484249488009
0.508000000000000340,-2.096272889530091721
0.509000000000000341,-2.092323838934553315
0.510000000000000342,-2.088316297081168837
0.511000000000000343,-2.084252156501613218
0.512000000000000344,-2.080133239745451057
0.513000000000000345,-2.075961301448718377
0.514000000000000346,-2.071738030366309768
0.515000000000000346,-2.067465051367918694
0.516000000000000347,-2.063143927397408817
0.517000000000000348,-2.058776161395543092
0.518000000000000349,-2.054363198185887196
0.519000000000000350,-2.049906426323988562
0.520000000000000351,-2.045407179909700890
0.521000000000000352,-2.040866740362839771
0.522000000000000353,-2.036286338162085041
0.523000000000000353,-2.031667154547377230
0.524000000000000354,-2.027010323185865825
0.525000000000000355,-2.022316931801597661
0.526000000000000356,-2.017588023769117278
0.527000000000000357,-2.012824599671255044
0.528000000000000358,-2.008027618821269122
0.529000000000000359,-2.003198000749689012
0.530000000000000360,-1.998336626656045611
0.531000000000000361,-1.993444340825911265
0.532000000000000361,-1.988521952013482252
0.533000000000000362,-1.983570234790091202
0.534000000000000363,-1.978589930858994705
0.535000000000000364,-1.973581750336824481
0.536000000000000365,-1.968546373002053373
0.537000000000000366,-1.963484449510940477
0.538000000000000367,-1.958396602581262913
0.539000000000000368,-1.953283428144408473
0.540000000000000369,-1.948145496466088700
0.541000000000000369,-1.942983353236277466
0.542000000000000370,-1.937797520628672387
0.543000000000000371,-1.932588498330267468
0.544000000000000372,-1.927356764541402923
0.545000000000000373,-1.922102776946832181
0.546000000000000374,-1.916826973658213307
0.547000000000000375,-1.911529774128544634
0.548000000000000376,-1.906211580039025577
0.549000000000000377,-1.900872776158793354
0.550000000000000377,-1.895513731178068983
0.551000000000000378,-1.890134798515126224
0.552000000000000379,-1.884736317097674529
0.553000000000000380,-1.879318612119041276
0.554000000000000381,-1.873881995769688613
0.555000000000000382,-1.868426767944599387
0.556000000000000383,-1.862953216926890976
0.557000000000000384,-1.857461620048305617
0.558000000000000385,-1.851952244326904751
0.559000000000000385,-1.846425347082567558
0.560000000000000386,-1.840881176530714480
0.561000000000000387,-1.835319972354741314
0.562000000000000388,-1.829741966257624863
0.563000000000000389,-1.824147382493225722
0.564000000000000390,-1.818536438377667652
0.565000000000000391,-1.812909344781334253
0.566000000000000392,-1.807266306601877259
0.567000000000000393,-1.801607523218769602
0.568000000000000393,-1.795933188929741409
0.569000000000000394,-1.790243493369640060
0.570000000000000395,-1.784538621912133305
0.571000000000000396,-1.778818756054610706
0.572000000000000397,-1.773084073786850068
0.573000000000000398,-1.767334749943740402
0.574000000000000399,-1.761570956542561905
0.575000000000000400,-1.755792863105192669
0.576000000000000401,-1.750000636965651113
0.577000000000000401,-1.744194443563433783
0.578000000000000402,-1.738374446722930289
0.579000000000000403,-1.732540808919387221
0.580000000000000404,-1.726693691531818953
0.581000000000000405,-1.720833255083134672
0.582000000000000406,-1.714959659467984565
0.583000000000000407,-1.709073064168563860
0.584000000000000408,-1.703173628458839683
0.585000000000000409,-1.697261511597474737
0.586000000000000409,-1.691336873009800623
0.587000000000000410,-1.685399872459258486
0.588000000000000411,-1.679450670208485263
0.589000000000000412,-1.673489427170558486
0.590000000000000413,-1.667516305050535497
0.591000000000000414,-1.661531466477732311
0.592000000000000415,-1.655535075129003886
0.593000000000000416,-1.649527295843287167
0.594000000000000417,-1.643508294727749286
0.595000000000000417,-1.637478239255863555
0.596000000000000418,-1.631437298357543142
0.597000000000000419,-1.625385642501826711
0.598000000000000420,-1.619323443772163085
0.599000000000000421,-1.613250875934749029
0.600000000000000422,-1.607168114500036493
0.601000000000000423,-1.601075336777727731
0.602000000000000424,-1.594972721925513426
0.603000000000000425,-1.588860450991752771
0.604000000000000425,-1.582738706952344421
0.605000000000000426,-1.576607674742027898
0.606000000000000427,-1.570467541280365920
0.607000000000000428,-1.564318495492486694
0.608000000000000429,-1.558160728325057143
0.609000000000000430,-1.551994432757377362
0.610000000000000431,-1.545819803808084147
0.611000000000000432,-1.539637038537459812
0.612000000000000433,-1.533446336045630964
0.613000000000000433,-1.527247897466835536
0.614000000000000434,-1.521041925959921270
