# hydroxyapatite-001-ph5_FORMICACID-AC
# h[nm],U(h)[kJ/mol]
0.149999999999999994,68.177495473509097224
0.150999999999999995,66.802577761634125864
0.151999999999999996,65.707534038309091784
0.152999999999999997,64.612387904163654184
0.153999999999999998,63.435666898514341483
0.154999999999999999,62.184303669155823968
0.156000000000000000,60.895039439313109142
0.157000000000000001,59.606067576541057917
0.158000000000000002,58.345642624572725765
0.159000000000000002,57.129576680893606522
0.160000000000000003,55.962872553050956981
0.161000000000000004,54.842832131409998908
0.162000000000000005,53.762256844433252922
0.163000000000000006,52.712113035608368250
0.164000000000000007,51.683460691322828495
0.165000000000000008,50.668665698412226561
0.166000000000000009,49.662015897319065516
0.167000000000000010,48.659892039965050969
0.168000000000000010,47.660639031956939959
0.169000000000000011,46.664260278817714322
0.170000000000000012,45.672029981376880414
0.171000000000000013,44.686091002223328417
0.172000000000000014,43.709082400894054388
0.173000000000000015,42.743821961164869094
0.174000000000000016,41.793055007101180820
0.175000000000000017,40.859270994937787691
0.176000000000000018,39.944583032623611984
0.177000000000000018,39.050661843635623427
0.178000000000000019,38.178714045682013989
0.179000000000000020,37.329494353754874680
0.180000000000000021,36.503341954375954970
0.181000000000000022,35.700232460419485392
0.182000000000000023,34.919838269479178905
0.183000000000000024,34.161591621743340852
0.184000000000000025,33.424746059721584857
0.185000000000000026,32.708433256051264948
0.186000000000000026,32.011713258047230113
0.187000000000000027,31.333617085726114482
0.188000000000000028,30.673181318271453222
0.189000000000000029,30.029474827698312112
0.190000000000000030,29.401618189220368293
0.191000000000000031,28.788796539418456177
0.192000000000000032,28.190266789809651726
0.193000000000000033,27.605360157473551652
0.194000000000000034,27.033480966379308086
0.195000000000000034,26.474102620607833813
0.196000000000000035,25.926761568556024429
0.197000000000000036,25.391049977446073171
0.198000000000000037,24.866607729485728839
0.199000000000000038,24.353114242006874690
0.200000000000000039,23.850280509068781498
0.201000000000000040,23.357841664933431503
0.202000000000000041,22.875550282762702636
0.203000000000000042,22.403170546054138157
0.204000000000000042,21.940473366123647736
0.205000000000000043,21.487232466158012301
0.206000000000000044,21.043221410373732283
0.207000000000000045,20.608211524727387598
0.208000000000000046,20.181970632355152873
0.209000000000000047,19.764262511325419780
0.210000000000000048,19.354846973209667738
0.211000000000000049,18.953480457288968353
0.212000000000000050,18.559917035864696544
0.213000000000000050,18.173909730174464983
0.214000000000000051,17.795212042971350286
0.215000000000000052,17.423579622163039460
0.216000000000000053,17.058771979390733975
0.217000000000000054,16.700554197524589028
0.218000000000000055,16.348698571329350671
0.219000000000000056,16.002986135666397161
0.220000000000000057,15.663208045279697345
0.221000000000000058,15.329166779269661092
0.222000000000000058,15.000677151650483765
0.223000000000000059,14.677567116831099270
0.224000000000000060,14.359678365409797252
0.225000000000000061,14.046866711318438448
0.226000000000000062,13.739002276110465317
0.227000000000000063,13.435969480092452955
0.228000000000000064,13.137666853105452347
0.229000000000000065,12.844006680129234965
0.230000000000000066,12.554914498581069893
0.231000000000000066,12.270328465280867292
0.232000000000000067,11.990198611630754399
0.233000000000000068,11.714486005680681657
0.234000000000000069,11.443161839492178800
0.235000000000000070,11.176206459635182000
0.236000000000000071,10.913608357819233774
0.237000000000000072,10.655363137625140979
0.238000000000000073,10.401472472118255652
0.239000000000000073,10.151943065833787472
0.240000000000000074,9.906785633266840918
0.241000000000000075,9.666013904611542529
0.242000000000000076,9.429643668101197918
0.243000000000000077,9.197691856931145438
0.244000000000000078,8.970175687417258459
0.245000000000000079,8.747111853771844636
0.246000000000000080,8.528515783678102480
0.247000000000000081,8.314400957722892116
0.248000000000000081,8.104778294712421172
0.249000000000000082,7.899655603950625604
0.250000000000000111,7.699037104706941470
0.251000000000000112,7.502923012339809183
0.252000000000000113,7.311309189872235770
0.253000000000000114,7.124186863235228095
0.254000000000000115,6.941542397898182060
0.255000000000000115,6.763357134190326470
0.256000000000000116,6.589607278277564539
0.257000000000000117,6.420263845490280730
0.258000000000000118,6.255292652494290451
0.259000000000000119,6.094654354653069817
0.260000000000000120,5.938304524839366216
0.261000000000000121,5.786193769913223761
0.262000000000000122,5.638267881084666477
0.263000000000000123,5.494468014419138235
0.264000000000000123,5.354730897815713320
0.265000000000000124,5.218989060888754139
0.266000000000000125,5.087171084307561486
0.267000000000000126,4.959201865292341083
0.268000000000000127,4.835002896123930860
0.269000000000000128,4.714492552696635030
0.270000000000000129,4.597586390324027050
0.271000000000000130,4.484197444194593984
0.272000000000000131,4.374236532064773364
0.273000000000000131,4.267612556968940929
0.274000000000000132,4.164232807917495727
0.275000000000000133,4.064003256743268011
0.276000000000000134,3.966828849441975446
0.277000000000000135,3.872613790532866140
0.278000000000000136,3.781261819139865477
0.279000000000000137,3.692676475660928936
0.280000000000000138,3.606761358053060640
0.281000000000000139,3.523420366911854451
0.282000000000000139,3.442557938667556439
0.283000000000000140,3.364079266353685593
0.284000000000000141,3.287890507529631634
0.285000000000000142,3.213898979054781169
0.286000000000000143,3.142013338519066057
0.287000000000000144,3.072143752233361447
0.288000000000000145,3.004202049772781713
0.289000000000000146,2.938101865147594971
0.290000000000000147,2.873758764749406946
0.291000000000000147,2.811090362285965316
0.292000000000000148,2.750016420975617049
0.293000000000000149,2.690458943323419838
0.294000000000000150,2.632342248844882882
0.295000000000000151,2.575593040140968348
0.296000000000000152,2.520140457759770136
0.297000000000000153,2.465916124306391399
0.298000000000000154,2.412854178283520667
0.299000000000000155,2.360891298161394314
0.300000000000000155,2.309966717187553087
0.301000000000000156,2.260022229454649256
0.302000000000000157,2.211002187748442704
0.303000000000000158,2.162853493698976060
0.304000000000000159,2.115525580755494239
0.305000000000000160,2.068970390500831869
0.306000000000000161,2.023142342813438965
0.307000000000000162,1.977998300375819696
0.308000000000000163,1.933497528016818290
0.309000000000000163,1.889601647362181946
0.310000000000000164,1.846274587253602606
0.311000000000000165,1.803482530380946525
0.312000000000000166,1.761193856555991699
0.313000000000000167,1.719379083038875766
0.314000000000000168,1.678010802310707872
0.315000000000000169,1.637063617667606108
0.316000000000000170,1.596514076992994635
0.317000000000000171,1.556340605046343084
0.318000000000000171,1.516523434587954355
0.319000000000000172,1.477044536640644834
0.320000000000000173,1.437887550170891426
0.321000000000000174,1.399037711453703148
0.322000000000000175,1.360481783367583519
0.323000000000000176,1.322207984848460693
0.324000000000000177,1.284205920714315496
0.325000000000000178,1.246466512055659503
0.326000000000000179,1.208981927370826881
0.327000000000000179,1.171745514609577210
0.328000000000000180,1.134751734273411250
0.329000000000000181,1.097996093706644860
0.330000000000000182,1.061475082698522421
0.331000000000000183,1.025186110503362835
0.332000000000000184,0.989127444373307796
0.333000000000000185,0.953298149686220286
0.334000000000000186,0.917698031739998199
0.335000000000000187,0.882327579273925133
0.336000000000000187,0.847187909767486147
0.337000000000000188,0.812280716557812310
0.338000000000000189,0.777608217807815194
0.339000000000000190,0.743173107348907847
0.340000000000000191,0.708978507414495418
0.341000000000000192,0.675027923273092467
0.342000000000000193,0.641325199763432052
0.343000000000000194,0.607874479727615991
0.344000000000000195,0.574680164332930787
0.345000000000000195,0.541746875267469674
0.346000000000000196,0.509079418790279847
0.347000000000000197,0.476682751612254652
0.348000000000000198,0.444561948580207478
0.349000000000000199,0.412722172133067555
0.350000000000000200,0.381168643496001880
0.351000000000000201,0.349906615575539370
0.352000000000000202,0.318941347516379370
0.353000000000000203,0.288278080878381082
0.354000000000000203,0.257922017390513014
0.355000000000000204,0.227878298236988824
0.356000000000000205,0.198151984829534694
0.357000000000000206,0.168748041018678074
0.358000000000000207,0.139671316696300396
0.359000000000000208,0.110926532740950698
0.360000000000000209,0.082518267257072342
0.361000000000000210,0.054450943059228173
0.362000000000000210,0.026728816352153649
0.363000000000000211,-0.000644033442209158
0.364000000000000212,-0.027663712759439751
0.365000000000000213,-0.054326521917368399
0.366000000000000214,-0.080628962138628996
0.367000000000000215,-0.106567741618156922
0.368000000000000216,-0.132139780682196534
0.369000000000000217,-0.157342216084377456
0.370000000000000218,-0.182172404483787520
0.371000000000000218,-0.206627925148853558
0.372000000000000219,-0.230706581929956661
0.373000000000000220,-0.254406404542657893
0.374000000000000221,-0.277725649202290259
0.375000000000000222,-0.300662798649538376
0.376000000000000223,-0.323216561605631003
0.377000000000000224,-0.345385871694366020
0.378000000000000225,-0.367169885867206391
0.379000000000000226,-0.388567982366336107
0.380000000000000226,-0.409579758259501769
0.381000000000000227,-0.430205026579069671
0.382000000000000228,-0.450443813096699397
0.383000000000000229,-0.470296352763697467
0.384000000000000230,-0.489763085845933088
0.385000000000000231,-0.508844653781111989
0.386000000000000232,-0.527541894784819609
0.387000000000000233,-0.545855839230814377
0.388000000000000234,-0.563787704829688541
0.389000000000000234,-0.581338891629078813
0.390000000000000235,-0.598510976857329124
0.391000000000000236,-0.615305709631566833
0.392000000000000237,-0.631725005549989893
0.393000000000000238,-0.647770941187201577
0.394000000000000239,-0.663445748510354205
0.395000000000000240,-0.678751809232944980
0.396000000000000241,-0.693691649122111897
0.397000000000000242,-0.708267932274351364
0.398000000000000242,-0.722483455373713834
0.399000000000000243,-0.736341141945614619
0.400000000000000244,-0.749844036618613763
0.401000000000000245,-0.762995299405665905
0.402000000000000246,-0.775798200015555772
0.403000000000000247,-0.788256112204519854
0.404000000000000248,-0.800372508177301767
0.405000000000000249,-0.812150953046189672
0.406000000000000250,-0.823595099355916682
0.407000000000000250,-0.834708681681695763
0.408000000000000251,-0.845495511306997072
0.409000000000000252,-0.855959470987120108
0.410000000000000253,-0.866104509804065614
0.411000000000000254,-0.875934638117624176
0.412000000000000255,-0.885453922617140621
0.413000000000000256,-0.894666481477947029
0.414000000000000257,-0.903576479625863072
0.415000000000000258,-0.912188124112952359
0.416000000000000258,-0.920505659607065096
0.417000000000000259,-0.928533363997487315
0.418000000000000260,-0.936275544118548964
0.419000000000000261,-0.943736531592740291
0.420000000000000262,-0.950920678794506147
0.421000000000000263,-0.957832354935656993
0.422000000000000264,-0.964475942272936981
0.423000000000000265,-0.970855832438112243
0.424000000000000266,-0.976976422890657226
0.425000000000000266,-0.982842113492813474
0.426000000000000267,-0.988457303206687676
0.427000000000000268,-0.993826386912746051
0.428000000000000269,-0.998953752348925250
0.429000000000000270,-1.003843777169378892
0.430000000000000271,-1.008500826121724092
0.431000000000000272,-1.012929248341502886
0.432000000000000273,-1.017133374762398734
0.433000000000000274,-1.021117515640691753
0.434000000000000274,-1.024885958192241819
0.435000000000000275,-1.028442964340237298
0.436000000000000276,-1.031792768571824892
0.437000000000000277,-1.034939575901668629
0.438000000000000278,-1.037887559940380733
0.439000000000000279,-1.040640861065756040
0.440000000000000280,-1.043203584694601282
0.441000000000000281,-1.045579799652974540
0.442000000000000282,-1.047773536642582881
0.443000000000000282,-1.049788786801002960
0.444000000000000283,-1.051629500353448154
0.445000000000000284,-1.053299585353705270
0.446000000000000285,-1.054802906511861593
0.447000000000000286,-1.056143284106506597
0.448000000000000287,-1.057324492978922503
0.449000000000000288,-1.058350261606982423
0.450000000000000289,-1.059224271256279826
0.451000000000000290,-1.059950155206167199
0.452000000000000290,-1.060531498048318033
0.453000000000000291,-1.060971835055435353
0.454000000000000292,-1.061274651617807319
0.455000000000000293,-1.061443382745351771
0.456000000000000294,-1.061481412632884425
0.457000000000000295,-1.061392074286326315
0.458000000000000296,-1.061178649207607627
0.459000000000000297,-1.060844367136069222
0.460000000000000298,-1.060392405844166275
0.461000000000000298,-1.059825890985340413
0.462000000000000299,-1.059147895991956911
0.463000000000000300,-1.058361442021207521
0.464000000000000301,-1.057469497946978310
0.465000000000000302,-1.056474980395671448
0.466000000000000303,-1.055380753824021189
0.467000000000000304,-1.054189630637007991
0.468000000000000305,-1.052904371343982515
0.469000000000000306,-1.051527684751177416
0.470000000000000306,-1.050062228188850977
0.471000000000000307,-1.048510607771244052
0.472000000000000308,-1.046875378687747382
0.473000000000000309,-1.045159045523559094
0.474000000000000310,-1.043364062608236331
0.475000000000000311,-1.041492834390591815
0.476000000000000312,-1.039547715838393449
0.477000000000000313,-1.037531012861402369
0.478000000000000314,-1.035444982756286825
0.479000000000000314,-1.033291834672066534
0.480000000000000315,-1.031073730094677732
0.481000000000000316,-1.028792783349411710
0.482000000000000317,-1.026451062119912772
0.483000000000000318,-1.024050587982537452
0.484000000000000319,-1.021593336954888187
0.485000000000000320,-1.019081240057370774
0.486000000000000321,-1.016516183886685853
0.487000000000000322,-1.013900011200185247
0.488000000000000322,-1.011234521510043560
0.489000000000000323,-1.008521471686317117
0.490000000000000324,-1.005762576567875710
0.491000000000000325,-1.002959509580341635
0.492000000000000326,-1.000113903360118739
0.493000000000000327,-0.997227350383718347
0.494000000000000328,-0.994301403601511757
0.495000000000000329,-0.991337577075210197
0.496000000000000330,-0.988337346618238910
0.497000000000000330,-0.985302150438405855
0.498000000000000331,-0.982233389782064981
0.499000000000000332,-0.979132429579237296
0.500000000000000333,-0.976000599089006160
0.501000000000000334,-0.972839192544601827
0.502000000000000335,-0.969649469797648988
0.503000000000000336,-0.966432656961005998
0.504000000000000337,-0.963189947049718276
0.505000000000000338,-0.959922500619579289
0.506000000000000338,-0.956631446402864460
0.507000000000000339,-0.953317881940802025
0.508000000000000340,-0.949982874212347839
0.509000000000000341,-0.946627460258941289
0.510000000000000342,-0.943252647804795452
0.511000000000000343,-0.939859415872463133
0.512000000000000344,-0.936448715393293440
0.513000000000000345,-0.933021469812517656
0.514000000000000346,-0.929578575688681297
0.515000000000000346,-0.926120903287137587
0.516000000000000347,-0.922649297167372318
0.517000000000000348,-0.919164576763958352
0.518000000000000349,-0.915667536960874884
0.519000000000000350,-0.912158948659058999
0.520000000000000351,-0.908639559336961278
0.521000000000000352,-0.905110093603993304
0.522000000000000353,-0.901571253746660917
0.523000000000000353,-0.898023720267302372
0.524000000000000354,-0.894468152415289097
0.525000000000000355,-0.890905188710567897
0.526000000000000356,-0.887335447459473570
0.527000000000000357,-0.883759527262718114
0.528000000000000358,-0.880178007515475591
0.529000000000000359,-0.876591448899523562
0.530000000000000360,-0.873000393867356173
0.531000000000000361,-0.869405367118266215
0.532000000000000361,-0.865806876066334552
0.533000000000000362,-0.862205411300317692
0.534000000000000363,-0.858601447035413634
0.535000000000000364,-0.854995441556908098
0.536000000000000365,-0.851387837655688040
0.537000000000000366,-0.847779063055653426
0.538000000000000367,-0.844169530833005943
0.539000000000000368,-0.840559639827495042
0.540000000000000369,-0.836949775045578548
0.541000000000000369,-0.833340308055608880
0.542000000000000370,-0.829731597375006791
0.543000000000000371,-0.826123988849540525
0.544000000000000372,-0.822517816024705417
0.545000000000000373,-0.818913400509300060
0.546000000000000374,-0.815311052331227692
0.547000000000000375,-0.811711070285598524
0.548000000000000376,-0.808113742275216373
0.549000000000000377,-0.804519345643487482
0.550000000000000377,-0.800928147499863963
0.551000000000000378,-0.797340405037857303
0.552000000000000379,-0.793756365845750822
0.553000000000000380,-0.790176268210051269
0.554000000000000381,-0.786600341411781256
0.555000000000000382,-0.783028806015728773
0.556000000000000383,-0.779461874152675649
0.557000000000000384,-0.775899749794783267
0.558000000000000385,-0.772342629024145855
0.559000000000000385,-0.768790700294669671
0.560000000000000386,-0.765244144687343475
0.561000000000000387,-0.761703136159003980
0.562000000000000388,-0.758167841784687990
0.563000000000000389,-0.754638421993696684
0.564000000000000390,-0.751115030799436090
0.565000000000000391,-0.747597816023160888
0.566000000000000392,-0.744086919511713574
0.567000000000000393,-0.740582477349370882
0.568000000000000393,-0.737084620063873652
0.569000000000000394,-0.733593472826770898
0.570000000000000395,-0.730109155648180019
0.571000000000000396,-0.726631783566025868
0.572000000000000397,-0.723161466829923882
0.573000000000000398,-0.719698311079751574
0.574000000000000399,-0.716242417519047714
0.575000000000000400,-0.712793883083322477
0.576000000000000401,-0.709352800603373357
0.577000000000000401,-0.705919258963747742
0.578000000000000402,-0.702493343256392011
0.579000000000000403,-0.699075134929623032
0.580000000000000404,-0.695664711932537871
0.581000000000000405,-0.692262148854899673
0.582000000000000406,-0.688867517062663581
0.583000000000000407,-0.685480884829188009
0.584000000000000408,-0.682102317462256913
0.585000000000000409,-0.678731877426996477
0.586000000000000409,-0.675369624464768448
0.587000000000000410,-0.672015615708166925
0.588000000000000411,-0.668669905792155239
0.589000000000000412,-0.665332546961499238
0.590000000000000413,-0.662003589174519513
0.591000000000000414,-0.658683080203300686
0.592000000000000415,-0.655371065730427804
0.593000000000000416,-0.652067589442317685
0.594000000000000417,-0.648772693119252120
0.595000000000000417,-0.645486416722211964
0.596000000000000418,-0.642208798476522680
0.597000000000000419,-0.638939874952495268
0.598000000000000420,-0.635679681143042852
0.599000000000000421,-0.632428250538425551
0.600000000000000422,-0.629185615198159187
0.601000000000000423,-0.625951805820165297
0.602000000000000424,-0.622726851807268722
0.603000000000000425,-0.619510781331081062
0.604000000000000425,-0.616303621393346268
0.605000000000000426,-0.613105397884842862
0.606000000000000427,-0.609916135641898838
0.607000000000000428,-0.606735858500550229
0.608000000000000429,-0.603564589348504543
0.609000000000000430,-0.600402350174848443
0.610000000000000431,-0.597249162117684751
0.611000000000000432,-0.594105045509674801
0.612000000000000433,-0.590970019921587819
0.613000000000000433,-0.587844104203917417
0.614000000000000434,-0.584727316526611474
0.615000000000000435,-0.581619674416976595
