# CNT15-NH2-14_CHL-AC
# h[nm],U(h)[kJ/mol]
0.200000000000000011,156.866825639515013791
0.201000000000000012,152.305941554206299315
0.202000000000000013,149.581122535771982029
0.203000000000000014,147.699646817681042421
0.204000000000000015,146.100299283623655811
0.205000000000000016,144.496248331156692757
0.206000000000000016,142.767777872193022404
0.207000000000000017,140.890657273626459300
0.208000000000000018,138.889664733125584917
0.209000000000000019,136.809592835427849877
0.210000000000000020,134.698174494860012373
0.211000000000000021,132.596940083225632634
0.212000000000000022,130.537181169346183651
0.213000000000000023,128.539052238074276602
0.214000000000000024,126.612465259567827047
0.215000000000000024,124.758881414494709361
0.216000000000000025,122.973424173776678003
0.217000000000000026,121.246962112715550575
0.218000000000000027,119.567963897272690588
0.219000000000000028,117.924031071194349352
0.220000000000000029,116.303081003772987856
0.221000000000000030,114.694193336664824301
0.222000000000000031,113.088156390308796517
0.223000000000000032,111.477761025689545704
0.224000000000000032,109.857892575259327828
0.225000000000000033,108.225469631260622805
0.226000000000000034,106.579273795642535561
0.227000000000000035,104.919708384235065068
0.228000000000000036,103.248517492761607173
0.229000000000000037,101.568490383818812006
0.230000000000000038,99.883170208204077767
0.231000000000000039,98.196580826888947513
0.232000000000000040,96.512981031814916832
0.233000000000000040,94.836651778796124290
0.234000000000000041,93.171719100932293145
0.235000000000000042,91.522013095527952942
0.236000000000000043,89.890961687743200059
0.237000000000000044,88.281516682376988570
0.238000000000000045,86.696108835892516709
0.239000000000000046,85.136628234678568106
0.240000000000000047,83.604426081336569609
0.241000000000000048,82.100334006274437115
0.242000000000000048,80.624697183987265703
0.243000000000000049,79.177417797812182698
0.244000000000000050,77.758005727455056899
0.245000000000000051,76.365633701233235797
0.246000000000000052,74.999194537167511498
0.247000000000000053,73.657358476605651276
0.248000000000000054,72.338628978393685998
0.249000000000000055,71.041395681927454575
0.250000000000000056,69.763983557992702345
0.251000000000000056,68.504697543872538290
0.252000000000000057,67.261862202402625144
0.253000000000000058,66.033856153595550609
0.254000000000000059,64.819141203295799869
0.255000000000000060,63.616286238007511145
0.256000000000000061,62.423986070980525653
0.257000000000000062,61.241075514584814243
0.258000000000000063,60.066539020814140315
0.259000000000000064,58.899516278329414831
0.260000000000000064,57.739304183594377662
0.261000000000000065,56.585355618050321880
0.262000000000000066,55.437275465414401765
0.263000000000000067,54.294814295359103085
0.264000000000000068,53.157860124094497678
0.265000000000000069,52.026428640563381123
0.266000000000000070,50.900652260681063410
0.267000000000000071,49.780768342689071915
0.268000000000000071,48.667106865435506791
0.269000000000000072,47.560077839232697272
0.270000000000000073,46.460158686698065367
0.271000000000000074,45.367881799320613823
0.272000000000000075,44.283822444936639329
0.273000000000000076,43.208587172249522723
0.274000000000000077,42.142802831283461273
0.275000000000000078,41.087106303427368914
0.276000000000000079,40.042135011630719532
0.277000000000000079,39.008518260417922363
0.278000000000000080,37.986869436708147418
0.279000000000000081,36.977779085922627189
0.280000000000000082,35.981808863471485438
0.281000000000000083,34.999486349335811042
0.282000000000000084,34.031300702993256380
0.283000000000000085,33.077699127241899646
0.284000000000000086,32.139084102426714651
0.285000000000000087,31.215811347024658318
0.286000000000000087,30.308188456353832407
0.287000000000000088,29.416474168201869333
0.288000000000000089,28.540878202279902354
0.289000000000000090,27.681561619470016922
0.290000000000000091,26.838637646722418140
0.291000000000000092,26.012172914052392514
0.292000000000000093,25.202189051281862930
0.293000000000000094,24.408664593860745384
0.294000000000000095,23.631537149199807857
0.295000000000000095,22.870705777362335454
0.296000000000000096,22.126033542625727080
0.297000000000000097,21.397350195262809791
0.298000000000000098,20.684454945852735364
0.299000000000000099,19.987119297454931655
0.300000000000000100,19.305089904026420555
0.301000000000000101,18.638091426488941238
0.302000000000000102,17.985829360830784651
0.303000000000000103,17.347992815523802790
0.304000000000000103,16.724257218335104369
0.305000000000000104,16.114286935288863134
0.306000000000000105,15.517737787078672795
0.307000000000000106,14.934259450631106603
0.308000000000000107,14.363497735769730212
0.309000000000000108,13.805096729023219382
0.310000000000000109,13.258700798554936995
0.311000000000000110,12.723956455970547808
0.312000000000000111,12.200514072378627617
0.313000000000000111,11.688029447548577977
0.314000000000000112,11.186165232327001107
0.315000000000000113,10.694592205648881134
0.316000000000000114,10.212990408516507301
0.317000000000000115,9.741050138225219257
0.318000000000000116,9.278472806897150704
0.319000000000000117,8.824971669050304612
0.320000000000000118,8.380272423487641120
0.321000000000000119,7.944113695246864282
0.322000000000000119,7.516247403715222042
0.323000000000000120,7.096439023291412518
0.324000000000000121,6.684467743175007470
0.325000000000000122,6.280126532993195454
0.326000000000000123,5.883222121038651053
0.327000000000000124,5.493574891899112522
0.328000000000000125,5.111018710215372352
0.329000000000000126,4.735400677215695353
0.330000000000000127,4.366580826545852112
0.331000000000000127,4.004431765752263672
0.332000000000000128,3.648838269584198990
0.333000000000000129,3.299696831065296099
0.334000000000000130,2.956915176049239147
0.335000000000000131,2.620411746721664770
0.336000000000000132,2.290115159246824739
0.337000000000000133,1.965963640482560448
0.338000000000000134,1.647904448406841027
0.339000000000000135,1.335893280615788159
0.340000000000000135,1.029893674966145589
0.341000000000000136,0.729876406151532597
0.342000000000000137,0.435818881718851414
0.343000000000000138,0.147704540753855973
0.344000000000000139,-0.134477741808211343
0.345000000000000140,-0.410734242555519935
0.346000000000000141,-0.681066966222879655
0.347000000000000142,-0.945474209380320785
0.348000000000000143,-1.203951109241594652
0.349000000000000143,-1.456490175876059556
0.350000000000000144,-1.703081806326349534
0.351000000000000145,-1.943714779341724874
0.352000000000000146,-2.178376729634395659
0.353000000000000147,-2.407054600751347806
0.354000000000000148,-2.629735075829242597
0.355000000000000149,-2.846404985663318232
0.356000000000000150,-3.057051693673743298
0.357000000000000151,-3.261663457494782481
0.358000000000000151,-3.460229767043186744
0.359000000000000152,-3.652741659043068356
0.360000000000000153,-3.839192008095776654
0.361000000000000154,-4.019575794483539077
0.362000000000000155,-4.193890348988602135
0.363000000000000156,-4.362135575091585338
0.364000000000000157,-4.524314148987331308
0.365000000000000158,-4.680431697923036261
0.366000000000000159,-4.830496957420931992
0.367000000000000159,-4.974521907999760906
0.368000000000000160,-5.112521892052438233
0.369000000000000161,-5.244515711575334471
0.370000000000000162,-5.370525707475712451
0.371000000000000163,-5.490577821209357445
0.372000000000000164,-5.604701639520793144
0.373000000000000165,-5.712930423073487418
0.374000000000000166,-5.815301119768493621
0.375000000000000167,-5.911854363555395508
0.376000000000000167,-6.002634459542983691
0.377000000000000168,-6.087689356214991854
0.378000000000000169,-6.167070605552143370
0.379000000000000170,-6.240833311854331100
0.380000000000000171,-6.309036070046641242
0.381000000000000172,-6.371740894240220499
0.382000000000000173,-6.429013137304579573
0.383000000000000174,-6.480921402191317959
0.384000000000000175,-6.527537445730883015
0.385000000000000175,-6.568936075604320024
0.386000000000000176,-6.605195041171493919
0.387000000000000177,-6.636394918814398913
0.388000000000000178,-6.662618992432453702
0.389000000000000179,-6.683953129702066676
0.390000000000000180,-6.700485654689524395
0.391000000000000181,-6.712307217381220603
0.392000000000000182,-6.719510660670697355
0.393000000000000183,-6.722190885317006703
0.394000000000000183,-6.720444713363899147
0.395000000000000184,-6.714370750484529360
0.396000000000000185,-6.704069247691447408
0.397000000000000186,-6.689641962827261423
0.398000000000000187,-6.671192022227073082
0.399000000000000188,-6.648823782920006309
0.400000000000000189,-6.622642695713528482
0.401000000000000190,-6.592755169481657518
0.402000000000000191,-6.559268436955534298
0.403000000000000191,-6.522290422292977397
0.404000000000000192,-6.481929610682667153
0.405000000000000193,-6.438294920217666473
0.406000000000000194,-6.391495576253439559
0.407000000000000195,-6.341640988446021865
0.408000000000000196,-6.288840630647419161
0.409000000000000197,-6.233203923817672631
0.410000000000000198,-6.174840122095782036
0.411000000000000199,-6.113858202154984767
0.412000000000000199,-6.050366755952729214
0.413000000000000200,-5.984473886970047118
0.414000000000000201,-5.916287110021334783
0.415000000000000202,-5.845913254701374129
0.416000000000000203,-5.773458372524094884
0.417000000000000204,-5.699027647794860485
0.418000000000000205,-5.622725312246891427
0.419000000000000206,-5.544654563461465457
0.420000000000000207,-5.464917487080962033
0.421000000000000207,-5.383614982814990846
0.422000000000000208,-5.300846694229766953
0.423000000000000209,-5.216710942303643961
0.424000000000000210,-5.131304662722970811
0.425000000000000211,-5.044723346885662707
0.426000000000000212,-4.957060986573169181
0.427000000000000213,-4.868410022244926694
0.428000000000000214,-4.778861294904287682
0.429000000000000214,-4.688504001479143035
0.430000000000000215,-4.597425653655998090
0.431000000000000216,-4.505712040102140215
0.432000000000000217,-4.413447192006088038
0.433000000000000218,-4.320713351863689766
0.434000000000000219,-4.227590945433726155
0.435000000000000220,-4.134158556784428562
0.436000000000000221,-4.040492906349762769
0.437000000000000222,-3.946668831912398812
0.438000000000000222,-3.852759272428693205
0.439000000000000223,-3.758835254609389942
0.440000000000000224,-3.664965882168813582
0.441000000000000225,-3.571218327654229086
0.442000000000000226,-3.477657826766906712
0.443000000000000227,-3.384347675085364049
0.444000000000000228,-3.291349227101831865
0.445000000000000229,-3.198721897482490473
0.446000000000000230,-3.106523164462526410
0.447000000000000230,-3.014808575287561521
0.448000000000000231,-2.923631753613334716
0.449000000000000232,-2.833044408776395517
0.450000000000000233,-2.743096346849683176
0.451000000000000234,-2.653835483397318562
0.452000000000000235,-2.565307857844776329
0.453000000000000236,-2.477557649381124882
0.454000000000000237,-2.390627194312067161
0.455000000000000238,-2.304557004783300833
0.456000000000000238,-2.219385788795745107
0.457000000000000239,-2.135150471435383057
0.458000000000000240,-2.051886217242452126
0.459000000000000241,-1.969626453645963782
0.460000000000000242,-1.888402895391915193
0.461000000000000243,-1.808245569894594285
0.462000000000000244,-1.729182843443020756
0.463000000000000245,-1.651241448195477357
0.464000000000000246,-1.574446509897986290
0.465000000000000246,-1.498821576263641875
0.466000000000000247,-1.424388645952014976
0.467000000000000248,-1.351168198089699235
0.468000000000000249,-1.279179222274986705
0.469000000000000250,-1.208439249011477257
0.470000000000000251,-1.138964380517469177
0.471000000000000252,-1.070769321859726286
0.472000000000000253,-1.003867412362344114
0.473000000000000254,-0.938270657242952888
0.474000000000000254,-0.873989759430715218
0.475000000000000255,-0.811034151522148639
0.476000000000000256,-0.749412027832701888
0.477000000000000257,-0.689130376503895414
0.478000000000000258,-0.630195011627345480
0.479000000000000259,-0.572610605349016311
0.480000000000000260,-0.516380719918513975
0.481000000000000261,-0.461507839649958562
0.482000000000000262,-0.407993402762729940
0.483000000000000262,-0.355837833071799836
0.484000000000000263,-0.305040571498978674
0.485000000000000264,-0.255600107378054886
0.486000000000000265,-0.207514009528121240
0.487000000000000266,-0.160778957070898038
0.488000000000000267,-0.115390769969344428
0.489000000000000268,-0.071344439266177062
0.490000000000000269,-0.028634157002130588
0.491000000000000270,0.012746654204587583
0.492000000000000270,0.052805311935358021
0.493000000000000271,0.091549845120793533
0.494000000000000272,0.128988965578148651
0.495000000000000273,0.165132039950452558
0.496000000000000274,0.199989062060050765
0.497000000000000275,0.233570625688488326
0.498000000000000276,0.265887897793263162
0.499000000000000277,0.296952592171318197
0.500000000000000222,0.326776943577973822
0.501000000000000334,0.355373682309100936
0.502000000000000224,0.382756009253512164
0.503000000000000336,0.408937571421707946
0.504000000000000226,0.433932437956109751
0.505000000000000338,0.457755076627464619
0.506000000000000227,0.480420330820902131
0.507000000000000339,0.501943397014907866
0.508000000000000229,0.522339802755328209
0.509000000000000341,0.541625385126221826
0.510000000000000231,0.559816269718407922
0.511000000000000343,0.576928850096374513
0.512000000000000233,0.592979767763214705
0.513000000000000345,0.607985892623052138
0.514000000000000234,0.621964303939588126
0.515000000000000346,0.634932271789368285
0.516000000000000236,0.646907239007352253
0.517000000000000348,0.657906803622361536
0.518000000000000238,0.667948701779396137
0.519000000000000350,0.677050791145418218
0.520000000000000240,0.685231034794921201
0.521000000000000352,0.692507485571079551
0.522000000000000242,0.698898270918255515
0.523000000000000353,0.704421578180979169
0.524000000000000243,0.709095640364577506
0.525000000000000355,0.712938722352074228
0.526000000000000245,0.715969107571976293
0.527000000000000357,0.718205085111181418
0.528000000000000247,0.719664937267114779
0.529000000000000359,0.720366927533017454
0.530000000000000249,0.720329289010041895
0.531000000000000361,0.719570213239787315
0.532000000000000250,0.718107839450682794
0.533000000000000362,0.715960244211471419
0.534000000000000252,0.713145431485101566
0.535000000000000364,0.709681323075902482
0.536000000000000254,0.705585749463255141
0.537000000000000366,0.700876441014529283
0.538000000000000256,0.695571019570203619
0.539000000000000368,0.689686990393938548
0.540000000000000258,0.683241734480382945
0.541000000000000369,0.676252501213406076
0.542000000000000259,0.668736401367492128
0.543000000000000371,0.660710400444940893
0.544000000000000261,0.652191312341588003
0.545000000000000373,0.643195793333679156
0.546000000000000263,0.633740336378671443
0.547000000000000375,0.623841265722561822
0.548000000000000265,0.613514731806562130
0.549000000000000377,0.602776706465834922
0.550000000000000266,0.591642978413129406
0.551000000000000378,0.580129149000095490
0.552000000000000268,0.568250628249275302
0.553000000000000380,0.556022631149586499
0.554000000000000270,0.543460174208401758
0.555000000000000382,0.530578072253261035
0.556000000000000272,0.517390935476307434
0.557000000000000384,0.503913166714758054
0.558000000000000274,0.490158958960525193
0.559000000000000385,0.476142293092528923
0.560000000000000275,0.461876935824997503
0.561000000000000387,0.447376437865319887
0.562000000000000277,0.432654132275147596
0.563000000000000389,0.417723133028252369
0.564000000000000279,0.402596333759132619
0.565000000000000391,0.387286406696096319
0.566000000000000281,0.371805801772917222
0.567000000000000393,0.356166745913012783
0.568000000000000282,0.340381242480442103
0.569000000000000394,0.324461070891856607
0.570000000000000284,0.308417786383957560
0.571000000000000396,0.292262719930690418
0.572000000000000286,0.276006978304964345
0.573000000000000398,0.259661444279452092
0.574000000000000288,0.243236776961304552
0.575000000000000400,0.226743412255545923
0.576000000000000290,0.210191563452350044
0.577000000000000401,0.193591221933010649
0.578000000000000291,0.176952157990032471
0.579000000000000403,0.160283921756469883
0.580000000000000293,0.143595844240017395
0.581000000000000405,0.126897038457231826
0.582000000000000295,0.110196400663631872
0.583000000000000407,0.093502611675189848
0.584000000000000297,0.076824138277244242
0.585000000000000409,0.060169234716438494
0.586000000000000298,0.043545944272028958
0.587000000000000410,0.026962100902292098
0.588000000000000300,0.010425330962567203
0.589000000000000412,-0.006056945009052040
0.590000000000000302,-0.022477510441763538
0.591000000000000414,-0.038829350821616961
0.592000000000000304,-0.055105651723707537
0.593000000000000416,-0.071299796790604525
0.594000000000000306,-0.087405365660119999
0.595000000000000417,-0.103416131845605344
0.596000000000000307,-0.119326060571798065
0.597000000000000419,-0.135129306569294505
0.598000000000000309,-0.150820211830458850
0.599000000000000421,-0.166393303329539222
0.600000000000000311,-0.181843290709831795
0.601000000000000423,-0.197165063940458352
0.602000000000000313,-0.212353690945261547
0.603000000000000425,-0.227404415206438226
0.604000000000000314,-0.242312653345176543
0.605000000000000426,-0.257073992681713770
0.606000000000000316,-0.271684188776972868
0.607000000000000428,-0.286139162958061577
0.608000000000000318,-0.300434999829638616
0.609000000000000430,-0.314567944773240460
0.610000000000000320,-0.328534401436472556
0.611000000000000432,-0.342330929214045510
0.612000000000000322,-0.355954240722338611
0.613000000000000433,-0.369401199269428104
0.614000000000000323,-0.382668816322108918
0.615000000000000435,-0.395754248971686484
0.616000000000000325,-0.408654797399947589
0.617000000000000437,-0.421367902346995837
0.618000000000000327,-0.433891142582278566
0.619000000000000439,-0.446222232380232231
0.620000000000000329,-0.458359019001895518
0.621000000000000441,-0.470299480183801855
0.622000000000000330,-0.482041721635270259
0.623000000000000442,-0.493583974545453164
0.624000000000000332,-0.504924593101035546
0.625000000000000444,-0.516062052015915596
0.626000000000000334,-0.526994944073668203
0.627000000000000446,-0.537721977683929486
0.628000000000000336,-0.548241974453544501
0.629000000000000448,-0.558553866773446983
0.630000000000000338,-0.568656695421997482
0.631000000000000449,-0.578549607185769199
0.632000000000000339,-0.588231852498317331
0.633000000000000451,-0.597702783097876722
0.634000000000000341,-0.606961849704464873
0.635000000000000453,-0.616008599717274175
0.636000000000000343,-0.624842674932663877
0.637000000000000455,-0.633463809283639878
0.638000000000000345,-0.641871826601108197
0.639000000000000457,-0.650066638397553187
0.640000000000000346,-0.658048241673566348
0.641000000000000458,-0.665816716747654302
0.642000000000000348,-0.673372225109758249
0.643000000000000460,-0.680715007298878128
0.644000000000000350,-0.687845380805075179
0.645000000000000462,-0.694763737996314523
0.646000000000000352,-0.701470544070277424
0.647000000000000464,-0.707966335031570027
0.648000000000000353,-0.714251715694465439
0.649000000000000465,-0.720327357711455507
0.650000000000000355,-0.726193997627775922
0.651000000000000467,-0.731852434962104836
0.652000000000000357,-0.737303530313593747
0.653000000000000469,-0.742548203495311698
0.654000000000000359,-0.747587431694289206
0.655000000000000471,-0.752422247658173449
0.656000000000000361,-0.757053737908641944
0.657000000000000473,-0.761483040981561610
0.658000000000000362,-0.765711345693989687
0.659000000000000474,-0.769739889437989766
0.660000000000000364,-0.773569956501281020
0.661000000000000476,-0.777202876414732735
0.662000000000000366,-0.780640022326629657
0.663000000000000478,-0.783882809403710690
0.664000000000000368,-0.786932693258890259
0.665000000000000480,-0.789791168405634347
