# CNT15-NH2-14_AMAN-AC
# h[nm],U(h)[kJ/mol]
0.149999999999999994,199.286408867402030864
0.150999999999999995,194.934955181405172198
0.151999999999999996,192.702069025011098802
0.152999999999999997,191.073339237495758880
0.153999999999999998,189.422460486180682437
0.154999999999999999,187.569374001416832698
0.156000000000000000,185.531175504077623373
0.157000000000000001,183.390037210993369854
0.158000000000000002,181.229791602783478766
0.159000000000000002,179.110943398063312770
0.160000000000000003,177.065698854873119217
0.161000000000000004,175.102191614672562991
0.162000000000000005,173.211859014853274630
0.163000000000000006,171.376848473429902242
0.164000000000000007,169.576063609173445457
0.165000000000000008,167.789431649533355539
0.166000000000000009,166.000476787105696985
0.167000000000000010,164.197507146784658971
0.168000000000000010,162.373786707503853677
0.169000000000000011,160.527043414331103577
0.170000000000000012,158.658606577355271838
0.171000000000000013,156.772396981740371302
0.172000000000000014,154.873926229456458259
0.173000000000000015,152.969404489806265701
0.174000000000000016,151.065010403353653601
0.175000000000000017,149.166343238944193672
0.176000000000000018,147.278054181421708790
0.177000000000000018,145.403638967671611226
0.178000000000000019,143.545366063151334401
0.179000000000000020,141.704311413134206532
0.180000000000000021,139.880471009148919848
0.181000000000000022,138.072924870676018827
0.182000000000000023,136.280029624370683905
0.183000000000000024,134.499620984381493827
0.184000000000000025,132.729211620461228449
0.185000000000000026,130.966173832949550615
0.186000000000000026,129.207899949308824716
0.187000000000000027,127.451936323189968903
0.188000000000000028,125.696089227730979587
0.189000000000000029,123.938502808188786730
0.190000000000000030,122.177710641126537894
0.191000000000000031,120.412663399545863285
0.192000000000000032,118.642735713220488947
0.193000000000000033,116.867715608802015481
0.194000000000000034,115.087779978882920773
0.195000000000000034,113.303459420622559151
0.196000000000000035,111.515595552763400633
0.197000000000000036,109.725293606959894532
0.198000000000000037,107.933872729677403868
0.199000000000000038,106.142816051694850898
0.200000000000000039,104.353722204272031604
0.201000000000000040,102.568259599563845086
0.202000000000000041,100.788124458453481225
0.203000000000000042,99.015003268355954447
0.204000000000000042,97.250540090346277111
0.205000000000000043,95.496308910442152751
0.206000000000000044,93.753791043446739195
0.207000000000000045,92.024357447573493118
0.208000000000000046,90.309255691378652386
0.209000000000000047,88.609601228007718987
0.210000000000000048,86.926372571839323200
0.211000000000000049,85.260409935611193077
0.212000000000000050,83.612416868437762218
0.213000000000000050,81.982964433373098245
0.214000000000000051,80.372497474162486242
0.215000000000000052,78.781342541712163552
0.216000000000000053,77.209717079046612298
0.217000000000000054,75.657739496906316390
0.218000000000000055,74.125439808782260798
0.219000000000000056,72.612770532504640641
0.220000000000000057,71.119617604195326521
0.221000000000000058,69.645811088433958957
0.222000000000000058,68.191135505044272236
0.223000000000000059,66.755339627394249646
0.224000000000000060,65.338145639070688730
0.225000000000000061,63.939257564966112568
0.226000000000000062,62.558368919033867428
0.227000000000000063,61.195169534175285264
0.228000000000000064,59.849351559944025780
0.229000000000000065,58.520614631072888301
0.230000000000000066,57.208670224393223691
0.231000000000000066,55.913245233690716418
0.232000000000000067,54.634084801630024231
0.233000000000000068,53.370954455290508633
0.234000000000000069,52.123641597309109841
0.235000000000000070,50.891956408342593932
0.236000000000000071,49.675732218756579073
0.237000000000000072,48.474825408327532728
0.238000000000000073,47.289114892507072341
0.239000000000000073,46.118501252626352027
0.240000000000000074,44.962905565477605307
0.241000000000000075,43.822267985163236403
0.242000000000000076,42.696546127079542998
0.243000000000000077,41.585713300530471770
0.244000000000000078,40.489756632856725105
0.245000000000000079,39.408675124207874774
0.246000000000000080,38.342477668266205626
0.247000000000000081,37.291181070414587850
0.248000000000000081,36.254808091090431788
0.249000000000000082,35.233385538425643801
0.250000000000000111,34.226942430779459414
0.251000000000000112,33.235508246456618053
0.252000000000000113,32.259111274785674084
0.253000000000000114,31.297777079834411040
0.254000000000000115,30.351527085361745151
0.255000000000000115,29.420377287160874857
0.256000000000000116,28.504337096733429746
0.257000000000000117,27.603408318246653863
0.258000000000000118,26.717584258962432386
0.259000000000000119,25.846848971776616111
0.260000000000000120,24.991176627162229096
0.261000000000000121,24.150531010661033804
0.262000000000000122,23.324865141098889865
0.263000000000000123,22.514121003903412088
0.264000000000000123,21.718229393260319426
0.265000000000000124,20.937109856348246950
0.266000000000000125,20.170670732525021407
0.267000000000000126,19.418809280090329139
0.268000000000000127,18.681411883106108007
0.269000000000000128,17.958354330708448998
0.270000000000000129,17.249502161377314735
0.271000000000000130,16.554711064735595727
0.272000000000000131,15.873827333616350899
0.273000000000000131,15.206688359355215567
0.274000000000000132,14.553123163528237427
0.275000000000000133,13.912952959652420404
0.276000000000000134,13.285991738692413122
0.277000000000000135,12.672046872565275066
0.278000000000000136,12.070919730196726150
0.279000000000000137,11.482406301056506948
0.280000000000000138,10.906297821479252974
0.281000000000000139,10.342381399456320068
0.282000000000000139,9.790440633962351313
0.283000000000000140,9.250256225251565212
0.284000000000000141,8.721606572922848244
0.285000000000000142,8.204268358905382641
0.286000000000000143,7.698017112857266753
0.287000000000000144,7.202627757796510544
0.288000000000000145,6.717875134094282608
0.289000000000000146,6.243534500257124975
0.290000000000000147,5.779382009201740722
0.291000000000000147,5.325195158988892175
0.292000000000000148,4.880753217225517915
0.293000000000000149,4.445837618572065608
0.294000000000000150,4.020232335000180512
0.295000000000000151,3.603724218638562071
0.296000000000000152,3.196103317219979978
0.297000000000000153,2.797163162301758099
0.298000000000000154,2.406701030575054912
0.299000000000000155,2.024518178706923965
0.300000000000000155,1.650420052272548288
0.301000000000000156,1.284216469435504937
0.302000000000000157,0.925721780120030702
0.303000000000000158,0.574755001494821727
0.304000000000000159,0.231139930649969128
0.305000000000000160,-0.105294764598491658
0.306000000000000161,-0.434715475800361517
0.307000000000000162,-0.757283603850521736
0.308000000000000163,-1.073155527822548860
0.309000000000000163,-1.382482591607635536
0.310000000000000164,-1.685411107300963662
0.311000000000000165,-1.982082374275148551
0.312000000000000166,-2.272632712884434358
0.313000000000000167,-2.557193511752026360
0.314000000000000168,-2.835891287607023692
0.315000000000000169,-3.108847756655424455
0.316000000000000170,-3.376179916491749200
0.317000000000000171,-3.638000137582484861
0.318000000000000171,-3.894416263380782173
0.319000000000000172,-4.145531718162197343
0.320000000000000173,-4.391445621703192970
0.321000000000000174,-4.632252909958157083
0.322000000000000175,-4.868044460926028272
0.323000000000000176,-5.098907224933445725
0.324000000000000177,-5.324924358598527974
0.325000000000000178,-5.546175361776155555
0.326000000000000179,-5.762736216823825863
0.327000000000000179,-5.974679529563816871
0.328000000000000180,-6.182074671355254125
0.329000000000000181,-6.384987921726249738
0.330000000000000182,-6.583482611052700051
0.331000000000000183,-6.777619262806211964
0.332000000000000184,-6.967455734928250877
0.333000000000000185,-7.153047359921906434
0.334000000000000186,-7.334447083285764890
0.335000000000000187,-7.511705599946300715
0.336000000000000187,-7.684871488376545656
0.337000000000000188,-7.853991342117987884
0.338000000000000189,-8.019109898452173368
0.339000000000000190,-8.180270163995416510
0.340000000000000191,-8.337513537016260301
0.341000000000000192,-8.490879926300682001
0.342000000000000193,-8.640407866413637450
0.343000000000000194,-8.786134629228154580
0.344000000000000195,-8.928096331614181480
0.345000000000000195,-9.066328039200339362
0.346000000000000196,-9.200863866139574299
0.347000000000000197,-9.331737070828342695
0.348000000000000198,-9.458980147545085870
0.349000000000000199,-9.582624913989320703
0.350000000000000200,-9.702702594717186102
0.351000000000000201,-9.819243900482510057
0.352000000000000202,-9.932279103504660256
0.353000000000000203,-10.041838108696047982
0.354000000000000203,-10.147950520892395687
0.355000000000000204,-10.250645708138074852
0.356000000000000205,-10.349952861087810874
0.357000000000000206,-10.445901048593874805
0.358000000000000207,-10.538519269554035063
0.359000000000000208,-10.627836501102811084
0.360000000000000209,-10.713881743233425681
0.361000000000000210,-10.796684059942574407
0.362000000000000210,-10.876272616994736353
0.363000000000000211,-10.952676716405855828
0.364000000000000212,-11.025925827749517794
0.365000000000000213,-11.096049616390905257
0.366000000000000214,-11.163077968755974467
0.367000000000000215,-11.227041014744560954
0.368000000000000216,-11.287969147397422631
0.369000000000000217,-11.345893039927416268
0.370000000000000218,-11.400843660225755016
0.371000000000000218,-11.452852282953619678
0.372000000000000219,-11.501950499329508304
0.373000000000000220,-11.548170224721630461
0.374000000000000221,-11.591543704153744798
0.375000000000000222,-11.632103515831463625
0.376000000000000223,-11.669882572795057030
0.377000000000000224,-11.704914122802403398
0.378000000000000225,-11.737231746544479094
0.379000000000000226,-11.766869354293369554
0.380000000000000226,-11.793861181081060963
0.381000000000000227,-11.818241780504362026
0.382000000000000228,-11.840046017249644450
0.383000000000000229,-11.859309058428010530
0.384000000000000230,-11.876066363809174575
0.385000000000000231,-11.890353675039946779
0.386000000000000232,-11.902207003929936135
0.387000000000000233,-11.911662619885102998
0.388000000000000234,-11.918757036566304919
0.389000000000000234,-11.923526997847883280
0.390000000000000235,-11.926009463148037781
0.391000000000000236,-11.926241592200263142
0.392000000000000237,-11.924260729332214481
0.393000000000000238,-11.920104387315664241
0.394000000000000239,-11.913810230848364213
0.395000000000000240,-11.905416059726155353
0.396000000000000241,-11.894959791760703283
0.397000000000000242,-11.882479445495686576
0.398000000000000242,-11.868013122771907675
0.399000000000000243,-11.851598991188739163
0.400000000000000244,-11.833275266507319756
0.401000000000000245,-11.813080195038201836
0.402000000000000246,-11.791052036053660146
0.403000000000000247,-11.767229044262851545
0.404000000000000248,-11.741649452385399144
0.405000000000000249,-11.714351453857030805
0.406000000000000250,-11.685373185698420428
0.407000000000000250,-11.654752711576746194
0.408000000000000251,-11.622528005086930847
0.409000000000000252,-11.588736933277973051
0.410000000000000253,-11.553417240447725334
0.411000000000000254,-11.516606532227545046
0.412000000000000255,-11.478342259976676232
0.413000000000000256,-11.438661705504433286
0.414000000000000257,-11.397601966136488016
0.415000000000000258,-11.355199940140272119
0.416000000000000258,-11.311492312522730685
0.417000000000000259,-11.266515541212399398
0.418000000000000260,-11.220305843636273480
0.419000000000000261,-11.172899183700730319
0.420000000000000262,-11.124331259184392806
0.421000000000000263,-11.074637489549781222
0.422000000000000264,-11.023853004179182236
0.423000000000000265,-10.972012631039397945
0.424000000000000266,-10.919150885778909910
0.425000000000000266,-10.865301961259723029
0.426000000000000267,-10.810499717525766883
0.427000000000000268,-10.754777672208380324
0.428000000000000269,-10.698168991368820713
0.429000000000000270,-10.640706480777032183
0.430000000000000271,-10.582422577624784665
0.431000000000000272,-10.523349342671272311
0.432000000000000273,-10.463518452817869075
0.433000000000000274,-10.402961194108858223
0.434000000000000274,-10.341708455153732160
0.435000000000000275,-10.279790720966738959
0.436000000000000276,-10.217238067218477937
0.437000000000000277,-10.154080154893993182
0.438000000000000278,-10.090346225351549236
0.439000000000000279,-10.026065095775763325
0.440000000000000280,-9.961265155018377726
0.441000000000000281,-9.895974359819863508
0.442000000000000282,-9.830220231404600995
0.443000000000000282,-9.764029852442028812
0.444000000000000283,-9.697429864366323926
0.445000000000000284,-9.630446465046491156
0.446000000000000285,-9.563105406798820596
0.447000000000000286,-9.495431994733770864
0.448000000000000287,-9.427451085428430133
0.449000000000000288,-9.359187085916669702
0.450000000000000289,-9.290663952987960883
0.451000000000000290,-9.221905192786554295
0.452000000000000290,-9.152933860702315627
0.453000000000000291,-9.083772561544353863
0.454000000000000292,-9.014443449988998935
0.455000000000000293,-8.944968231293186633
0.456000000000000294,-8.875368162264670957
0.457000000000000295,-8.805664052480434378
0.458000000000000296,-8.735876265744476399
0.459000000000000297,-8.666024721776640405
0.460000000000000298,-8.596128898123682305
0.461000000000000298,-8.526207832284422139
0.462000000000000299,-8.456280124040331359
0.463000000000000300,-8.386363937983386307
0.464000000000000301,-8.316477006233043312
0.465000000000000302,-8.246636631334173018
0.466000000000000303,-8.176859689327919511
0.467000000000000304,-8.107162632987796158
0.468000000000000305,-8.037561495213099150
0.469000000000000306,-7.968071892572057280
0.470000000000000306,-7.898709028987427772
0.471000000000000307,-7.829487699556811897
0.472000000000000308,-7.760422294500886942
0.473000000000000309,-7.691526803232190623
0.474000000000000310,-7.622814818537712256
0.475000000000000311,-7.554299540868335328
0.476000000000000312,-7.485993782728857404
0.477000000000000313,-7.417909973161606274
0.478000000000000314,-7.350060162317772594
0.479000000000000314,-7.282456026110130765
0.480000000000000315,-7.215108870941011610
0.481000000000000316,-7.148029638499954430
0.482000000000000317,-7.081228910625037898
0.483000000000000318,-7.014716914222551836
0.484000000000000319,-6.948503526239525385
0.485000000000000320,-6.882598278683902393
0.486000000000000321,-6.817010363687271202
0.487000000000000322,-6.751748638605262087
0.488000000000000322,-6.686821631150664302
0.489000000000000323,-6.622237544554937294
0.490000000000000324,-6.558004262753355462
0.491000000000000325,-6.494129355589613795
0.492000000000000326,-6.430620084035576944
0.493000000000000327,-6.367483405422336595
0.494000000000000328,-6.304725978678457743
0.495000000000000329,-6.242354169571811440
0.496000000000000330,-6.180374055951253887
0.497000000000000330,-6.118791432984846956
0.498000000000000331,-6.057611818390958192
0.499000000000000332,-5.996840457659442514
0.500000000000000333,-5.936482329259479940
0.501000000000000334,-5.876542149831172068
0.502000000000000335,-5.817024379358210595
0.503000000000000336,-5.757933226318773912
0.504000000000000337,-5.699272652812054751
0.505000000000000338,-5.641046379657995935
0.506000000000000338,-5.583257891467868994
0.507000000000000339,-5.525910441683389074
0.508000000000000340,-5.469007057582229159
0.509000000000000341,-5.412550545248047129
0.510000000000000342,-5.356543494502840730
0.511000000000000343,-5.300988283800036172
0.512000000000000344,-5.245887085076402556
0.513000000000000345,-5.191241868561286665
0.514000000000000346,-5.137054407541599588
0.515000000000000346,-5.083326283081025743
0.516000000000000347,-5.030058888692176211
0.517000000000000348,-4.977253434960472234
0.518000000000000349,-4.924910954118347561
0.519000000000000350,-4.873032304568966744
0.520000000000000351,-4.821618175358118208
0.521000000000000352,-4.770669090593639083
0.522000000000000353,-4.720185413811234909
0.523000000000000353,-4.670167352285991669
0.524000000000000354,-4.620614961288948663
0.525000000000000355,-4.571528148287865356
0.526000000000000356,-4.522906677091683925
0.527000000000000357,-4.474750171938252308
0.528000000000000358,-4.427058121524513723
0.529000000000000359,-4.379829882979192845
0.530000000000000360,-4.333064685777145542
0.531000000000000361,-4.286761635595434328
0.532000000000000361,-4.240919718110625958
0.533000000000000362,-4.195537802737282718
0.534000000000000363,-4.150614646307341005
0.535000000000000364,-4.106148896690365646
0.536000000000000365,-4.062139096354562717
0.537000000000000366,-4.018583685868588162
0.538000000000000367,-3.975481007344015438
0.539000000000000368,-3.932829307818802356
0.540000000000000369,-3.890626742581493325
0.541000000000000369,-3.848871378436629076
0.542000000000000370,-3.807561196911281254
0.543000000000000371,-3.766694097403025410
0.544000000000000372,-3.726267900269580657
0.545000000000000373,-3.686280349860370453
0.546000000000000374,-3.646729117490219885
0.547000000000000375,-3.607611804355606466
0.548000000000000376,-3.568925944393797067
0.549000000000000377,-3.530669007085150302
0.550000000000000377,-3.492838400199066662
0.551000000000000378,-3.455431472483934563
0.552000000000000379,-3.418445516301574116
0.553000000000000380,-3.381877770206559664
0.554000000000000381,-3.345725421470886918
0.555000000000000382,-3.309985608554621539
0.556000000000000383,-3.274655423522756514
0.557000000000000384,-3.239731914409121227
0.558000000000000385,-3.205212087527576248
0.559000000000000385,-3.171092909731265230
0.560000000000000386,-3.137371310620369336
0.561000000000000387,-3.104044184698947717
0.562000000000000388,-3.071108393481456922
0.563000000000000389,-3.038560767549569608
0.564000000000000390,-3.006398108559817928
0.565000000000000391,-2.974617191202747257
0.566000000000000392,-2.943214765114117171
0.567000000000000393,-2.912187556738883298
0.568000000000000393,-2.881532271148432578
0.569000000000000394,-2.851245593811827295
0.570000000000000395,-2.821324192321677859
0.571000000000000396,-2.791764718075186558
0.572000000000000397,-2.762563807911178948
0.573000000000000398,-2.733718085703548351
0.574000000000000399,-2.705224163912023361
0.575000000000000400,-2.677078645090621656
0.576000000000000401,-2.649278123354664505
0.577000000000000401,-2.621819185806954611
0.578000000000000402,-2.594698413923654634
0.579000000000000403,-2.567912384900625788
0.580000000000000404,-2.541457672960916625
0.581000000000000405,-2.515330850623883840
0.582000000000000406,-2.489528489936781330
0.583000000000000407,-2.464047163669307317
0.584000000000000408,-2.438883446471867167
0.585000000000000409,-2.414033915998134550
0.586000000000000409,-2.389495153992529541
0.587000000000000410,-2.365263747343336664
0.588000000000000411,-2.341336289101957568
0.589000000000000412,-2.317709379469099495
0.590000000000000413,-2.294379626748320078
0.591000000000000414,-2.271343648267711846
0.592000000000000415,-2.248598071270302867
0.593000000000000416,-2.226139533773684231
0.594000000000000417,-2.203964685399570911
0.595000000000000417,-2.182070188173961700
0.596000000000000418,-2.160452717298200209
0.597000000000000419,-2.139108961891937444
0.598000000000000420,-2.118035625708187819
0.599000000000000421,-2.097229427821347691
0.600000000000000422,-2.076687103288552549
0.601000000000000423,-2.056405403785050989
0.602000000000000424,-2.036381098214114171
0.603000000000000425,-2.016610973292013664
0.604000000000000425,-1.997091834108647435
0.605000000000000426,-1.977820504664315138
0.606000000000000427,-1.958793828383285973
0.607000000000000428,-1.940008668604398467
0.608000000000000429,-1.921461909049696271
0.609000000000000430,-1.903150454271015590
0.610000000000000431,-1.885071230075594517
