# CNT15-NH2-14_ALASCA-JS
# h[nm],U(h)[kJ/mol]
0.200000000000000011,53.593801640605441605
0.201000000000000012,51.940275249698444782
0.202000000000000013,50.881142032587433732
0.203000000000000014,50.066724687017980955
0.204000000000000015,49.309840803336932424
0.205000000000000016,48.523202874647196836
0.206000000000000016,47.677716044051614119
0.207000000000000017,46.775430389431178924
0.208000000000000018,45.832615084890299784
0.209000000000000019,44.869694236679734445
0.210000000000000020,43.905725032470449776
0.211000000000000021,42.955789683028498871
0.212000000000000022,42.030175867375533016
0.213000000000000023,41.134583564118244681
0.214000000000000024,40.270855371751181906
0.215000000000000024,39.437910005304125605
0.216000000000000025,38.632685180164756389
0.217000000000000026,37.850981977226034303
0.218000000000000027,37.088159520831105453
0.219000000000000028,36.339664905184761778
0.220000000000000029,35.601405034558311513
0.221000000000000030,34.869978959563084686
0.222000000000000031,34.142794687323963387
0.223000000000000032,33.418095663145230390
0.224000000000000032,32.694920811684077933
0.225000000000000033,31.973019320447498615
0.226000000000000034,31.252738008819051174
0.227000000000000035,30.534895645456082036
0.228000000000000036,29.820655259896899025
0.229000000000000037,29.111402512779353202
0.230000000000000038,28.408635625628541277
0.231000000000000039,27.713870248933453411
0.232000000000000040,27.028560952039036636
0.233000000000000040,26.354039714098725256
0.234000000000000041,25.691470834485990338
0.235000000000000042,25.041821011983323331
0.236000000000000043,24.405842913532683980
0.237000000000000044,23.784070317405554107
0.238000000000000045,23.176822829266733095
0.239000000000000046,22.584218195287803610
0.240000000000000047,22.006190342468933352
0.241000000000000048,21.442511436423650650
0.242000000000000048,20.892816439913620030
0.243000000000000049,20.356628864751975527
0.244000000000000050,19.833386622614035844
0.245000000000000051,19.322467087410110764
0.246000000000000052,18.823210676569132715
0.247000000000000053,18.334942436475092364
0.248000000000000054,17.856991275812788444
0.249000000000000055,17.388706628531156895
0.250000000000000056,16.929472445396850588
0.251000000000000056,16.478718510342282855
0.252000000000000057,16.035929156208791113
0.253000000000000058,15.600649515606415108
0.254000000000000059,15.172489488220563203
0.255000000000000060,14.751125637858544692
0.256000000000000061,14.336301252709839460
0.257000000000000062,13.927824812509390640
0.258000000000000063,13.525567108250111659
0.259000000000000064,13.129457255370306612
0.260000000000000064,12.739477831372045813
0.261000000000000065,12.355659354880804912
0.262000000000000066,11.978074306346247369
0.263000000000000067,11.606830871870254640
0.264000000000000068,11.242066571839634648
0.265000000000000069,10.883941915814435930
0.266000000000000070,10.532634205027903818
0.267000000000000071,10.188331584327590562
0.268000000000000071,9.851227426769174400
0.269000000000000072,9.521515116614178709
0.270000000000000073,9.199383280358240711
0.271000000000000074,8.885011500739423695
0.272000000000000075,8.578566535506070068
0.273000000000000076,8.280199051076893468
0.274000000000000077,7.990040871081629525
0.275000000000000078,7.708202731082302250
0.276000000000000079,7.434772523473242245
0.277000000000000079,7.169814010557620243
0.278000000000000080,6.913365979005402728
0.279000000000000081,6.665441805208058845
0.280000000000000082,6.426029398355507460
0.281000000000000083,6.195091486262898961
0.282000000000000084,5.972566207965344987
0.283000000000000085,5.758367976775796926
0.284000000000000086,5.552388577768374134
0.285000000000000087,5.354498464415899051
0.286000000000000087,5.164548220291029779
0.287000000000000088,4.982370153257560830
0.288000000000000089,4.807779991361061711
0.289000000000000090,4.640578651611688699
0.290000000000000091,4.480554054980035339
0.291000000000000092,4.327482963147884831
0.292000000000000093,4.181132814826335142
0.293000000000000094,4.041263541735092168
0.294000000000000095,3.907629346596572795
0.295000000000000095,3.779980427709151769
0.296000000000000096,3.658064636803208369
0.297000000000000097,3.541629058932806551
0.298000000000000098,3.430421505101251878
0.299000000000000099,3.324191910148640350
0.300000000000000100,3.222693630137190901
0.301000000000000101,3.125684635049720050
0.302000000000000102,3.032928594066155892
0.303000000000000103,2.944195852001131986
0.304000000000000103,2.859264296674782990
0.305000000000000104,2.777920118049992393
0.306000000000000105,2.699958460907559754
0.307000000000000106,2.625183973650303315
0.308000000000000107,2.553411256533250739
0.309000000000000108,2.484465213216572987
0.310000000000000109,2.418181310036572995
0.311000000000000110,2.354405747795307313
0.312000000000000111,2.292995551187434256
0.313000000000000111,2.233818581221633792
0.314000000000000112,2.176753476159311251
0.315000000000000113,2.121689526592969610
0.316000000000000114,2.068526490326592082
0.317000000000000115,2.017174352707579832
0.318000000000000116,1.967553037999902887
0.319000000000000117,1.919592077287289644
0.320000000000000118,1.873230238258913882
0.321000000000000119,1.828415122063261622
0.322000000000000119,1.785102732223607047
0.323000000000000120,1.743257020395323265
0.324000000000000121,1.702849413514864185
0.325000000000000122,1.663858326647072117
0.326000000000000123,1.626268665584431172
0.327000000000000124,1.590071322992367531
0.328000000000000125,1.555262671631317817
0.329000000000000126,1.521844057921989846
0.330000000000000127,1.489821298856578435
0.331000000000000127,1.459204184998267984
0.332000000000000128,1.430005992055468855
0.333000000000000129,1.402243003267485966
0.334000000000000130,1.375934044596021533
0.335000000000000131,1.351100034482871859
0.336000000000000132,1.327763549709672475
0.337000000000000133,1.305948408680718931
0.338000000000000134,1.285679273245797560
0.339000000000000135,1.266981269986589220
0.340000000000000135,1.249879631708072925
0.341000000000000136,1.234399359705505628
0.342000000000000137,1.220564907217966955
0.343000000000000138,1.208399884331345708
0.344000000000000139,1.197926784456486704
0.345000000000000140,1.189166732382236358
0.346000000000000141,1.182139253787814148
0.347000000000000142,1.176862065994116247
0.348000000000000143,1.173350889638737016
0.349000000000000143,1.171619280874644176
0.350000000000000144,1.171678483616668931
0.351000000000000145,1.173537301293356538
0.352000000000000146,1.177201987503442293
0.353000000000000147,1.182676154926090462
0.354000000000000148,1.189960701791389130
0.355000000000000149,1.199053755182235559
0.356000000000000150,1.209950630409930339
0.357000000000000151,1.222643805683296891
0.358000000000000151,1.237122911274461057
0.359000000000000152,1.253374732373048417
0.360000000000000153,1.271383224814114588
0.361000000000000154,1.291129542863312496
0.362000000000000155,1.312592078244990912
0.363000000000000156,1.335746509604973875
0.364000000000000157,1.360565861609184246
0.365000000000000158,1.387020572891627612
0.366000000000000159,1.415078572080542330
0.367000000000000159,1.444705361148988620
0.368000000000000160,1.475864105355754408
0.369000000000000161,1.508515729064053845
0.370000000000000162,1.542619016748404404
0.371000000000000163,1.578130718524370479
0.372000000000000164,1.615005659561421947
0.373000000000000165,1.653196852765197233
0.374000000000000166,1.692655614142590137
0.375000000000000167,1.733331680290369547
0.376000000000000167,1.775173327475802365
0.377000000000000168,1.818127491805646034
0.378000000000000169,1.862139890007786347
0.379000000000000170,1.907155140377517544
0.380000000000000171,1.953116883468172249
0.381000000000000172,1.999967902132893993
0.382000000000000173,2.047650240551314837
0.383000000000000174,2.096105321901081897
0.384000000000000175,2.145274064360055188
0.385000000000000175,2.195096995150007224
0.386000000000000176,2.245514362357123872
0.387000000000000177,2.296466244288299929
0.388000000000000178,2.347892656145031065
0.389000000000000179,2.399733653818962864
0.390000000000000180,2.451929434634211535
0.391000000000000181,2.504420434882226321
0.392000000000000182,2.557147424014188708
0.393000000000000183,2.610051595374982547
0.394000000000000183,2.663074653380211210
0.395000000000000184,2.716158897054834931
0.396000000000000185,2.769247299868039303
0.397000000000000186,2.822283585813958773
0.398000000000000187,2.875212301702317230
0.399000000000000188,2.927978885636494333
0.400000000000000189,2.980529731668974058
0.401000000000000190,3.032812250636269802
0.402000000000000191,3.084774927186004767
0.403000000000000191,3.136367373019477878
0.404000000000000192,3.187540376382240748
0.405000000000000193,3.238245947844090811
0.406000000000000194,3.288437362417941934
0.407000000000000195,3.338069198074300026
0.408000000000000196,3.387097370714934552
0.409000000000000197,3.435479165675303648
0.410000000000000198,3.483173265830787013
0.411000000000000199,3.530139776386737260
0.412000000000000199,3.576340246436674697
0.413000000000000200,3.621737687376735071
0.414000000000000201,3.666296588267863310
0.415000000000000202,3.709982928240127542
0.416000000000000203,3.752764186035736138
0.417000000000000204,3.794609346789639126
0.418000000000000205,3.835488906147817012
0.419000000000000206,3.875374871824813106
0.420000000000000207,3.914240762702842602
0.421000000000000207,3.952061605575195813
0.422000000000000208,3.988813929637110789
0.423000000000000209,4.024475758826933536
0.424000000000000210,4.059026602120235694
0.425000000000000211,4.092447441878857894
0.426000000000000212,4.124720720356040538
0.427000000000000213,4.155830324457792990
0.428000000000000214,4.185761568859332371
0.429000000000000214,4.214501177574171642
0.430000000000000215,4.242037264071697678
0.431000000000000216,4.268359310037452836
0.432000000000000217,4.293458142868528782
0.433000000000000218,4.317325911994418064
0.434000000000000219,4.339956064111695433
0.435000000000000220,4.361343317418706178
0.436000000000000221,4.381483634934216553
0.437000000000000222,4.400374196981700514
0.438000000000000222,4.418013372918556669
0.439000000000000223,4.434400692187137949
0.440000000000000224,4.449536814762125481
0.441000000000000225,4.463423501066196231
0.442000000000000226,4.476063581423485260
0.443000000000000227,4.487460925117933819
0.444000000000000228,4.497620409120946405
0.445000000000000229,4.506547886550456461
0.446000000000000230,4.514250154920819824
0.447000000000000230,4.520734924240658259
0.448000000000000231,4.526010785013168558
0.449000000000000232,4.530087176191033294
0.450000000000000233,4.532974353135680978
0.451000000000000234,4.534683355628171597
0.452000000000000235,4.535225975976748813
0.453000000000000236,4.534614727263731382
0.454000000000000237,4.532862811772108813
0.455000000000000238,4.529984089630116451
0.456000000000000238,4.525993047709705230
0.457000000000000239,4.520904768812911811
0.458000000000000240,4.514734901177821946
0.459000000000000241,4.507499628334000974
0.460000000000000242,4.499215639335167438
0.461000000000000243,4.489900099394995792
0.462000000000000244,4.479570620950113380
0.463000000000000245,4.468245235172489060
0.464000000000000246,4.455942363951693963
0.465000000000000246,4.442680792365813147
0.466000000000000247,4.428479641658145560
0.467000000000000248,4.413358342735243411
0.468000000000000249,4.397336610200338392
0.469000000000000250,4.380434416934692265
0.470000000000000251,4.362671969238034464
0.471000000000000252,4.344069682537890387
0.472000000000000253,4.324648157676227456
0.473000000000000254,4.304428157780743724
0.474000000000000254,4.283430585726757833
0.475000000000000255,4.261676462194636805
0.476000000000000256,4.239186904326568417
0.477000000000000257,4.215983104985427943
0.478000000000000258,4.192086312617493427
0.479000000000000259,4.167517811719899434
0.480000000000000260,4.142298903912687180
0.481000000000000261,4.116450889614595710
0.482000000000000262,4.089995050320842651
0.483000000000000262,4.062952631480443166
0.484000000000000263,4.035344825969841231
0.485000000000000264,4.007192758159051849
0.486000000000000265,3.978517468565721860
0.487000000000000266,3.949339899092114248
0.488000000000000267,3.919680878839322702
0.489000000000000268,3.889561110492528062
0.490000000000000269,3.859001157270726345
0.491000000000000270,3.828021430433752759
0.492000000000000270,3.796642177339163648
0.493000000000000271,3.764883470041024971
0.494000000000000272,3.732765194422454691
0.495000000000000273,3.700307039853241609
0.496000000000000274,3.667528489363820476
0.497000000000000275,3.634448810326404100
0.498000000000000276,3.601087045633927453
0.499000000000000277,3.567462005367314504
0.500000000000000222,3.533592258941201436
0.501000000000000334,3.499496127718316529
0.502000000000000224,3.465191678082403914
0.503000000000000336,3.430696714959493132
0.504000000000000226,3.396028775777344411
0.505000000000000338,3.361205124852543413
0.506000000000000227,3.326242748195040289
0.507000000000000339,3.291158348719442017
0.508000000000000229,3.255968341852813808
0.509000000000000341,3.220688851528215935
0.510000000000000231,3.185335706553760193
0.511000000000000343,3.149924437346423911
0.512000000000000233,3.114470273020446101
0.513000000000000345,3.078988138819611198
0.514000000000000234,3.043492653883336896
0.515000000000000346,3.007998129336018955
0.516000000000000236,2.972518566689671182
0.517000000000000348,2.937067656549460448
0.518000000000000238,2.901658777612383222
0.519000000000000350,2.866304995948849577
0.520000000000000240,2.831019064557660947
0.521000000000000352,2.795813423184368762
0.522000000000000242,2.760700198393732929
0.523000000000000353,2.725691203886515535
0.524000000000000243,2.690797941051608078
0.525000000000000355,2.656031599744030469
0.526000000000000245,2.621403059280026149
0.527000000000000357,2.586922889640122403
0.528000000000000247,2.552601352871688434
0.529000000000000359,2.518448404682182673
0.530000000000000249,2.484473696214871019
0.531000000000000361,2.450686575998614281
0.532000000000000250,2.417096092063800938
0.533000000000000362,2.383710994216301948
0.534000000000000252,2.350539736461986440
0.535000000000000364,2.317590479573854001
0.536000000000000254,2.284871093794772268
0.537000000000000366,2.252389161668217898
0.538000000000000256,2.220151980990250795
0.539000000000000368,2.188166567875589053
0.540000000000000258,2.156439659931279174
0.541000000000000369,2.124977719531166098
0.542000000000000259,2.093786937185063479
0.543000000000000371,2.062873234996131178
0.544000000000000261,2.032242270200641521
0.545000000000000373,2.001899438784093821
0.546000000000000263,1.971849879168138697
0.547000000000000375,1.942098475962538373
0.548000000000000265,1.912649863777066361
0.549000000000000377,1.883508431087848267
0.550000000000000266,1.854678324153342217
0.551000000000000378,1.826163450974829683
0.552000000000000268,1.797967485296890100
0.553000000000000380,1.770093870643079992
0.554000000000000270,1.742545824382556674
0.555000000000000382,1.715326341823207867
0.556000000000000272,1.688438200327289085
0.557000000000000384,1.661883963445465184
0.558000000000000274,1.635665985065502870
0.559000000000000385,1.609786413571825836
0.560000000000000275,1.584247196012454229
0.561000000000000387,1.559050082269789694
0.562000000000000277,1.534196629232090769
0.563000000000000389,1.509688204962288394
0.564000000000000279,1.485525992861306710
0.565000000000000391,1.461710995822772530
0.566000000000000281,1.438244040376519095
0.567000000000000393,1.415125780818019319
0.568000000000000282,1.392356703321381728
0.569000000000000394,1.369937130033283434
0.570000000000000284,1.347867223145721161
0.571000000000000396,1.326146988945131389
0.572000000000000286,1.304776281835985596
0.573000000000000398,1.283754808336687203
0.574000000000000288,1.263082131045987655
0.575000000000000400,1.242757672577996519
0.576000000000000290,1.222780719464229282
0.577000000000000401,1.203150426020876962
0.578000000000000291,1.183865818179984375
0.579000000000000403,1.164925797282914566
0.580000000000000293,1.146329143834904585
0.581000000000000405,1.128074521219289084
0.582000000000000295,1.110160479370381204
0.583000000000000407,1.092585458403713572
0.584000000000000297,1.075347792202802077
0.585000000000000409,1.058445711961282010
0.586000000000000298,1.041877349679722453
0.587000000000000410,1.025640741616116847
0.588000000000000300,1.009733831689479500
0.589000000000000412,0.994154474835699409
0.590000000000000302,0.978900440315180753
0.591000000000000414,0.963969414971569405
0.592000000000000304,0.949359006441191200
0.593000000000000416,0.935066746312661734
0.594000000000000306,0.921090093236339946
0.595000000000000417,0.907426435983227364
0.596000000000000307,0.894073096453112393
0.597000000000000419,0.881027332631622029
0.598000000000000309,0.868286341496059100
0.599000000000000421,0.855847261869865483
0.600000000000000311,0.843707177225590188
0.601000000000000423,0.831863118436295679
0.602000000000000313,0.820312066475448298
0.603000000000000425,0.809050955065189425
0.604000000000000314,0.798076673273178328
0.605000000000000426,0.787386068057969291
0.606000000000000316,0.776975946763154957
0.607000000000000428,0.766843079560339813
0.608000000000000318,0.756984201841193305
0.609000000000000430,0.747396016558752541
0.610000000000000320,0.738075196518263366
0.611000000000000432,0.729018386617767300
0.612000000000000322,0.720222206038795276
0.613000000000000433,0.711683250387431854
0.614000000000000323,0.703398093786118728
0.615000000000000435,0.695363290916540477
0.616000000000000325,0.687575379014019439
0.617000000000000437,0.680030879813740996
0.618000000000000327,0.672726301449312891
0.619000000000000439,0.665658140304042356
0.620000000000000329,0.658822882815398803
0.621000000000000441,0.652217007233131474
0.622000000000000330,0.645836985331526892
0.623000000000000442,0.639679284076274057
0.624000000000000332,0.633740367246504288
0.625000000000000444,0.628016697012438008
0.626000000000000334,0.622504735469253001
0.627000000000000446,0.617200946127646533
0.628000000000000336,0.612101795361681189
0.629000000000000448,0.607203753814432590
0.630000000000000338,0.602503297762054246
0.631000000000000449,0.597996910436753071
0.632000000000000339,0.593681083309328894
0.633000000000000451,0.589552317331801801
0.634000000000000341,0.585607124140748558
0.635000000000000453,0.581842027221892932
0.636000000000000343,0.578253563036609242
0.637000000000000455,0.574838282110853860
0.638000000000000345,0.571592750087200230
0.639000000000000457,0.568513548740513075
0.640000000000000346,0.565597276957907846
0.641000000000000458,0.562840551683565060
0.642000000000000348,0.560240008829023362
0.643000000000000460,0.557792304149540064
0.644000000000000350,0.555494114087129898
0.645000000000000462,0.553342136580873056
0.646000000000000352,0.551333091845101930
0.647000000000000464,0.549463723116050295
0.648000000000000353,0.547730797367576572
0.649000000000000465,0.546131105996544908
0.650000000000000355,0.544661465478453288
0.651000000000000467,0.543318717993909628
0.652000000000000357,0.542099732026509296
0.653000000000000469,0.541001402932747677
0.654000000000000359,0.540020653484483359
0.655000000000000471,0.539154434384573888
0.656000000000000361,0.538399724756227993
0.657000000000000473,0.537753532606649598
0.658000000000000362,0.537212895265525292
0.659000000000000474,0.536774879798916471
0.660000000000000364,0.536436583399108824
0.661000000000000476,0.536195133750951847
0.662000000000000366,0.536047689375240499
0.663000000000000478,0.535991439949672910
0.664000000000000368,0.536023606607901715
0.665000000000000480,0.536141442217208053
0.666000000000000369,0.536342231635322464
0.667000000000000481,0.536623291946885850
0.668000000000000371,0.536981972680077191
0.669000000000000483,0.537415656003890296
0.670000000000000373,0.537921756906548643
0.671000000000000485,0.538497723355570446
0.672000000000000375,0.539141036439925392
