# CNT15-NH2-14_BGLCNA-JS
# h[nm],U(h)[kJ/mol]
0.200000000000000011,177.220175473313673820
0.201000000000000012,174.901071639964698079
0.202000000000000013,172.570525354263025974
0.203000000000000014,170.258047418614012258
0.204000000000000015,167.975884864878139524
0.205000000000000016,165.726543576594906426
0.206000000000000016,163.507602437194293543
0.207000000000000017,161.314669128452720770
0.208000000000000018,159.143086888499283305
0.209000000000000019,156.988823832322054841
0.210000000000000020,154.848846253275780782
0.211000000000000021,152.721182754858489261
0.212000000000000022,150.604818041540056583
0.213000000000000023,148.499506846544392147
0.214000000000000024,146.405564594404950185
0.215000000000000024,144.323668075576534875
0.216000000000000025,142.254683721618079062
0.217000000000000026,140.199530833578052125
0.218000000000000027,138.159080722340320335
0.219000000000000028,136.134088986079689221
0.220000000000000029,134.125156217504951428
0.221000000000000030,132.132711684376374706
0.222000000000000031,130.157014522334037565
0.223000000000000032,128.198167413168278017
0.224000000000000032,126.256138384928931373
0.225000000000000033,124.330787123517168880
0.226000000000000034,122.421892939657666943
0.227000000000000035,120.529182236889482738
0.228000000000000036,118.652353946402854490
0.229000000000000037,116.791101920754229582
0.230000000000000038,114.945133709027416558
0.231000000000000039,113.114185475923548552
0.232000000000000040,111.298033085392631847
0.233000000000000040,109.496499556454566005
0.234000000000000041,107.709459225997761678
0.235000000000000042,105.936839031467428640
0.236000000000000043,104.178617365509850856
0.237000000000000044,102.434820963768103752
0.238000000000000045,100.705520273859590930
0.239000000000000046,98.990823724623254520
0.240000000000000047,97.290871275357105219
0.241000000000000048,95.605827579294242469
0.242000000000000048,93.935875047349185252
0.243000000000000049,92.281207049779169438
0.244000000000000050,90.642021446738795021
0.245000000000000051,89.018514595070243445
0.246000000000000052,87.410875938942695029
0.247000000000000053,85.819283256618149380
0.248000000000000054,84.243898604895662174
0.249000000000000055,82.684864976668478675
0.250000000000000056,81.142303665355854037
0.251000000000000056,79.616312312472715007
0.252000000000000057,78.106963600930498615
0.253000000000000058,76.614304546438432908
0.254000000000000059,75.138356332184329744
0.255000000000000060,73.679114627418684336
0.256000000000000061,72.236550328246977415
0.257000000000000062,70.810610658482218582
0.258000000000000063,69.401220569478837774
0.259000000000000064,68.008284380144957026
0.260000000000000064,66.631687601537322507
0.261000000000000065,65.271298894331579277
0.262000000000000066,63.926972111817278233
0.263000000000000067,62.598548385714956055
0.264000000000000068,61.285858216891426764
0.265000000000000069,59.988723537839028666
0.266000000000000070,58.706959718481094512
0.267000000000000071,57.440377491388403541
0.268000000000000071,56.188784776780437369
0.269000000000000072,54.951988391694975178
0.270000000000000073,53.729795631409579926
0.271000000000000074,52.522015714571786305
0.272000000000000075,51.328461086529557633
0.273000000000000076,50.148948578054316272
0.274000000000000077,48.983300419015684213
0.275000000000000078,47.831345108618016582
0.276000000000000079,46.692918145554280329
0.277000000000000079,45.567862622891269098
0.278000000000000080,44.456029693697459493
0.279000000000000081,43.357278914373090117
0.280000000000000082,42.271478473372198437
0.281000000000000083,41.198505313534070638
0.282000000000000084,40.138245156592653018
0.283000000000000085,39.090592438626067917
0.284000000000000086,38.055450165263025042
0.285000000000000087,37.032729695403375558
0.286000000000000087,36.022350462046134112
0.287000000000000088,35.024239638573178013
0.288000000000000089,34.038331758522360815
0.289000000000000090,33.064568296513485279
0.290000000000000091,32.102897217579929645
0.291000000000000092,31.153272501713608733
0.292000000000000093,30.215653649966860428
0.293000000000000094,29.290005177976205175
0.294000000000000095,28.376296102289995105
0.295000000000000095,27.474499424397862413
0.296000000000000096,26.584591616885141718
0.297000000000000097,25.706552115668909408
0.298000000000000098,24.840362821822608907
0.299000000000000099,23.986007616062661185
0.300000000000000100,23.143471888559076888
0.301000000000000101,22.312742086339731884
0.302000000000000102,21.493805280193310381
0.303000000000000103,20.686648752629444914
0.304000000000000103,19.891259608139243653
0.305000000000000104,19.107624406702857556
0.306000000000000105,18.335728821222549101
0.307000000000000106,17.575557319313855231
0.308000000000000107,16.827092869664852515
0.309000000000000108,16.090316672974935841
0.310000000000000109,15.365207917305104601
0.311000000000000110,14.651743557516743621
0.312000000000000111,13.949898118335676500
0.313000000000000111,13.259643520461143140
0.314000000000000112,12.580948929036292583
0.315000000000000113,11.913780623711268447
0.316000000000000114,11.258101889458554723
0.317000000000000115,10.613872927243674482
0.318000000000000116,9.981050783608775845
0.319000000000000117,9.359589298194068263
0.320000000000000118,8.749439068199052372
0.321000000000000119,8.150547428771471203
0.322000000000000119,7.562858448307440362
0.323000000000000120,6.986312937648686550
0.324000000000000121,6.420848472170719745
0.325000000000000122,5.866399425771445131
0.326000000000000123,5.322897015789180841
0.327000000000000124,4.790269357902592340
0.328000000000000125,4.268441530092953684
0.329000000000000126,3.757335644779824069
0.330000000000000127,3.256870928273810417
0.331000000000000127,2.766963806725637909
0.332000000000000128,2.287527997786866774
0.333000000000000129,1.818474607235093243
0.334000000000000130,1.359712229855298826
0.335000000000000131,0.911147053906481430
0.336000000000000132,0.472682968542975424
0.337000000000000133,0.044221673597092614
0.338000000000000134,-0.374337208832103585
0.339000000000000135,-0.783096021500253481
0.340000000000000135,-1.182158958331228416
0.341000000000000136,-1.571631950366834563
0.342000000000000137,-1.951622551763454227
0.343000000000000138,-2.322239826211749847
0.344000000000000139,-2.683594234124532019
0.345000000000000140,-3.035797520905487712
0.346000000000000141,-3.378962606582909700
0.347000000000000142,-3.713203477063499403
0.348000000000000143,-4.038635077234904003
0.349000000000000143,-4.355373206119869778
0.350000000000000144,-4.663534414260960936
0.351000000000000145,-4.963235903491733936
0.352000000000000146,-5.254595429229498293
0.353000000000000147,-5.537731205404091028
0.354000000000000148,-5.812761812118997007
0.355000000000000149,-6.079806106123427867
0.356000000000000150,-6.338983134157835764
0.357000000000000151,-6.590412049220452317
0.358000000000000151,-6.834212029788567122
0.359000000000000152,-7.070502202015505944
0.360000000000000153,-7.299401564913043039
0.361000000000000154,-7.521028918517453477
0.362000000000000155,-7.735502795028861733
0.363000000000000156,-7.942941392903928310
0.364000000000000157,-8.143462513874348829
0.365000000000000158,-8.337183502856925443
0.366000000000000159,-8.524221190713738849
0.367000000000000159,-8.704691839816637966
0.368000000000000160,-8.878711092364127921
0.369000000000000161,-9.046393921395402771
0.370000000000000162,-9.207854584442179302
0.371000000000000163,-9.363206579755829040
0.372000000000000164,-9.512562605044927011
0.373000000000000165,-9.656034518655944865
0.374000000000000166,-9.793733303128522749
0.375000000000000167,-9.925769031054654690
0.376000000000000167,-10.052250833171196831
0.377000000000000168,-10.173286868613729439
0.378000000000000169,-10.288984297259744949
0.379000000000000170,-10.399449254089201844
0.380000000000000171,-10.504786825490713298
0.381000000000000172,-10.605101027441733663
0.382000000000000173,-10.700494785492271177
0.383000000000000174,-10.791069916482182833
0.384000000000000175,-10.876927111923059499
0.385000000000000175,-10.958165922976872864
0.386000000000000176,-11.034884746965179403
0.387000000000000177,-11.107180815343118852
0.388000000000000178,-11.175150183075100330
0.389000000000000179,-11.238887719349355265
0.390000000000000180,-11.298487099571071113
0.391000000000000181,-11.354040798574983384
0.392000000000000182,-11.405640084999904005
0.393000000000000183,-11.453375016769717476
0.394000000000000183,-11.497334437626703263
0.395000000000000184,-11.537605974665074982
0.396000000000000185,-11.574276036814149293
0.397000000000000186,-11.607429814222291142
0.398000000000000187,-11.637151278494757278
0.399000000000000188,-11.663523183739897604
0.400000000000000189,-11.686627068380037286
0.401000000000000190,-11.706543257685154913
0.402000000000000191,-11.723350866988827335
0.403000000000000191,-11.737127805547673987
0.404000000000000192,-11.747950781007224563
0.405000000000000193,-11.755895304438277904
0.406000000000000194,-11.761035695909811238
0.407000000000000195,-11.763445090565653572
0.408000000000000196,-11.763195445173479925
0.409000000000000197,-11.760357545116402633
0.410000000000000198,-11.755001011798567490
0.411000000000000199,-11.747194310437180320
0.412000000000000199,-11.737004758215373812
0.413000000000000200,-11.724498532770656567
0.414000000000000201,-11.709740680995643913
0.415000000000000202,-11.692795128128260274
0.416000000000000203,-11.673724687110070164
0.417000000000000204,-11.652591068192409196
0.418000000000000205,-11.629454888770691667
0.419000000000000206,-11.604375683428695964
0.420000000000000207,-11.577411914175012697
0.421000000000000207,-11.548620980855371698
0.422000000000000208,-11.518059231724553371
0.423000000000000209,-11.485781974163387531
0.424000000000000210,-11.451843485526319810
0.425000000000000211,-11.416297024106052405
0.426000000000000212,-11.379194840202695005
0.427000000000000213,-11.340588187285025157
0.428000000000000214,-11.300527333232638583
0.429000000000000214,-11.259061571647984934
0.430000000000000215,-11.216239233228034067
0.431000000000000216,-11.172107697185907682
0.432000000000000217,-11.126713402713248158
0.433000000000000218,-11.080101860474513842
0.434000000000000219,-11.032317664125173451
0.435000000000000220,-10.983404501845923207
0.436000000000000221,-10.933405167885572595
0.437000000000000222,-10.882361574105662072
0.438000000000000222,-10.830314761520329014
0.439000000000000223,-10.777304911825179801
0.440000000000000224,-10.723371358909401962
0.441000000000000225,-10.668552600345417858
0.442000000000000226,-10.612886308851255279
0.443000000000000227,-10.556409343720265070
0.444000000000000228,-10.499157762214057499
0.445000000000000229,-10.441166830913900299
0.446000000000000230,-10.382471037026686389
0.447000000000000230,-10.323104099641629006
0.448000000000000231,-10.263098980933971660
0.449000000000000232,-10.202487897312211729
0.450000000000000233,-10.141302330505912010
0.451000000000000234,-10.079573038590677214
0.452000000000000235,-10.017330066947842226
0.453000000000000236,-9.954602759155843472
0.454000000000000237,-9.891419767811076014
0.455000000000000238,-9.827809065275634026
0.456000000000000238,-9.763797954349897168
0.457000000000000239,-9.699413078867767268
0.458000000000000240,-9.634680434212784306
0.459000000000000241,-9.569625377753004258
0.460000000000000242,-9.504272639193414918
0.461000000000000243,-9.438646330843710075
0.462000000000000244,-9.372769957800674234
0.463000000000000245,-9.306666428042939643
0.464000000000000246,-9.240358062437724840
0.465000000000000246,-9.173866604657707313
0.466000000000000247,-9.107213231007255771
0.467000000000000248,-9.040418560156911809
0.468000000000000249,-8.973502662785268313
0.469000000000000250,-8.906485071127255182
0.470000000000000251,-8.839384788428208850
0.471000000000000252,-8.772220298302794816
0.472000000000000253,-8.705009573998461647
0.473000000000000254,-8.637770087562451238
0.474000000000000254,-8.570518818912201908
0.475000000000000255,-8.503272264808362735
0.476000000000000256,-8.436046447730275233
0.477000000000000257,-8.368856924653414353
0.478000000000000258,-8.301718795728463718
0.479000000000000259,-8.234646712861891871
0.480000000000000260,-8.167654888197731111
0.481000000000000261,-8.100757102500363516
0.482000000000000262,-8.033966713438246643
0.483000000000000262,-7.967296663768602016
0.484000000000000263,-7.900759489422702231
0.485000000000000264,-7.834367327492191002
0.486000000000000265,-7.768131924116130627
0.487000000000000266,-7.702064642268946493
0.488000000000000267,-7.636176469449488025
0.489000000000000268,-7.570478025271230038
0.490000000000000269,-7.504979568953745073
0.491000000000000270,-7.439691006715863253
0.492000000000000270,-7.374621899070473496
0.493000000000000271,-7.309781468021459894
0.494000000000000272,-7.245178604162992642
0.495000000000000273,-7.180821873681376033
0.496000000000000274,-7.116719525260037926
0.497000000000000275,-7.052879496887781485
0.498000000000000276,-6.989309422570883612
0.499000000000000277,-6.926016638949384685
0.500000000000000222,-6.863008191817941750
0.501000000000000334,-6.800290842551868664
0.502000000000000224,-6.737871074438740671
0.503000000000000336,-6.675755098916013708
0.504000000000000226,-6.613948861715416960
0.505000000000000338,-6.552458048914294508
0.506000000000000227,-6.491288092894917483
0.507000000000000339,-6.430444178211875972
0.508000000000000229,-6.369931247368552540
0.509000000000000341,-6.309754006502923396
0.510000000000000231,-6.249916930983767216
0.511000000000000343,-6.190424270917377569
0.512000000000000233,-6.131280056565972636
0.513000000000000345,-6.072488103677980753
0.514000000000000234,-6.014052018731473659
0.515000000000000346,-5.955975204090690589
0.516000000000000236,-5.898260863077154248
0.517000000000000348,-5.840912004955453263
0.518000000000000238,-5.783931449834924798
0.519000000000000350,-5.727321833487532210
0.520000000000000240,-5.671085612083065719
0.521000000000000352,-5.615225066842214119
0.522000000000000242,-5.559742308608365491
0.523000000000000353,-5.504639282338838591
0.524000000000000243,-5.449917771516409992
0.525000000000000355,-5.395579402481907039
0.526000000000000245,-5.341625648688674843
0.527000000000000357,-5.288057834879638541
0.528000000000000247,-5.234877141187943117
0.529000000000000359,-5.182084607161793421
0.530000000000000249,-5.129681135714504236
0.531000000000000361,-5.077667497000396324
0.532000000000000250,-5.026044332217584731
0.533000000000000362,-4.974812157338265095
0.534000000000000252,-4.923971366767520230
0.535000000000000364,-4.873522236931362883
0.536000000000000254,-4.823464929795014733
0.537000000000000366,-4.773799496311952772
0.538000000000000256,-4.724525879805040240
0.539000000000000368,-4.675643919280052963
0.540000000000000258,-4.627153352672987552
0.541000000000000369,-4.579053820031456112
0.542000000000000259,-4.531344866631551227
0.543000000000000371,-4.484025946030560483
0.544000000000000261,-4.437096423056699379
0.545000000000000373,-4.390555576736547394
0.546000000000000263,-4.344402603161148235
0.547000000000000375,-4.298636618291352463
0.548000000000000265,-4.253256660703753411
0.549000000000000377,-4.208261694277385168
0.550000000000000266,-4.163650610822684506
0.551000000000000378,-4.119422232653017879
0.552000000000000268,-4.075575315099937868
0.553000000000000380,-4.032108548972828110
0.554000000000000270,-3.989020562963903505
0.555000000000000382,-3.946309925999123003
0.556000000000000272,-3.903975149536264233
0.557000000000000384,-3.862014689810402412
0.558000000000000274,-3.820426950028233737
0.559000000000000385,-3.779210282511429764
0.560000000000000275,-3.738362990790351059
0.561000000000000387,-3.697883331648530003
0.562000000000000277,-3.657769517118902858
0.563000000000000389,-3.618019716432533617
0.564000000000000279,-3.578632057920619225
0.565000000000000391,-3.539604630870458291
0.566000000000000281,-3.500935487336314544
0.567000000000000393,-3.462622643905722608
0.568000000000000282,-3.424664083422253036
0.569000000000000394,-3.387057756665165620
0.570000000000000284,-3.349801583986997677
0.571000000000000396,-3.312893456909589585
0.572000000000000286,-3.276331239679468155
0.573000000000000398,-3.240112770783068807
0.574000000000000288,-3.204235864422769087
0.575000000000000400,-3.168698311954266433
0.576000000000000290,-3.133497883286072927
0.577000000000000401,-3.098632328241767375
0.578000000000000291,-3.064099377885750819
0.579000000000000403,-3.029896745813133840
0.580000000000000293,-2.996022129404487977
0.581000000000000405,-2.962473211045974164
0.582000000000000295,-2.929247659315778129
0.583000000000000407,-2.896343130137173816
0.584000000000000297,-2.863757267899101233
0.585000000000000409,-2.831487706544778771
0.586000000000000298,-2.799532070629026315
0.587000000000000410,-2.767887976344851175
0.588000000000000300,-2.736553032520014916
0.589000000000000412,-2.705524841584010964
0.590000000000000302,-2.674801000506247917
0.591000000000000414,-2.644379101705911506
0.592000000000000304,-2.614256733934080756
0.593000000000000416,-2.584431483128664553
0.594000000000000306,-2.554900933242859828
0.595000000000000417,-2.525662667047436916
0.596000000000000307,-2.496714266907647417
0.597000000000000419,-2.468053315535133407
0.598000000000000309,-2.439677396715472124
0.599000000000000421,-2.411584096011760714
0.600000000000000311,-2.383771001444935589
0.601000000000000423,-2.356235704151129706
0.602000000000000313,-2.328975799016786308
0.603000000000000425,-2.301988885291756937
0.604000000000000314,-2.275272567181251926
0.605000000000000426,-2.248824454416648244
0.606000000000000316,-2.222642162806077959
0.607000000000000428,-2.196723314764928325
0.608000000000000318,-2.171065539826959156
0.609000000000000430,-2.145666475136235984
0.610000000000000320,-2.120523765920617087
0.611000000000000432,-2.095635065946926723
0.612000000000000322,-2.070998037958486915
0.613000000000000433,-2.046610354095292017
0.614000000000000323,-2.022469696297278574
0.615000000000000435,-1.998573756691120362
0.616000000000000325,-1.974920237960912317
0.617000000000000437,-1.951506853703133926
0.618000000000000327,-1.928331328766373698
0.619000000000000439,-1.905391399576007672
0.620000000000000329,-1.882684814444395727
0.621000000000000441,-1.860209333866884140
0.622000000000000330,-1.837962730803920142
0.623000000000000442,-1.815942790949735208
0.624000000000000332,-1.794147312987871556
0.625000000000000444,-1.772574108833917306
0.626000000000000334,-1.751221003865806924
0.627000000000000446,-1.730085837141944527
0.628000000000000336,-1.709166461607556586
0.629000000000000448,-1.688460744289544291
0.630000000000000338,-1.667966566480155510
0.631000000000000449,-1.647681823909766363
0.632000000000000339,-1.627604426909086799
0.633000000000000451,-1.607732300561085736
0.634000000000000341,-1.588063384842909764
0.635000000000000453,-1.568595634758082946
0.636000000000000343,-1.549327020459255078
0.637000000000000455,-1.530255527361760182
0.638000000000000345,-1.511379156248332745
0.639000000000000457,-1.492695923365037869
0.640000000000000346,-1.474203860508970676
0.641000000000000458,-1.455901015107628371
0.642000000000000348,-1.437785450290540723
0.643000000000000460,-1.419855244953093010
0.644000000000000350,-1.402108493813001955
0.645000000000000462,-1.384543307459530137
0.646000000000000352,-1.367157812395763283
0.647000000000000464,-1.349950151074028382
0.648000000000000353,-1.332918481924912468
0.649000000000000465,-1.316060979379753526
0.650000000000000355,-1.299375833887146170
0.651000000000000467,-1.282861251923392398
0.652000000000000357,-1.266515455997297979
0.653000000000000469,-1.250336684649332231
0.654000000000000359,-1.234323192445501371
0.655000000000000471,-1.218473249965940974
0.656000000000000361,-1.202785143788622557
0.657000000000000473,-1.187257176468081266
0.658000000000000362,-1.171887666509632941
0.659000000000000474,-1.156674948338964670
0.660000000000000364,-1.141617372267494712
