# CNT15-NH2-14_CS-7021-AC
# h[nm],U(h)[kJ/mol]
0.200000000000000011,73.753803282670020280
0.201000000000000012,72.273316787529239491
0.202000000000000013,70.846863887631371881
0.203000000000000014,69.455628088365827466
0.204000000000000015,68.086261522841468263
0.205000000000000016,66.730100704526563504
0.206000000000000016,65.382225900289142828
0.207000000000000017,64.040524663112407211
0.208000000000000018,62.704848146171443091
0.209000000000000019,61.376301679962736557
0.210000000000000020,60.056681340239705946
0.211000000000000021,58.748050483604970395
0.212000000000000022,57.452440593814102954
0.213000000000000023,56.171656489128750422
0.214000000000000024,54.907165031242911368
0.215000000000000024,53.660047589593013129
0.216000000000000025,52.430998725604219146
0.217000000000000026,51.220356255927526945
0.218000000000000027,50.028150639719051185
0.219000000000000028,48.854164275183634913
0.220000000000000029,47.697993653994508634
0.221000000000000030,46.559109349146432066
0.222000000000000031,45.436910488819627574
0.223000000000000032,44.330771710924707918
0.224000000000000032,43.240081631358805225
0.225000000000000033,42.164272632683129416
0.226000000000000034,41.102842330353219324
0.227000000000000035,40.055367441128723272
0.228000000000000036,39.021511000039446060
0.229000000000000037,38.001023981276624397
0.230000000000000038,36.993742402968571525
0.231000000000000039,35.999580959743049391
0.232000000000000040,35.018524149688801117
0.233000000000000040,34.050615759300413288
0.234000000000000041,33.095947453280793127
0.235000000000000042,32.154647094801660501
0.236000000000000043,31.226867302649246483
0.237000000000000044,30.312774639258510234
0.238000000000000045,29.412539721003192028
0.239000000000000046,28.526328451034448364
0.240000000000000047,27.654294496242634693
0.241000000000000048,26.796573063640590107
0.242000000000000048,25.953275977185494838
0.243000000000000049,25.124488012974765638
0.244000000000000050,24.310264417855119490
0.245000000000000051,23.510629512619676262
0.246000000000000052,22.725576264958259998
0.247000000000000053,21.955066707983029062
0.248000000000000054,21.199033076353522631
0.249000000000000055,20.457379532721407855
0.250000000000000056,19.729984361450981112
0.251000000000000056,19.016702513497641291
0.252000000000000057,18.317368395198094788
0.253000000000000058,17.631798803906672646
0.254000000000000059,16.959795924359259089
0.255000000000000060,16.301150310919627628
0.256000000000000061,15.655643792097583500
0.257000000000000062,15.023052244643810837
0.258000000000000063,14.403148194903707235
0.259000000000000064,13.795703214794784230
0.260000000000000064,13.200490088649578624
0.261000000000000065,12.617284735174113308
0.262000000000000066,12.045867875874874287
0.263000000000000067,11.486026447506002768
0.264000000000000068,10.937554761397358050
0.265000000000000069,10.400255416980648704
0.266000000000000070,9.873939980483992684
0.267000000000000071,9.358429442669921272
0.268000000000000071,8.853554471714835117
0.269000000000000072,8.359155478931743488
0.270000000000000073,7.875082516093759644
0.271000000000000074,7.401195023687977326
0.272000000000000075,6.937361449583598016
0.273000000000000076,6.483458757397191796
0.274000000000000077,6.039371843338656731
0.275000000000000078,5.604992879579008047
0.276000000000000079,5.180220601244842626
0.277000000000000079,4.764959553057822816
0.278000000000000080,4.359119310443638540
0.279000000000000081,3.962613688665716616
0.280000000000000082,3.575359952228632121
0.281000000000000083,3.197278035469160784
0.282000000000000084,2.828289783933850554
0.283000000000000085,2.468318224848859987
0.284000000000000086,2.117286873735994224
0.285000000000000087,1.775119083033095624
0.286000000000000087,1.441737437443989078
0.287000000000000088,1.117063199683035801
0.288000000000000089,0.801015809295822168
0.289000000000000090,0.493512436333780502
0.290000000000000091,0.194467590839665277
0.291000000000000092,-0.096207211639669721
0.292000000000000093,-0.378603728954703178
0.293000000000000094,-0.652817216690339874
0.294000000000000095,-0.918946599463150826
0.295000000000000095,-1.177094591134247636
0.296000000000000096,-1.427367766254225456
0.297000000000000097,-1.669876585353887055
0.298000000000000098,-1.904735376930647650
0.299000000000000099,-2.132062279161808682
0.300000000000000100,-2.351979144505458752
0.301000000000000101,-2.564611410434008310
0.302000000000000102,-2.770087939586721504
0.303000000000000103,-2.968540832633318693
0.304000000000000103,-3.160105217111886855
0.305000000000000104,-3.344919015448110766
0.306000000000000105,-3.523122695281135641
0.307000000000000106,-3.694859005118490192
0.308000000000000107,-3.860272698222368071
0.309000000000000108,-4.019510247494317845
0.310000000000000109,-4.172719553979407081
0.311000000000000110,-4.320049651454885620
0.312000000000000111,-4.461650409407460494
0.313000000000000111,-4.597672236536688217
0.314000000000000112,-4.728265786754150213
0.315000000000000113,-4.853581669479388516
0.316000000000000114,-4.973770165866102211
0.317000000000000115,-5.088980952426854110
0.318000000000000116,-5.199362833363263547
0.319000000000000117,-5.305063482751623205
0.320000000000000118,-5.406229197582407053
0.321000000000000119,-5.503004662507041900
0.322000000000000119,-5.595532727006357732
0.323000000000000120,-5.683954195563628353
0.324000000000000121,-5.768407631301192495
0.325000000000000122,-5.849029173422787053
0.326000000000000123,-5.925952368695180716
0.327000000000000124,-5.999308017101489199
0.328000000000000125,-6.069224031705688915
0.329000000000000126,-6.135825312681935984
0.330000000000000127,-6.199233635384619134
0.331000000000000127,-6.259567552264366341
0.332000000000000128,-6.316942308371816139
0.333000000000000129,-6.371469770134474686
0.334000000000000130,-6.423258367041870365
0.335000000000000131,-6.472413045831094891
0.336000000000000132,-6.519035236726621108
0.337000000000000133,-6.563222831256995349
0.338000000000000134,-6.605070171144239666
0.339000000000000135,-6.644668047740230676
0.340000000000000135,-6.682103711467874518
0.341000000000000136,-6.717460890712177779
0.342000000000000137,-6.750819819598175009
0.343000000000000138,-6.782257274087834631
0.344000000000000139,-6.811846615827076512
0.345000000000000140,-6.839657843175698027
0.346000000000000141,-6.865757648857799822
0.347000000000000142,-6.890209483677407931
0.348000000000000143,-6.913073625753692220
0.349000000000000143,-6.934407254741323356
0.350000000000000144,-6.954264530515135156
0.351000000000000145,-6.972696675812661837
0.352000000000000146,-6.989752062344559036
0.353000000000000147,-7.005476299899820347
0.354000000000000148,-7.019912327991113088
0.355000000000000149,-7.033100509604187422
0.356000000000000150,-7.045078726634974586
0.357000000000000151,-7.055882476617772348
0.358000000000000151,-7.065544970368167199
0.359000000000000152,-7.074097230184621665
0.360000000000000153,-7.081568188273275055
0.361000000000000154,-7.087984785080534422
0.362000000000000155,-7.093372067238594703
0.363000000000000156,-7.097753284848761446
0.364000000000000157,-7.101149987847128031
0.365000000000000158,-7.103582121216746259
0.366000000000000159,-7.105068118828762991
0.367000000000000159,-7.105624995713903047
0.368000000000000160,-7.105268438583142832
0.369000000000000161,-7.104012894433878955
0.370000000000000162,-7.101871657094472212
0.371000000000000163,-7.098856951576237861
0.372000000000000164,-7.094980016117121480
0.373000000000000165,-7.090251181816315196
0.374000000000000166,-7.084679949773052599
0.375000000000000167,-7.078275065656043807
0.376000000000000167,-7.071044591643106614
0.377000000000000168,-7.062995975682339278
0.378000000000000169,-7.054136118037583003
0.379000000000000170,-7.044471435091833378
0.380000000000000171,-7.034007920392086888
0.381000000000000172,-7.022751202928747105
0.382000000000000173,-7.010706602651278097
0.383000000000000174,-6.997879183230281797
0.384000000000000175,-6.984273802083427185
0.385000000000000175,-6.969895157689840914
0.386000000000000176,-6.954747834224066949
0.387000000000000177,-6.938836343546299190
0.388000000000000178,-6.922165164591400632
0.389000000000000179,-6.904738780203580006
0.390000000000000180,-6.886561711468409896
0.391000000000000181,-6.867638549597542053
0.392000000000000182,-6.847973985425009680
0.393000000000000183,-6.827572836577066262
0.394000000000000183,-6.806440072380186557
0.395000000000000184,-6.784580836574089169
0.396000000000000185,-6.762000467898603873
0.397000000000000186,-6.738704518624720308
0.398000000000000187,-6.714698771101545560
0.399000000000000188,-6.689989252391692176
0.400000000000000189,-6.664582247068443266
0.401000000000000190,-6.638484308248415289
0.402000000000000191,-6.611702266933619399
0.403000000000000191,-6.584243239736750297
0.404000000000000192,-6.556114635063352125
0.405000000000000193,-6.527324157823986006
0.406000000000000194,-6.497879812748924344
0.407000000000000195,-6.467789906377198861
0.408000000000000196,-6.437063047790674730
0.409000000000000197,-6.405708148162995386
0.410000000000000198,-6.373734419191971590
0.411000000000000199,-6.341151370482516647
0.412000000000000199,-6.307968805946147839
0.413000000000000200,-6.274196819281298687
0.414000000000000201,-6.239845788597325971
0.415000000000000202,-6.204926370243307510
0.416000000000000203,-6.169449491901227489
0.417000000000000204,-6.133426345001215196
0.418000000000000205,-6.096868376514903431
0.419000000000000206,-6.059787280181103242
0.420000000000000207,-6.022194987216081152
0.421000000000000207,-5.984103656559167206
0.422000000000000208,-5.945525664702101309
0.423000000000000209,-5.906473595149214439
0.424000000000000210,-5.866960227553271068
0.425000000000000211,-5.826998526570080550
0.426000000000000212,-5.786601630473305669
0.427000000000000213,-5.745782839568716938
0.428000000000000214,-5.704555604445785022
0.429000000000000214,-5.662933514102277854
0.430000000000000215,-5.620930283976096398
0.431000000000000216,-5.578559743916734703
0.432000000000000217,-5.535835826126981551
0.433000000000000218,-5.492772553103932864
0.434000000000000219,-5.449384025606708981
0.435000000000000220,-5.405684410676672158
0.436000000000000221,-5.361687929734371139
0.437000000000000222,-5.317408846775939502
0.438000000000000222,-5.272861456690217885
0.439000000000000223,-5.228060073716442879
0.440000000000000224,-5.183019020060891435
0.441000000000000225,-5.137752614689540920
0.442000000000000226,-5.092275162312679626
0.443000000000000227,-5.046600942575762971
0.444000000000000228,-5.000744199470048557
0.445000000000000229,-4.954719130975017372
0.446000000000000230,-4.908539878943585677
0.447000000000000230,-4.862220519240148420
0.448000000000000231,-4.815775052140262247
0.449000000000000232,-4.769217392999808958
0.450000000000000233,-4.722561363200751927
0.451000000000000234,-4.675820681379302179
0.452000000000000235,-4.629008954941850718
0.453000000000000236,-4.582139671872781150
0.454000000000000237,-4.535226192837932935
0.455000000000000238,-4.488281743586260752
0.456000000000000238,-4.441319407651944218
0.457000000000000239,-4.394352119358222453
0.458000000000000240,-4.347392657123789306
0.459000000000000241,-4.300453637071780300
0.460000000000000242,-4.253547506941098177
0.461000000000000243,-4.206686540298920640
0.462000000000000244,-4.159882831053150376
0.463000000000000245,-4.113148288262585162
0.464000000000000246,-4.066494631242754565
0.465000000000000246,-4.019933384964376799
0.466000000000000247,-3.973475875741400820
0.467000000000000248,-3.927133227205032995
0.468000000000000249,-3.880916356559969582
0.469000000000000250,-3.834835971118593534
0.470000000000000251,-3.788902565108765774
0.471000000000000252,-3.743126416750415242
0.472000000000000253,-3.697517585596183043
0.473000000000000254,-3.652085910130764113
0.474000000000000254,-3.606841005623810936
0.475000000000000255,-3.561792262230766504
0.476000000000000256,-3.516948843336076269
0.477000000000000257,-3.472319684132964657
0.478000000000000258,-3.427913490433863952
0.479000000000000259,-3.383738737705550559
0.480000000000000260,-3.339803670322914364
0.481000000000000261,-3.296116301035154628
0.482000000000000262,-3.252684410638308155
0.483000000000000262,-3.209515547847838324
0.484000000000000263,-3.166617029364985569
0.485000000000000264,-3.123995940130686044
0.486000000000000265,-3.081659133760733749
0.487000000000000266,-3.039613233155915140
0.488000000000000267,-2.997864631280879877
0.489000000000000268,-2.956419492105559765
0.490000000000000269,-2.915283751702840487
0.491000000000000270,-2.874463119496490471
0.492000000000000270,-2.833963079653099015
0.493000000000000271,-2.793788892612108832
0.494000000000000272,-2.753945596747922053
0.495000000000000273,-2.714438010158141346
0.496000000000000274,-2.675270732572228916
0.497000000000000275,-2.636448147374725437
0.498000000000000276,-2.597974423737444916
0.499000000000000277,-2.559853518855095711
0.500000000000000222,-2.522089180278761056
0.501000000000000334,-2.484684948341995270
0.502000000000000224,-2.447644158674203041
0.503000000000000336,-2.410969944796076181
0.504000000000000226,-2.374665240792208198
0.505000000000000338,-2.338732784055683744
0.506000000000000227,-2.303175118100104779
0.507000000000000339,-2.267994595434012162
0.508000000000000229,-2.233193380493380786
0.509000000000000341,-2.198773452627424962
0.510000000000000231,-2.164736609133621315
0.511000000000000343,-2.131084468337367532
0.512000000000000233,-2.097818472712408955
0.513000000000000345,-2.064939892037766622
0.514000000000000234,-2.032449826587511943
0.515000000000000346,-2.000349210349249507
0.516000000000000236,-1.968638814267980042
0.517000000000000348,-1.937319249511491037
0.518000000000000238,-1.906390970754025416
0.519000000000000350,-1.875854279474713948
0.520000000000000240,-1.845709327267701427
0.521000000000000352,-1.815956119160747395
0.522000000000000242,-1.786594516939342014
0.523000000000000353,-1.757624242473420084
0.524000000000000243,-1.729044881043913851
0.525000000000000355,-1.700855884666423679
0.526000000000000245,-1.673056575409506808
0.527000000000000357,-1.645646148704982492
0.528000000000000247,-1.618623676648062837
0.529000000000000359,-1.591988111284838858
0.530000000000000249,-1.565738287885146685
0.531000000000000361,-1.539872928198559254
0.532000000000000250,-1.514390643691697402
0.533000000000000362,-1.489289938764801091
0.534000000000000252,-1.464569213945910553
0.535000000000000364,-1.440226769060839018
0.536000000000000254,-1.416260806377436676
0.537000000000000366,-1.392669433722423245
0.538000000000000256,-1.369450667569585223
0.539000000000000368,-1.346602436097708022
0.540000000000000258,-1.324122582217186261
0.541000000000000369,-1.302008866563867606
0.542000000000000259,-1.280258970459222212
0.543000000000000371,-1.258870498835544582
0.544000000000000261,-1.237840983125376715
0.545000000000000373,-1.217167884114089382
0.546000000000000263,-1.196848594754866824
0.547000000000000375,-1.176880442945158478
0.548000000000000265,-1.157260694264071743
0.549000000000000377,-1.137986554669784267
0.550000000000000266,-1.119055173156586980
0.551000000000000378,-1.100463644370835770
0.552000000000000268,-1.082209011185415903
0.553000000000000380,-1.064288267232199825
0.554000000000000270,-1.046698359392177036
0.555000000000000382,-1.029436190242798421
0.556000000000000272,-1.012498620462393362
0.557000000000000384,-0.995882471191212870
0.558000000000000274,-0.979584526349105644
0.559000000000000385,-0.963601534909454438
0.560000000000000275,-0.947930213129424937
0.561000000000000387,-0.932567246736322630
0.562000000000000277,-0.917509293070071785
0.563000000000000389,-0.902752983181790092
0.564000000000000279,-0.888294923888497623
0.565000000000000391,-0.874131699783999849
0.566000000000000281,-0.860259875206052627
0.567000000000000393,-0.846675996159916622
0.568000000000000282,-0.833376592198500132
0.569000000000000394,-0.820358178259177562
0.570000000000000284,-0.807617256457600297
0.571000000000000396,-0.795150317838632548
0.572000000000000286,-0.782953844084775419
0.573000000000000398,-0.771024309182221423
0.574000000000000288,-0.759358181044969438
0.575000000000000400,-0.747951923097259774
0.576000000000000290,-0.736801995814660438
0.577000000000000401,-0.725904858224196259
0.578000000000000291,-0.715256969363884276
0.579000000000000403,-0.704854789702045181
0.580000000000000293,-0.694694782516848464
0.581000000000000405,-0.684773415236454408
0.582000000000000295,-0.675087160740244441
0.583000000000000407,-0.665632498621537172
0.584000000000000297,-0.656405916412281965
0.585000000000000409,-0.647403910770190771
0.586000000000000298,-0.638622988628786858
0.587000000000000410,-0.630059668310851695
0.588000000000000300,-0.621710480605791371
0.589000000000000412,-0.613571969811380402
0.590000000000000302,-0.605640694740443464
0.591000000000000414,-0.597913229692980219
0.592000000000000304,-0.590386165394223061
0.593000000000000416,-0.583056109899186770
0.594000000000000306,-0.575919689464251872
0.595000000000000417,-0.568973549386279420
0.596000000000000307,-0.562214354809814076
0.597000000000000419,-0.555638791502929719
0.598000000000000309,-0.549243566602254929
0.599000000000000421,-0.543025409327673292
0.600000000000000311,-0.536981071667342325
0.601000000000000423,-0.531107329033469133
0.602000000000000313,-0.525400980889481284
0.603000000000000425,-0.519858851349043194
0.604000000000000314,-0.514477789747579295
0.605000000000000426,-0.509254671186715635
0.606000000000000316,-0.504186397052302282
0.607000000000000428,-0.499269895506455730
0.608000000000000318,-0.494502121954246143
0.609000000000000430,-0.489880059485487962
0.610000000000000320,-0.485400719292226057
0.611000000000000432,-0.481061141062404052
0.612000000000000322,-0.476858393350263032
0.613000000000000433,-0.472789573923986961
0.614000000000000323,-0.468851810091111876
0.615000000000000435,-0.465042259002216185
0.616000000000000325,-0.461358107933387829
0.617000000000000437,-0.457796574547993829
0.618000000000000327,-0.454354907138246555
0.619000000000000439,-0.451030384847035726
0.620000000000000329,-0.447820317870560536
0.621000000000000441,-0.444722047642219009
0.622000000000000330,-0.441732946998231735
0.623000000000000442,-0.438850420325493651
0.624000000000000332,-0.436071903692093976
0.625000000000000444,-0.433394864961007209
0.626000000000000334,-0.430816803887365096
0.627000000000000446,-0.428335252199799954
0.628000000000000336,-0.425947773666278728
0.629000000000000448,-0.423651964144880822
0.630000000000000338,-0.421445451619945621
0.631000000000000449,-0.419325896224022554
0.632000000000000339,-0.417290990246027893
0.633000000000000451,-0.415338458126046639
0.634000000000000341,-0.413466056437158447
0.635000000000000453,-0.411671573854731521
0.636000000000000343,-0.409952831113505389
0.637000000000000455,-0.408307680952947838
0.638000000000000345,-0.406734008051180318
0.639000000000000457,-0.405229728947894885
0.640000000000000346,-0.403792791956622932
0.641000000000000458,-0.402421177066710822
0.642000000000000348,-0.401112895835359751
0.643000000000000460,-0.399865991270088039
0.644000000000000350,-0.398678537701942837
0.645000000000000462,-0.397548640649820206
0.646000000000000352,-0.396474436676195641
0.647000000000000464,-0.395454093234608617
0.648000000000000353,-0.394485808509224989
0.649000000000000465,-0.393567811246755939
0.650000000000000355,-0.392698360581079042
0.651000000000000467,-0.391875745850819857
0.652000000000000357,-0.391098286410230589
0.653000000000000469,-0.390364331433600220
0.654000000000000359,-0.389672259713535696
0.655000000000000471,-0.389020479453322854
0.656000000000000361,-0.388407428053698101
0.657000000000000473,-0.387831571894243665
0.658000000000000362,-0.387291406109698255
0.659000000000000474,-0.386785454361401437
0.660000000000000364,-0.386312268604154352
0.661000000000000476,-0.385870428848698155
0.662000000000000366,-0.385458542920063152
0.663000000000000478,-0.385075246212025601
