# CNT15-NH2-14_CS-20788-AC
# h[nm],U(h)[kJ/mol]
0.200000000000000011,102.397968954954791343
0.201000000000000012,100.455689152361998140
0.202000000000000013,98.796257254227469957
0.203000000000000014,97.272450306222054905
0.204000000000000015,95.798477058116603189
0.205000000000000016,94.328918643068874417
0.206000000000000016,92.843895129094221375
0.207000000000000017,91.338814873982798304
0.208000000000000018,89.817460839276193951
0.209000000000000019,88.287475513370708313
0.210000000000000020,86.757543089737467312
0.211000000000000021,85.235749317476745546
0.212000000000000022,83.728738093498819239
0.213000000000000023,82.241388971380928297
0.214000000000000024,80.776818872850384423
0.215000000000000024,79.336570344845114278
0.216000000000000025,77.920892368393680272
0.217000000000000026,76.529051638877945152
0.218000000000000027,75.159635239355225167
0.219000000000000028,73.810821922401856909
0.220000000000000029,72.480610503188515281
0.221000000000000030,71.167001455336929894
0.222000000000000031,69.868132691349757124
0.223000000000000032,68.582373460232957996
0.224000000000000032,67.308381878481242211
0.225000000000000033,66.045132254231972979
0.226000000000000034,64.791918383974504536
0.227000000000000035,63.548338627225589903
0.228000000000000036,62.314267962556037617
0.229000000000000037,61.089821514759215404
0.230000000000000038,59.875313297531235435
0.231000000000000039,58.671213191351945682
0.232000000000000040,57.478104504995371826
0.233000000000000040,56.296643869643865798
0.234000000000000041,55.127524695241291397
0.235000000000000042,53.971444980904479394
0.236000000000000043,52.829079911780283396
0.237000000000000044,51.701059387735483597
0.238000000000000045,50.587950407168946754
0.239000000000000046,49.490244063842204980
0.240000000000000047,48.408346797640696479
0.241000000000000048,47.342575463657830426
0.242000000000000048,46.293155740554254862
0.243000000000000049,45.260223382126817171
0.244000000000000050,44.243827819562632442
0.245000000000000051,43.243937640858469251
0.246000000000000052,42.260447504056244838
0.247000000000000053,41.293186078668171035
0.248000000000000054,40.341924651998908757
0.249000000000000055,39.406386081644320996
0.250000000000000056,38.486253820395155856
0.251000000000000056,37.581180783676181534
0.252000000000000057,36.690797871452289769
0.253000000000000058,35.814721995493947304
0.254000000000000059,34.952563498523915086
0.255000000000000060,34.103932883790818664
0.256000000000000061,33.268446801915089850
0.257000000000000062,32.445733266444136689
0.258000000000000063,31.635436090546694032
0.259000000000000064,30.837218554853347285
0.260000000000000064,30.050766330841859997
0.261000000000000065,29.275789695637371324
0.262000000000000066,28.512025082925550379
0.263000000000000067,27.759236021153725460
0.264000000000000068,27.017213514601650104
0.265000000000000069,26.285775925516240648
0.266000000000000070,25.564768416588623978
0.267000000000000071,24.854062012846711127
0.268000000000000071,24.153552340773803309
0.269000000000000072,23.463158100344024604
0.270000000000000073,22.782819322876640911
0.271000000000000074,22.112495464315820470
0.272000000000000075,21.452163379884176209
0.273000000000000076,20.801815222163604346
0.274000000000000077,20.161456300631090954
0.275000000000000078,19.531102936611421939
0.276000000000000079,18.910780343579325802
0.277000000000000079,18.300520558808884175
0.278000000000000080,17.700360448582856066
0.279000000000000081,17.110339805570095706
0.280000000000000082,16.530499553590797035
0.281000000000000083,15.960880071832274751
0.282000000000000084,15.401519647668408197
0.283000000000000085,14.852453064579595576
0.284000000000000086,14.313710329267772536
0.285000000000000087,13.785315539913341354
0.286000000000000087,13.267285895618176284
0.287000000000000088,12.759630845414678291
0.288000000000000089,12.262351373784278863
0.289000000000000090,11.775439418405454717
0.290000000000000091,11.298877414830744925
0.291000000000000092,10.832637961956027794
0.292000000000000093,10.376683601482495689
0.293000000000000094,9.930966704065117057
0.294000000000000095,9.495429454476733255
0.295000000000000095,9.070003927879625394
0.296000000000000096,8.654612249173430527
0.297000000000000097,8.249166827364579291
0.298000000000000098,7.853570656966842201
0.299000000000000099,7.467717678581889729
0.300000000000000100,7.091493191013000796
0.301000000000000101,6.724774307522190853
0.302000000000000102,6.367430449144028337
0.303000000000000103,6.019323868305638925
0.304000000000000103,5.680310196369054765
0.305000000000000104,5.350239009096728893
0.306000000000000105,5.028954404441142501
0.307000000000000106,4.716295587467524975
0.308000000000000107,4.412097457629815089
0.309000000000000108,4.116191194030664136
0.310000000000000109,3.828404834700991355
0.311000000000000110,3.548563846332969174
0.312000000000000111,3.276491681285374824
0.313000000000000111,3.012010319054749807
0.314000000000000112,2.754940789763319575
0.315000000000000113,2.505103677556812070
0.316000000000000114,2.262319602129394092
0.317000000000000115,2.026409676899020074
0.318000000000000116,1.797195942643238009
0.319000000000000117,1.574501775673416759
0.320000000000000118,1.358152269873776907
0.321000000000000119,1.147974592160679652
0.322000000000000119,0.943798311128142609
0.323000000000000120,0.745455698837438452
0.324000000000000121,0.552782005881937488
0.325000000000000122,0.365615710015062934
0.326000000000000123,0.183798738768694292
0.327000000000000124,0.007176666612814931
0.328000000000000125,-0.164401112684573386
0.329000000000000126,-0.331081237744128898
0.330000000000000127,-0.493006254475345851
0.331000000000000127,-0.650314513289390161
0.332000000000000128,-0.803140087668252511
0.333000000000000129,-0.951612713089421858
0.334000000000000130,-1.095857745270677031
0.335000000000000131,-1.235996136675309831
0.336000000000000132,-1.372144430201095222
0.337000000000000133,-1.504414768968604488
0.338000000000000134,-1.632914921123053364
0.339000000000000135,-1.757748318568724599
0.340000000000000135,-1.879014108566656294
0.341000000000000136,-1.996807217141709057
0.342000000000000137,-2.111218423266182143
0.343000000000000138,-2.222334442811335187
0.344000000000000139,-2.330238021286517913
0.345000000000000140,-2.435008034416103584
0.346000000000000141,-2.536719595637994207
0.347000000000000142,-2.635444169642567225
0.348000000000000143,-2.731249691108135202
0.349000000000000143,-2.824200687826899703
0.350000000000000144,-2.914358407454746391
0.351000000000000145,-3.001780947157626223
0.352000000000000146,-3.086523385467667246
0.353000000000000147,-3.168637915701911556
0.354000000000000148,-3.248173980336809485
0.355000000000000149,-3.325178405771071599
0.356000000000000150,-3.399695536948565522
0.357000000000000151,-3.471767371351396125
0.358000000000000151,-3.541433691910840231
0.359000000000000152,-3.608732198420351089
0.360000000000000153,-3.673698637070694328
0.361000000000000154,-3.736366927761284984
0.362000000000000155,-3.796769288875502468
0.363000000000000156,-3.854936359239432342
0.364000000000000157,-3.910897317014182306
0.365000000000000158,-3.964679995301608528
0.366000000000000159,-4.016310994270662071
0.367000000000000159,-4.065815789638797639
0.368000000000000160,-4.113218837367714542
0.369000000000000161,-4.158543674456682382
0.370000000000000162,-4.201813015739257473
0.371000000000000163,-4.243048846610223634
0.372000000000000164,-4.282272511629455103
0.373000000000000165,-4.319504798967898296
0.374000000000000166,-4.354766020678210836
0.375000000000000167,-4.388076088788234408
0.376000000000000167,-4.419454587230764453
0.377000000000000168,-4.448920839636306468
0.378000000000000169,-4.476493973028077278
0.379000000000000170,-4.502192977470079072
0.380000000000000171,-4.526036761729232083
0.381000000000000172,-4.548044205022009123
0.382000000000000173,-4.568234204924346287
0.383000000000000174,-4.586625721531284228
0.384000000000000175,-4.603237817959163536
0.385000000000000175,-4.618089697289134321
0.386000000000000176,-4.631200736055956391
0.387000000000000177,-4.642590514389846490
0.388000000000000178,-4.652278842923454505
0.389000000000000179,-4.660285786578294065
0.390000000000000180,-4.666631685347828906
0.391000000000000181,-4.671337172195958232
0.392000000000000182,-4.674423188190897527
0.393000000000000183,-4.675910994995319037
0.394000000000000183,-4.675822184833811512
0.395000000000000184,-4.674178688058715281
0.396000000000000185,-4.671002778434757197
0.397000000000000186,-4.666317076262154195
0.398000000000000187,-4.660144549456655128
0.399000000000000188,-4.652508512703500188
0.400000000000000189,-4.643432624800467146
0.401000000000000190,-4.632940884303357265
0.402000000000000191,-4.621057623584941432
0.403000000000000191,-4.607807501415982721
0.404000000000000192,-4.593215494174565983
0.405000000000000193,-4.577306885787006507
0.406000000000000194,-4.560107256501044759
0.407000000000000195,-4.541642470588934444
0.408000000000000196,-4.521938663075006026
0.409000000000000197,-4.501022225579262681
0.410000000000000198,-4.478919791365461478
0.411000000000000199,-4.455658219678650056
0.412000000000000199,-4.431264579454313512
0.413000000000000200,-4.405766132477661579
0.414000000000000201,-4.379190316068627631
0.415000000000000202,-4.351564725364633013
0.416000000000000203,-4.322917095270218724
0.417000000000000204,-4.293275282139155102
0.418000000000000205,-4.262667245251693160
0.419000000000000206,-4.231121028146355378
0.420000000000000207,-4.198664739862507211
0.421000000000000207,-4.165326536147195391
0.422000000000000208,-4.131134600676214852
0.423000000000000209,-4.096117126337139425
0.424000000000000210,-4.060302296618498730
0.425000000000000211,-4.023718267146937144
0.426000000000000212,-3.986393147411359195
0.427000000000000213,-3.948354982710230665
0.428000000000000214,-3.909631736355950515
0.429000000000000214,-3.870251272167402501
0.430000000000000215,-3.830241337279563396
0.431000000000000216,-3.789629545296720803
0.432000000000000217,-3.748443359813399045
0.433000000000000218,-3.706710078325149649
0.434000000000000219,-3.664456816549134910
0.435000000000000220,-3.621710493172493273
0.436000000000000221,-3.578497815044455965
0.437000000000000222,-3.534845262826403545
0.438000000000000222,-3.490779077112311057
0.439000000000000223,-3.446325245030247064
0.440000000000000224,-3.401509487334066328
0.441000000000000225,-3.356357245992767524
0.442000000000000226,-3.310893672283840683
0.443000000000000227,-3.265143615395037280
0.444000000000000228,-3.219131611538237792
0.445000000000000229,-3.172881873577432010
0.446000000000000230,-3.126418281171807312
0.447000000000000230,-3.079764371433948877
0.448000000000000231,-3.032943330101919521
0.449000000000000232,-2.985977983223023102
0.450000000000000233,-2.938890789346448873
0.451000000000000234,-2.891703832220606785
0.452000000000000235,-2.844438813990751935
0.453000000000000236,-2.797117048891217372
0.454000000000000237,-2.749759457426383502
0.455000000000000238,-2.702386561033439438
0.456000000000000238,-2.655018477219748263
0.457000000000000239,-2.607674915166875440
0.458000000000000240,-2.560375171793023874
0.459000000000000241,-2.513138128264928550
0.460000000000000242,-2.465982246950240597
0.461000000000000243,-2.418925568800617043
0.462000000000000244,-2.371985711155909282
0.463000000000000245,-2.325179865958965308
0.464000000000000246,-2.278524798371005744
0.465000000000000246,-2.232036845776705469
0.466000000000000247,-2.185731917168285854
0.467000000000000248,-2.139625492897659687
0.468000000000000249,-2.093732624785578533
0.469000000000000250,-2.048067936576591475
0.470000000000000251,-2.002645624728623730
0.471000000000000252,-1.957479459525817589
0.472000000000000253,-1.912582786503510990
0.473000000000000254,-1.867968528173854725
0.474000000000000254,-1.823649186040961379
0.475000000000000255,-1.779636842894256832
0.476000000000000256,-1.735943165368893704
0.477000000000000257,-1.692579406762168448
0.478000000000000258,-1.649556410094827230
0.479000000000000259,-1.606884611406477870
0.480000000000000260,-1.564574043274248094
0.481000000000000261,-1.522634338544019972
0.482000000000000262,-1.481074734263790438
0.483000000000000262,-1.439904075808766670
0.484000000000000263,-1.399130821187924312
0.485000000000000264,-1.358763045522133339
0.486000000000000265,-1.318808445683876895
0.487000000000000266,-1.279274345088931897
0.488000000000000267,-1.240167698630546766
0.489000000000000268,-1.201495097746832386
0.490000000000000269,-1.163262775612231348
0.491000000000000270,-1.125476612444287650
0.492000000000000270,-1.088142140916917855
0.493000000000000271,-1.051264551671859504
0.494000000000000272,-1.014848698919976755
0.495000000000000273,-0.978899106124377694
0.496000000000000274,-0.943419971757641362
0.497000000000000275,-0.908415175125431906
0.498000000000000276,-0.873888282249242421
0.499000000000000277,-0.839842551801068260
0.500000000000000222,-0.806280941083050484
0.501000000000000334,-0.773206112045455640
0.502000000000000224,-0.740620437336456439
0.503000000000000336,-0.708526006377386164
0.504000000000000226,-0.676924631457556547
0.505000000000000338,-0.645817853842565959
0.506000000000000227,-0.615206949890740540
0.507000000000000339,-0.585092937171992733
0.508000000000000229,-0.555476580584141066
0.509000000000000341,-0.526358398461428845
0.510000000000000231,-0.497738668670711260
0.511000000000000343,-0.469617434690388968
0.512000000000000233,-0.441994511667928525
0.513000000000000345,-0.414869492451544086
0.514000000000000234,-0.388241753592223904
0.515000000000000346,-0.362110461311950016
0.516000000000000236,-0.336474577434753397
0.517000000000000348,-0.311332865276870874
0.518000000000000238,-0.286683895492847951
0.519000000000000350,-0.262526051874304500
0.520000000000000240,-0.238857537098491390
0.521000000000000352,-0.215676378423768744
0.522000000000000242,-0.192980433329341727
0.523000000000000353,-0.170767395096760144
0.524000000000000243,-0.149034798330827473
0.525000000000000355,-0.127780024417708027
0.526000000000000245,-0.107000306918189916
0.527000000000000357,-0.086692736894116648
0.528000000000000247,-0.066854268166296027
0.529000000000000359,-0.047481722502112467
0.530000000000000249,-0.028571794731425369
0.531000000000000361,-0.010121057789246679
0.532000000000000250,0.007874032316004743
0.533000000000000362,0.025417131609924138
0.534000000000000252,0.042512003336216894
0.535000000000000364,0.059162513218453006
0.536000000000000254,0.075372624800291860
0.537000000000000366,0.091146394865011499
0.538000000000000256,0.106487968934849575
0.539000000000000368,0.121401576850869913
0.540000000000000258,0.135891528433665115
0.541000000000000369,0.149962209225426468
0.542000000000000259,0.163618076313522515
0.543000000000000371,0.176863654235934115
0.544000000000000261,0.189703530968594741
0.545000000000000373,0.202142353994724994
0.546000000000000263,0.214184826456164545
0.547000000000000375,0.225835703386637443
0.548000000000000265,0.237099788026726932
0.549000000000000377,0.247981928220497722
0.550000000000000266,0.258487012893359736
0.551000000000000378,0.268619968610956827
0.552000000000000268,0.278385756218664793
0.553000000000000380,0.287789367561282428
0.554000000000000270,0.296835822282428219
0.555000000000000382,0.305530164703187945
0.556000000000000272,0.313877460779335871
0.557000000000000384,0.321882795136687327
0.558000000000000274,0.329551268183759682
0.559000000000000385,0.336887993301240474
0.560000000000000275,0.343898094107409735
0.561000000000000387,0.350586701798852096
0.562000000000000277,0.356958952565680776
0.563000000000000389,0.363019985080420771
0.564000000000000279,0.368774938059770185
0.565000000000000391,0.374228947898370135
0.566000000000000281,0.379387146373705963
0.567000000000000393,0.384254658421245288
0.568000000000000282,0.388836599978871544
0.569000000000000394,0.393138075899733264
0.570000000000000284,0.397164177932506912
0.571000000000000396,0.400919982768126459
0.572000000000000286,0.404410550151981241
0.573000000000000398,0.407640921060656969
0.574000000000000288,0.410616115942139093
0.575000000000000400,0.413341133018482965
0.576000000000000290,0.415820946650005852
0.577000000000000401,0.418060505759861312
0.578000000000000291,0.420064732318063794
0.579000000000000403,0.421838519883872221
0.580000000000000293,0.423386732205514982
0.581000000000000405,0.424714201876204733
0.582000000000000295,0.425825729045412160
0.583000000000000407,0.426726080184339718
0.584000000000000297,0.427419986904586824
0.585000000000000409,0.427912144828895169
0.586000000000000298,0.428207212513036173
0.587000000000000410,0.428309810417683956
0.588000000000000300,0.428224519929353786
0.589000000000000412,0.427955882429295720
0.590000000000000302,0.427508398409378543
0.591000000000000414,0.426886526633850516
0.592000000000000304,0.426094683346108005
0.593000000000000416,0.425137241519333187
0.594000000000000306,0.424018530150058304
0.595000000000000417,0.422742833593661493
0.596000000000000307,0.421314390940832506
0.597000000000000419,0.419737395433964711
0.598000000000000309,0.418015993922558948
0.599000000000000421,0.416154286356714753
0.600000000000000311,0.414156325317655560
0.601000000000000423,0.412026115584454011
0.602000000000000313,0.409767613735971370
0.603000000000000425,0.407384727787130640
0.604000000000000314,0.404881316858563711
0.605000000000000426,0.402261190878805075
0.606000000000000316,0.399528110318100649
0.607000000000000428,0.396685785952977210
0.608000000000000318,0.393737878660702034
0.609000000000000430,0.390687999242799844
0.610000000000000320,0.387539708276780526
0.611000000000000432,0.384296515995242838
0.612000000000000322,0.380961882191580725
0.613000000000000433,0.377539216151432100
0.614000000000000323,0.374031876609145164
0.615000000000000435,0.370443171728428111
0.616000000000000325,0.366776359106493088
0.617000000000000437,0.363034645800862421
0.618000000000000327,0.359221188378156253
0.619000000000000439,0.355339092984134297
0.620000000000000329,0.351391415434254284
0.621000000000000441,0.347381161324057497
0.622000000000000330,0.343311286158725582
0.623000000000000442,0.339184695501071443
0.624000000000000332,0.335004245137400236
0.625000000000000444,0.330772741260466963
0.626000000000000334,0.326492940669028120
0.627000000000000446,0.322167550983255169
0.628000000000000336,0.317799230875475458
0.629000000000000448,0.313390590315586581
0.630000000000000338,0.308944190830621246
0.631000000000000449,0.304462545777800631
0.632000000000000339,0.299948120630628146
0.633000000000000451,0.295403333277361679
0.634000000000000341,0.290830554331429292
0.635000000000000453,0.286232107453147755
0.636000000000000343,0.281610269682384284
0.637000000000000455,0.276967271781485835
0.638000000000000345,0.272305298588134015
0.639000000000000457,0.267626489377551124
0.640000000000000346,0.262932938233642610
0.641000000000000458,0.258226694428585146
0.642000000000000348,0.253509762810447070
0.643000000000000460,0.248784104198368550
0.644000000000000350,0.244051635784931664
0.645000000000000462,0.239314231545231071
0.646000000000000352,0.234573722652335948
0.647000000000000464,0.229831897898661819
0.648000000000000353,0.225090504122931023
0.649000000000000465,0.220351246642317922
0.650000000000000355,0.215615789689440895
0.651000000000000467,0.210885756853823964
0.652000000000000357,0.206162731527498311
0.653000000000000469,0.201448257354414878
0.654000000000000359,0.196743838683327926
0.655000000000000471,0.192050941023858612
0.656000000000000361,0.187370991505407369
0.657000000000000473,0.182705379338635399
0.658000000000000362,0.178055456279215180
0.659000000000000474,0.173422537093588319
0.660000000000000364,0.168807900026435004
0.661000000000000476,0.164212787269606642
0.662000000000000366,0.159638405432279279
0.663000000000000478,0.155085926012036163
0.664000000000000368,0.150556485866711220
0.665000000000000480,0.146051187686672884
0.666000000000000369,0.141571100467420885
