# CNT15-NH2-14_CS-61707-AC
# h[nm],U(h)[kJ/mol]
0.149999999999999994,165.562033850974103188
0.150999999999999995,163.125294078277335075
0.151999999999999996,161.289325584250207157
0.152999999999999997,159.544273670662846598
0.153999999999999998,157.715536519502677493
0.154999999999999999,155.782463906242639951
0.156000000000000000,153.781514472207533117
0.157000000000000001,151.758830837964268312
0.158000000000000002,149.750470190013061256
0.159000000000000002,147.777120285927821897
0.160000000000000003,145.845600828078715949
0.161000000000000004,143.952862202128358149
0.162000000000000005,142.090266724175080526
0.163000000000000006,140.247153356532805901
0.164000000000000007,138.413364536276446870
0.165000000000000008,136.580762281456514984
0.166000000000000009,134.743914840726461080
0.167000000000000010,132.900180077970958337
0.168000000000000010,131.049400151904876566
0.169000000000000011,129.193385275575565174
0.170000000000000012,127.335320299419748835
0.171000000000000013,125.479185984245788177
0.172000000000000014,123.629251436180908286
0.173000000000000015,121.789666622409342267
0.174000000000000016,119.964163929951183718
0.175000000000000017,118.155864356929555470
0.176000000000000018,116.367175848625748813
0.177000000000000018,114.599767220744979568
0.178000000000000019,112.854599899961527854
0.179000000000000020,111.132000402545116913
0.180000000000000021,109.431758316088576066
0.181000000000000022,107.753236986637972450
0.182000000000000023,106.095486745539190565
0.183000000000000024,104.457353070359388880
0.184000000000000025,102.837574397820688432
0.185000000000000026,101.234866305497746453
0.186000000000000026,99.647990419133378737
0.187000000000000027,98.075807686705800847
0.188000000000000028,96.517316615014891568
0.189000000000000029,94.971677728897333282
0.190000000000000030,93.438225932464561652
0.191000000000000031,91.916472672121557252
0.192000000000000032,90.406099866327451764
0.193000000000000033,88.906947516559938549
0.194000000000000034,87.418996781931028295
0.195000000000000034,85.942350114950144757
0.196000000000000035,84.477209841168146909
0.197000000000000036,83.023856338946373512
0.198000000000000037,81.582626750967563112
0.199000000000000038,80.153894946099399021
0.200000000000000039,78.738053255381572626
0.201000000000000040,77.335496333185588469
0.202000000000000041,75.946607345908162756
0.203000000000000042,74.571746566264152989
0.204000000000000042,73.211242350569108339
0.205000000000000043,71.865384397786172599
0.206000000000000044,70.534419130487677307
0.207000000000000045,69.218546996903441482
0.208000000000000046,67.917921467435576233
0.209000000000000047,66.632649485975790071
0.210000000000000048,65.362793133736630580
0.211000000000000049,64.108372268946524741
0.212000000000000050,62.869367917711016958
0.213000000000000050,61.645726207899102178
0.214000000000000051,60.437362657582298198
0.215000000000000052,59.244166651092790232
0.216000000000000053,58.066005958136841514
0.217000000000000054,56.902731173767527650
0.218000000000000055,55.754179978738456214
0.219000000000000056,54.620181140332455527
0.220000000000000057,53.500558192832819771
0.221000000000000058,52.395132754150651522
0.222000000000000058,51.303727450591921411
0.223000000000000059,50.226168435299932469
0.224000000000000060,49.162287497539089998
0.225000000000000061,48.111923769760146286
0.226000000000000062,47.074925047397393030
0.227000000000000063,46.051148742718048368
0.228000000000000064,45.040462498914649814
0.229000000000000065,44.042744494149339118
0.230000000000000066,43.057883467585170933
0.231000000000000066,42.085778500720365969
0.232000000000000067,41.126338587734025509
0.233000000000000068,40.179482028191650045
0.234000000000000069,39.245135674483627497
0.235000000000000070,38.323234064900468354
0.236000000000000071,37.413718471395618792
0.237000000000000072,36.516535888950208744
0.238000000000000073,35.631637991122133258
0.239000000000000073,34.758980073911232012
0.240000000000000074,33.898520007565693390
0.241000000000000075,33.050217213451880127
0.242000000000000076,32.214031680653157252
0.243000000000000077,31.389923034590186290
0.244000000000000078,30.577849667697410752
0.245000000000000079,29.777767940066212304
0.246000000000000080,28.989631455996185849
0.247000000000000081,28.213390420585533036
0.248000000000000081,27.448991078854042769
0.249000000000000082,26.696375238422604070
0.250000000000000111,25.955479875475408136
0.251000000000000112,25.226236822598451681
0.252000000000000113,24.508572536115128315
0.253000000000000114,23.802407939721842212
0.254000000000000115,23.107658340548805853
0.255000000000000115,22.424233413230801659
0.256000000000000116,21.752037247153332089
0.257000000000000117,21.090968451733989042
0.258000000000000118,20.440920314395963686
0.259000000000000119,19.801781005777492339
0.260000000000000120,19.173433826689755932
0.261000000000000121,18.555757491375281631
0.262000000000000122,17.948626441718722901
0.263000000000000123,17.351911187214675181
0.264000000000000123,16.765478665692818083
0.265000000000000124,16.189192620032141434
0.266000000000000125,15.622913986355825955
0.267000000000000126,15.066501289480262571
0.268000000000000127,14.519811041688109654
0.269000000000000128,13.982698141204078723
0.270000000000000129,13.455016267065008861
0.271000000000000130,12.936618267390144865
0.272000000000000131,12.427356538371201466
0.273000000000000131,11.927083391607990137
0.274000000000000132,11.435651407715658578
0.275000000000000133,10.952913774418025383
0.276000000000000134,10.478724607618755016
0.277000000000000135,10.012939254206418838
0.278000000000000136,9.555414575597589888
0.279000000000000137,9.106009211256488101
0.280000000000000138,8.664583821647637407
0.281000000000000139,8.231001310279022931
0.282000000000000139,7.805127024679078040
0.283000000000000140,7.386828936319465022
0.284000000000000141,6.975977799648904742
0.285000000000000142,6.572447290540475606
0.286000000000000143,6.176114124576969289
0.287000000000000144,5.786858155706789297
0.288000000000000145,5.404562455895603357
0.289000000000000146,5.029113376480491837
0.290000000000000147,4.660400591999617426
0.291000000000000147,4.298317127327527132
0.292000000000000148,3.942759368989962265
0.293000000000000149,3.593627061567589376
0.294000000000000150,3.250823290122371922
0.295000000000000151,2.914254449597167618
0.296000000000000152,2.583830202147239241
0.297000000000000153,2.259463423363982315
0.298000000000000154,1.941070138345435847
0.299000000000000155,1.628569448557440680
0.300000000000000155,1.321883450412876915
0.301000000000000156,1.020937146475918267
0.302000000000000157,0.725658350173057465
0.303000000000000158,0.435977584865265833
0.304000000000000159,0.151827978104138811
0.305000000000000160,-0.126854848137994136
0.306000000000000161,-0.400132890509394934
0.307000000000000162,-0.668065879873861346
0.308000000000000163,-0.930711398779068388
0.309000000000000163,-1.188125000156830868
0.310000000000000164,-1.440360326652872169
0.311000000000000165,-1.687469230022784927
0.312000000000000166,-1.929501890070120185
0.313000000000000167,-2.166506932641204308
0.314000000000000168,-2.398531546229601297
0.315000000000000169,-2.625621596780677969
0.316000000000000170,-2.847821740323532413
0.317000000000000171,-3.065175533092996840
0.318000000000000171,-3.277725538839116659
0.319000000000000172,-3.485513433055093202
0.320000000000000173,-3.688580103886296424
0.321000000000000174,-3.886965749514041502
0.322000000000000175,-4.080709971837039873
0.323000000000000176,-4.269851866301242360
0.324000000000000177,-4.454430107755429802
0.325000000000000178,-4.634483032234475886
0.326000000000000179,-4.810048714596362629
0.327000000000000179,-4.981165041960252005
0.328000000000000180,-5.147869782914201053
0.329000000000000181,-5.310200652479872829
0.330000000000000182,-5.468195372839394608
0.331000000000000183,-5.621891729846158370
0.332000000000000184,-5.771327625356025059
0.333000000000000185,-5.916541125429484183
0.334000000000000186,-6.057570504467704176
0.335000000000000187,-6.194454285356719936
0.336000000000000187,-6.327231275704395586
0.337000000000000188,-6.455940600263332385
0.338000000000000189,-6.580621729641646489
0.339000000000000190,-6.701314505410020494
0.340000000000000191,-6.818059161719588701
0.341000000000000192,-6.930896343550607241
0.342000000000000193,-7.039867121715931653
0.343000000000000194,-7.145013004747179153
0.344000000000000195,-7.246375947793595174
0.345000000000000195,-7.343998358666743442
0.346000000000000196,-7.437923101164495066
0.347000000000000197,-7.528193495809449409
0.348000000000000198,-7.614853318136749927
0.349000000000000199,-7.697946794666177261
0.350000000000000200,-7.777518596692763353
0.351000000000000201,-7.853613832028861097
0.352000000000000202,-7.926278034829178587
0.353000000000000203,-7.995557153628441327
0.354000000000000203,-8.061497537719144901
0.355000000000000204,-8.124145921994141872
0.356000000000000205,-8.183549410376352640
0.357000000000000206,-8.239755457954990092
0.358000000000000207,-8.292811851943953982
0.359000000000000208,-8.342766691575455695
0.360000000000000209,-8.389668367038007446
0.361000000000000210,-8.433565537564373216
0.362000000000000210,-8.474507108771515362
0.363000000000000211,-8.512542209350687727
0.364000000000000212,-8.547720167202101038
0.365000000000000213,-8.580090485104566511
0.366000000000000214,-8.609702816006866044
0.367000000000000215,-8.636606938023387414
0.368000000000000216,-8.660852729213106116
0.369000000000000217,-8.682490142216590101
0.370000000000000218,-8.701569178822454731
0.371000000000000218,-8.718139864530254357
0.372000000000000219,-8.732252223173670558
0.373000000000000220,-8.743956251663753676
0.374000000000000221,-8.753301894908512182
0.375000000000000222,-8.760339020961414036
0.376000000000000223,-8.765117396448344422
0.377000000000000224,-8.767686662318604718
0.378000000000000225,-8.768096309962604806
0.379000000000000226,-8.766395657735582603
0.380000000000000226,-8.762633827923732355
0.381000000000000227,-8.756859724185668270
0.382000000000000228,-8.749122009499929575
0.383000000000000229,-8.739469084645758556
0.384000000000000230,-8.727949067242057879
0.385000000000000231,-8.714609771366848889
0.386000000000000232,-8.699498687776742401
0.387000000000000233,-8.682662964743983025
0.388000000000000234,-8.664149389525878320
0.389000000000000234,-8.644004370479681398
0.390000000000000235,-8.622273919833515876
0.391000000000000236,-8.599003637122294208
0.392000000000000237,-8.574238693295354707
0.393000000000000238,-8.548023815501149869
0.394000000000000239,-8.520403272552169227
0.395000000000000240,-8.491420861072153770
0.396000000000000241,-8.461119892325774217
0.397000000000000242,-8.429543179729710900
0.398000000000000242,-8.396733027042774467
0.399000000000000243,-8.362731217231308634
0.400000000000000244,-8.327579002005082387
0.401000000000000245,-8.291317092017806090
0.402000000000000246,-8.253985647725226471
0.403000000000000247,-8.215624270893062686
0.404000000000000248,-8.176271996745985149
0.405000000000000249,-8.135967286748220673
0.406000000000000250,-8.094748022005399335
0.407000000000000250,-8.052651497276926307
0.408000000000000251,-8.009714415587220415
0.409000000000000252,-7.965972883423899198
0.410000000000000253,-7.921462406510343612
0.411000000000000254,-7.876217886139647462
0.412000000000000255,-7.830273616056698138
0.413000000000000256,-7.783663279874657448
0.414000000000000257,-7.736419949011889230
0.415000000000000258,-7.688576081135207296
0.416000000000000258,-7.640163519094945954
0.417000000000000259,-7.591213490337385572
0.418000000000000260,-7.541756606779801864
0.419000000000000261,-7.491822865133404896
0.420000000000000262,-7.441441647659319258
0.421000000000000263,-7.390641723342788794
0.422000000000000264,-7.339451249470744010
0.423000000000000265,-7.287897773597900475
0.424000000000000266,-7.236008235886771445
0.425000000000000266,-7.183808971806721289
0.426000000000000267,-7.131325715177706748
0.427000000000000268,-7.078583601544140791
0.428000000000000269,-7.025607171864601597
0.429000000000000270,-6.972420376503410289
0.430000000000000271,-6.919046579509851469
0.431000000000000272,-6.865508563171575318
0.432000000000000273,-6.811828532828431371
0.433000000000000274,-6.758028121933540078
0.434000000000000274,-6.704128397348361190
0.435000000000000275,-6.650149864859059790
0.436000000000000276,-6.596112474901490330
0.437000000000000277,-6.542035628482388177
0.438000000000000278,-6.487938183284789773
0.439000000000000279,-6.433838459945837585
0.440000000000000280,-6.379754248495371094
0.441000000000000281,-6.325702814944094143
0.442000000000000282,-6.271700908010374498
0.443000000000000282,-6.217764765974875374
0.444000000000000283,-6.163910123652753370
0.445000000000000284,-6.110152219473209634
0.446000000000000285,-6.056505802656532822
0.447000000000000286,-6.002985140479324855
0.448000000000000287,-5.949604025618325132
0.449000000000000288,-5.896375783564232975
0.450000000000000289,-5.843313280096570139
0.451000000000000290,-5.790428928811376608
0.452000000000000290,-5.737734698693638613
0.453000000000000291,-5.685242121726510334
0.454000000000000292,-5.632962300529976929
0.455000000000000293,-5.580905916021534630
0.456000000000000294,-5.529083235092006277
0.457000000000000295,-5.477504118289802548
0.458000000000000296,-5.426178027507019053
0.459000000000000297,-5.375114033661410495
0.460000000000000298,-5.324320824368082405
0.461000000000000298,-5.273806711595434571
0.462000000000000299,-5.223579639299757105
0.463000000000000300,-5.173647191033349024
0.464000000000000301,-5.124016597521266370
0.465000000000000302,-5.074694744201916130
0.466000000000000303,-5.025688178727000022
0.467000000000000304,-4.977003118416601701
0.468000000000000305,-4.928645457665327356
0.469000000000000306,-4.880620775295644087
0.470000000000000306,-4.832934341854899785
0.471000000000000307,-4.785591126852407839
0.472000000000000308,-4.738595805933561778
0.473000000000000309,-4.691952767987811690
0.474000000000000310,-4.645666122187714464
0.475000000000000311,-4.599739704956310682
0.476000000000000312,-4.554177086860502932
0.477000000000000313,-4.508981579427855380
0.478000000000000314,-4.464156241884855270
0.479000000000000314,-4.419703887814586452
0.480000000000000315,-4.375627091731876916
0.481000000000000316,-4.331928195574376694
0.482000000000000317,-4.288609315107851039
0.483000000000000318,-4.245672346244396600
0.484000000000000319,-4.203118971272237658
0.485000000000000320,-4.160950664995977988
0.486000000000000321,-4.119168700786270065
0.487000000000000322,-4.077774156538035655
0.488000000000000322,-4.036767920536314946
0.489000000000000323,-3.996150697229320592
0.490000000000000324,-3.955923012907862191
0.491000000000000325,-3.916085221290853013
0.492000000000000326,-3.876637509016406913
0.493000000000000327,-3.837579901038383756
0.494000000000000328,-3.798912265928081844
0.495000000000000329,-3.760634321081062215
0.496000000000000330,-3.722745637829008469
0.497000000000000330,-3.685245646456838386
0.498000000000000331,-3.648133641124951421
0.499000000000000332,-3.611408784697152097
0.500000000000000333,-3.575070113474274169
0.501000000000000334,-3.539116541833911889
0.502000000000000335,-3.503546866776761082
0.503000000000000336,-3.468359772379939532
0.504000000000000337,-3.433553834157829776
0.505000000000000338,-3.399127523331038070
0.506000000000000338,-3.365079211004095239
0.507000000000000339,-3.331407172252542015
0.508000000000000340,-3.298109590120097856
0.509000000000000341,-3.265184559526800090
0.510000000000000342,-3.232630091088698698
0.511000000000000343,-3.200444114850135691
0.512000000000000344,-3.168624483929312952
0.513000000000000345,-3.137168978078173076
0.514000000000000346,-3.106075307157465826
0.515000000000000346,-3.075341114527919473
0.516000000000000347,-3.044963980358527333
0.517000000000000348,-3.014941424853037510
0.518000000000000349,-2.985270911395441651
0.519000000000000350,-2.955949849615785219
0.520000000000000351,-2.926975598377106635
0.521000000000000352,-2.898345468684790927
0.522000000000000353,-2.870056726519259804
0.523000000000000353,-2.842106595593178131
0.524000000000000354,-2.814492260034328286
0.525000000000000355,-2.787210866995175174
0.526000000000000356,-2.760259529190302263
0.527000000000000357,-2.733635327362935019
0.528000000000000358,-2.707335312681479866
0.529000000000000359,-2.681356509067523319
0.530000000000000360,-2.655695915456132816
0.531000000000000361,-2.630350507989866582
0.532000000000000361,-2.605317242147476620
0.533000000000000362,-2.580593054808550502
0.534000000000000363,-2.556174866255194633
0.535000000000000364,-2.532059582111938489
0.536000000000000365,-2.508244095224986037
0.537000000000000366,-2.484725287481994283
0.538000000000000367,-2.461500031573414571
0.539000000000000368,-2.438565192696733330
0.540000000000000369,-2.415917630204472477
0.541000000000000369,-2.393554199197338583
0.542000000000000370,-2.371471752063418759
0.543000000000000371,-2.349667139964652929
0.544000000000000372,-2.328137214271653654
0.545000000000000373,-2.306878827947966393
0.546000000000000374,-2.285888836884793385
0.547000000000000375,-2.265164101187340240
0.548000000000000376,-2.244701486413801739
0.549000000000000377,-2.224497864768026911
0.550000000000000377,-2.204550116246907443
0.551000000000000378,-2.184855129743531688
0.552000000000000379,-2.165409804107120362
0.553000000000000380,-2.146211049160726247
0.554000000000000381,-2.127255786677677118
0.555000000000000382,-2.108540951317841472
0.556000000000000383,-2.090063491524497330
0.557000000000000384,-2.071820370382992937
0.558000000000000385,-2.053808566441890360
0.559000000000000385,-2.036025074497746168
0.560000000000000386,-2.018466906344289935
0.561000000000000387,-2.001131091486965996
0.562000000000000388,-1.984014677823705552
0.563000000000000389,-1.967114732292839507
0.564000000000000390,-1.950428341488950279
0.565000000000000391,-1.933952612247566094
0.566000000000000392,-1.917684672199485352
0.567000000000000393,-1.901621670295619237
0.568000000000000393,-1.885760777303052027
0.569000000000000394,-1.870099186273207481
0.570000000000000395,-1.854634112982865846
0.571000000000000396,-1.839362796348751328
0.572000000000000397,-1.824282498816549580
0.573000000000000398,-1.809390506724938064
0.574000000000000399,-1.794684130645527231
0.575000000000000400,-1.780160705699259438
0.576000000000000401,-1.765817591850050716
0.577000000000000401,-1.751652174176397736
0.578000000000000402,-1.737661863121490624
0.579000000000000403,-1.723844094722576603
0.580000000000000404,-1.710196330820255239
0.581000000000000405,-1.696716059248203123
0.582000000000000406,-1.683400794004089152
0.583000000000000407,-1.670248075402174681
0.584000000000000408,-1.657255470208256698
0.585000000000000409,-1.644420571757508664
0.586000000000000409,-1.631741000055769941
0.587000000000000410,-1.619214401864893293
0.588000000000000411,-1.606838450772599458
0.589000000000000412,-1.594610847247492913
0.590000000000000413,-1.582529318679618546
0.591000000000000414,-1.570591619407181394
0.592000000000000415,-1.558795530729881085
0.593000000000000416,-1.547138860909301084
0.594000000000000417,-1.535619445156886975
0.595000000000000417,-1.524235145610008058
0.596000000000000418,-1.512983851296375803
0.597000000000000419,-1.501863478087517745
0.598000000000000420,-1.490871968641486189
0.599000000000000421,-1.480007292335407509
0.600000000000000422,-1.469267445188167098
0.601000000000000423,-1.458650449773665425
0.602000000000000424,-1.448154355125054638
0.603000000000000425,-1.437777236630296773
0.604000000000000425,-1.427517195919417281
0.605000000000000426,-1.417372360743826665
0.606000000000000427,-1.407340884848109708
0.607000000000000428,-1.397420947834420391
0.608000000000000429,-1.387610755020172837
0.609000000000000430,-1.377908537288913493
0.610000000000000431,-1.368312550935099292
0.611000000000000432,-1.358821077502793351
0.612000000000000433,-1.349432423618687871
