# CNT15-NH2-14_CS-13835861-AC
# h[nm],U(h)[kJ/mol]
0.149999999999999994,176.794419590528434583
0.150999999999999995,173.890544126915642664
0.151999999999999996,172.089042495917595943
0.152999999999999997,170.507168068973385289
0.153999999999999998,168.821893424622032853
0.154999999999999999,166.974703986368069764
0.156000000000000000,165.011204996489652785
0.157000000000000001,163.000555548395766436
0.158000000000000002,161.000264246243631305
0.159000000000000002,159.045260360668976318
0.160000000000000003,157.148744687390546915
0.161000000000000004,155.307735909042150979
0.162000000000000005,153.509555499509872334
0.163000000000000006,151.737474828360888068
0.164000000000000007,149.974874648904631158
0.165000000000000008,148.207864634393814640
0.166000000000000009,146.426590588270130411
0.167000000000000010,144.625554664083551870
0.168000000000000010,142.803273979039659025
0.169000000000000011,140.961556740577293567
0.170000000000000012,139.104612321395904928
0.171000000000000013,137.238148942819890408
0.172000000000000014,135.368557740094075825
0.173000000000000015,133.502238021015642744
0.174000000000000016,131.645085756341927663
0.175000000000000017,129.802144610910687561
0.176000000000000018,127.977404402676569362
0.177000000000000018,126.173723909918606978
0.178000000000000019,124.392851716202315515
0.179000000000000020,122.635518819963635906
0.180000000000000021,120.901578857935916744
0.181000000000000022,119.190175091964832177
0.182000000000000023,117.499917123827799514
0.183000000000000024,115.829054172436002546
0.184000000000000025,114.175635373806102280
0.185000000000000026,112.537650771455531640
0.186000000000000026,110.913149368956283070
0.187000000000000027,109.300332796322123841
0.188000000000000028,107.697624818867979002
0.189000000000000029,106.103718138055228337
0.190000000000000030,104.517600759165219415
0.191000000000000031,102.938564696043926006
0.192000000000000032,101.366200013466567498
0.193000000000000033,99.800377233261428955
0.194000000000000034,98.241221004974008224
0.195000000000000034,96.689077711717544616
0.196000000000000035,95.144479385325126941
0.197000000000000036,93.608105972891593183
0.198000000000000037,92.080747653326781688
0.199000000000000038,90.563268565665367760
0.200000000000000039,89.056572993460548560
0.201000000000000040,87.561574760205772350
0.202000000000000041,86.079170334489930383
0.203000000000000042,84.610215922880684047
0.204000000000000042,83.155508643638569310
0.205000000000000043,81.715771724078706484
0.206000000000000044,80.291643546425532918
0.207000000000000045,78.883670278384926178
0.208000000000000046,77.492301762036419177
0.209000000000000047,76.117890294521814099
0.210000000000000048,74.760691912891573452
0.211000000000000049,73.420869790037585290
0.212000000000000050,72.098499355778869813
0.213000000000000050,70.793574774070293643
0.214000000000000051,69.506016431462626315
0.215000000000000052,68.235679121183551388
0.216000000000000053,66.982360639676542746
0.217000000000000054,65.745810546574304567
0.218000000000000055,64.525738873627531689
0.219000000000000056,63.321824602051300701
0.220000000000000057,62.133723760300632932
0.221000000000000058,60.961077024877283748
0.222000000000000058,59.803516734979396574
0.223000000000000059,58.660673257388715740
0.224000000000000060,57.532180660796690574
0.225000000000000061,56.417681678767905851
0.226000000000000062,55.316831957763000105
0.227000000000000063,54.229303601193763029
0.228000000000000064,53.154788032506665729
0.229000000000000065,52.092998209962146916
0.230000000000000066,51.043670233297959271
0.231000000000000066,50.006564388041127245
0.232000000000000067,48.981465677082880461
0.233000000000000068,47.968183891463567647
0.234000000000000069,46.966553273339108898
0.235000000000000070,45.976431824010674632
0.236000000000000071,44.997700308882443210
0.237000000000000072,44.030261009434653374
0.238000000000000073,43.074036269919147912
0.239000000000000073,42.128966883642455343
0.240000000000000074,41.195010360515944114
0.241000000000000075,40.272139114141687344
0.242000000000000076,39.360338603153977033
0.243000000000000077,38.459605457934088690
0.244000000000000078,37.569945620228850203
0.245000000000000079,36.691372519687085685
0.246000000000000080,35.823905307929571507
0.247000000000000081,34.967567167521778515
0.248000000000000081,34.122383710155638425
0.249000000000000082,33.288381475484456473
0.250000000000000111,32.465586539408256783
0.251000000000000112,31.654023238184539224
0.252000000000000113,30.853713012542137051
0.253000000000000114,30.064673374007263362
0.254000000000000115,29.286916993901151329
0.255000000000000115,28.520450913936162607
0.256000000000000116,27.765275876008992384
0.257000000000000117,27.021385767657413624
0.258000000000000118,26.288767178698595472
0.259000000000000119,25.567399063788183611
0.260000000000000120,24.857252505018539779
0.261000000000000121,24.158290568198452775
0.262000000000000122,23.470468246110385735
0.263000000000000123,22.793732481813364643
0.264000000000000123,22.128022264936280550
0.265000000000000124,21.473268793875444516
0.266000000000000125,20.829395696860679266
0.267000000000000126,20.196319304973805231
0.268000000000000127,19.573948970382584633
0.269000000000000128,18.962187423282699683
0.270000000000000129,18.360931161310290349
0.271000000000000130,17.770070865489863365
0.272000000000000131,17.189491837111585681
0.273000000000000131,16.619074450278098709
0.274000000000000132,16.058694615221575930
0.275000000000000133,15.508224247858299449
0.276000000000000134,14.967531741418406810
0.277000000000000135,14.436482436357735537
0.278000000000000136,13.914939085121867279
0.279000000000000137,13.402762308689029069
0.280000000000000138,12.899811042165101327
0.281000000000000139,12.405942967036342139
0.282000000000000139,11.921014928005977396
0.283000000000000140,11.444883332644188556
0.284000000000000141,10.977404532369124723
0.285000000000000142,10.518435183546852585
0.286000000000000143,10.067832587751265550
0.287000000000000144,9.625455010460413519
0.288000000000000145,9.191161977682384077
0.289000000000000146,8.764814550204754084
0.290000000000000147,8.346275575342703590
0.291000000000000147,7.935409916227297522
0.292000000000000148,7.532084658823390733
0.293000000000000149,7.136169297000611422
0.294000000000000150,6.747535896097813790
0.295000000000000151,6.366059235525392879
0.296000000000000152,5.991616931038977079
0.297000000000000153,5.624089537395239091
0.298000000000000154,5.263360632164488351
0.299000000000000155,4.909316881528381415
0.300000000000000155,4.561848088933446732
0.301000000000000156,4.220847227504341603
0.302000000000000157,3.886210457144131603
0.303000000000000158,3.557837127265321975
0.304000000000000159,3.235629766103047977
0.305000000000000160,2.919494057563654099
0.306000000000000161,2.609338806557252699
0.307000000000000162,2.305075893752650540
0.308000000000000163,2.006620220678526412
0.309000000000000163,1.713889646075481110
0.310000000000000164,1.426804914380834344
0.311000000000000165,1.145289577202287079
0.312000000000000166,0.869269908607773423
0.313000000000000167,0.598674815028203855
0.314000000000000168,0.333435740536999869
0.315000000000000169,0.073486568236293362
0.316000000000000170,-0.181236481555712592
0.317000000000000171,-0.430794955657405443
0.318000000000000171,-0.675248274294310113
0.319000000000000172,-0.914653838702227384
0.320000000000000173,-1.149067139513979541
0.321000000000000174,-1.378541865417496348
0.322000000000000175,-1.603130011609092964
0.323000000000000176,-1.822881987601045806
0.324000000000000177,-2.037846723977628116
0.325000000000000178,-2.248071777727255416
0.326000000000000179,-2.453603435812041322
0.327000000000000179,-2.654486816667213755
0.328000000000000180,-2.850765969354253748
0.329000000000000181,-3.042483970120998915
0.330000000000000182,-3.229683016150288744
0.331000000000000183,-3.412404516306198676
0.332000000000000184,-3.590689178712358487
0.333000000000000185,-3.764577095021697684
0.334000000000000186,-3.934107821260133253
0.335000000000000187,-4.099320455148551368
0.336000000000000187,-4.260253709828407231
0.337000000000000188,-4.416945983934961184
0.338000000000000189,-4.569435427981079378
0.339000000000000190,-4.717760007030834757
0.340000000000000191,-4.861957559657779981
0.341000000000000192,-5.002065853197508183
0.342000000000000193,-5.138122635317235343
0.343000000000000194,-5.270165681937451829
0.344000000000000195,-5.398232841551434014
0.345000000000000195,-5.522362075999341258
0.346000000000000196,-5.642591497761749508
0.347000000000000197,-5.758959403846445113
0.348000000000000198,-5.871504306349145885
0.349000000000000199,-5.980264959775428046
0.350000000000000200,-6.085280385216721655
0.351000000000000201,-6.186589891478098124
0.352000000000000202,-6.284233093259622649
0.353000000000000203,-6.378249926496648570
0.354000000000000203,-6.468680660967264018
0.355000000000000204,-6.555565910276918373
0.356000000000000205,-6.638946639332495181
0.357000000000000206,-6.718864169419026311
0.358000000000000207,-6.795360180992444654
0.359000000000000208,-6.868476714302791386
0.360000000000000209,-6.938256167961543319
0.361000000000000210,-7.004741295566175197
0.362000000000000210,-7.067975200494478472
0.363000000000000211,-7.128001328979519435
0.364000000000000212,-7.184863461575001331
0.365000000000000213,-7.238605703118634160
0.366000000000000214,-7.289272471299439005
0.367000000000000215,-7.336908483932433001
0.368000000000000216,-7.381558745042077874
0.369000000000000217,-7.423268529852857789
0.370000000000000218,-7.462083368783287263
0.371000000000000218,-7.498049030536085624
0.372000000000000219,-7.531211504375153076
0.373000000000000220,-7.561616981676391624
0.374000000000000221,-7.589311836836709624
0.375000000000000222,-7.614342607622104353
0.376000000000000223,-7.636755975033180377
0.377000000000000224,-7.656598742762652066
0.378000000000000225,-7.673917816316583540
0.379000000000000226,-7.688760181867817955
0.380000000000000226,-7.701172884907149907
0.381000000000000227,-7.711203008754102584
0.382000000000000228,-7.718897652986784763
0.383000000000000229,-7.724303911846599924
0.384000000000000230,-7.727468852670878796
0.385000000000000231,-7.728439494403616550
0.386000000000000232,-7.727262786231158032
0.387000000000000233,-7.723985586387345670
0.388000000000000234,-7.718654641169284680
0.389000000000000234,-7.711316564202749468
0.390000000000000235,-7.702017815992979521
0.391000000000000236,-7.690804683794540964
0.392000000000000237,-7.677723261831046031
0.393000000000000238,-7.662819431893401756
0.394000000000000239,-7.646138844342502239
0.395000000000000240,-7.627726899540496319
0.396000000000000241,-7.607628729732179629
0.397000000000000242,-7.585889181395994108
0.398000000000000242,-7.562552798082418981
0.399000000000000243,-7.537663803755057401
0.400000000000000244,-7.511266086648298312
0.401000000000000245,-7.483403183653483559
0.402000000000000246,-7.454118265243652175
0.403000000000000247,-7.423454120945616630
0.404000000000000248,-7.391453145366260635
0.405000000000000249,-7.358157324778725972
0.406000000000000250,-7.323608224272514455
0.407000000000000250,-7.287846975470434252
0.408000000000000251,-7.250914264813888011
0.409000000000000252,-7.212850322416902493
0.410000000000000253,-7.173694911488172288
0.411000000000000254,-7.133487318319301274
0.412000000000000255,-7.092266342836447635
0.413000000000000256,-7.050070289711774407
0.414000000000000257,-7.006936960029963579
0.415000000000000258,-6.962903643504621876
0.416000000000000258,-6.918007111238319240
0.417000000000000259,-6.872283609019530282
0.418000000000000260,-6.825768851149023320
0.419000000000000261,-6.778498014787682102
0.420000000000000262,-6.730505734817135988
0.421000000000000263,-6.681826099204262626
0.422000000000000264,-6.632492644859941500
0.423000000000000265,-6.582538353982194224
0.424000000000000266,-6.531995650873580139
0.425000000000000266,-6.480896399222013216
0.426000000000000267,-6.429271899834413162
0.427000000000000268,-6.377152888811896680
0.428000000000000269,-6.324569536155236094
0.429000000000000270,-6.271551444789221996
0.430000000000000271,-6.218127649994004358
0.431000000000000272,-6.164326619231985660
0.432000000000000273,-6.110176252358125559
0.433000000000000274,-6.055703882201960653
0.434000000000000274,-6.000936275509204165
0.435000000000000275,-5.945899634231084363
0.436000000000000276,-5.890619597149434838
0.437000000000000277,-5.835121241825491190
0.438000000000000278,-5.779429086860624842
0.439000000000000279,-5.723567094457183480
0.440000000000000280,-5.667558673267546254
0.441000000000000281,-5.611426681519882109
0.442000000000000282,-5.555193430409060440
0.443000000000000282,-5.498880687741158901
0.444000000000000283,-5.442509681820473233
0.445000000000000284,-5.386101105567751013
0.446000000000000285,-5.329675120858654580
0.447000000000000286,-5.273251363071869591
0.448000000000000287,-5.216848945835848461
0.449000000000000288,-5.160486465964139846
0.450000000000000289,-5.104182008568702855
0.451000000000000290,-5.047953152341338345
0.452000000000000290,-4.991816974993374956
0.453000000000000291,-4.935790058843804395
0.454000000000000292,-4.879888496546621823
0.455000000000000293,-4.824127896947960181
0.456000000000000294,-4.768523391064149131
0.457000000000000295,-4.713089638171847895
0.458000000000000296,-4.657840832001645559
0.459000000000000297,-4.602790707026908734
0.460000000000000298,-4.547952544839573896
0.461000000000000298,-4.493339180605209648
0.462000000000000299,-4.438963009589517839
0.463000000000000300,-4.384835993748830596
0.464000000000000301,-4.330969668377519177
0.465000000000000302,-4.277375148805240279
0.466000000000000303,-4.224063137137151536
0.467000000000000304,-4.171043929030743058
0.468000000000000305,-4.118327420502803982
0.469000000000000306,-4.065923114760417789
0.470000000000000306,-4.013840129050252337
0.471000000000000307,-3.962087201520151147
0.472000000000000308,-3.910672698087877652
0.473000000000000309,-3.859604619311488793
0.474000000000000310,-3.808890607256442795
0.475000000000000311,-3.758537952354383371
0.476000000000000312,-3.708553600249230975
0.477000000000000313,-3.658944158625736520
0.478000000000000314,-3.609715904016479904
0.479000000000000314,-3.560874788583148209
0.480000000000000315,-3.512426446868084362
0.481000000000000316,-3.464376202512524650
0.482000000000000317,-3.416729074937807642
0.483000000000000318,-3.369489785986284680
0.484000000000000319,-3.322662766518623023
0.485000000000000320,-3.276252162964520043
0.486000000000000321,-3.230261843823856616
0.487000000000000322,-3.184695406115638505
0.488000000000000322,-3.139556181771932408
0.489000000000000323,-3.094847243974695239
0.490000000000000324,-3.050571413432848544
0.491000000000000325,-3.006731264597672926
0.492000000000000326,-2.963329131814332662
0.493000000000000327,-2.920367115407817682
0.494000000000000328,-2.877847087701377315
0.495000000000000329,-2.835770698965914605
0.496000000000000330,-2.794139383298730017
0.497000000000000330,-2.752954364430372003
0.498000000000000331,-2.712216661458037859
0.499000000000000332,-2.671927094504697120
0.500000000000000333,-2.632086290302569687
0.501000000000000334,-2.592694687700090928
0.502000000000000335,-2.553752543091558636
0.503000000000000336,-2.515259935768604294
0.504000000000000337,-2.477216773192814525
0.505000000000000338,-2.439622796188930298
0.506000000000000338,-2.402477584058131388
0.507000000000000339,-2.365780559610911382
0.508000000000000340,-2.329530994119218157
0.509000000000000341,-2.293728012187696841
0.510000000000000342,-2.258370596543621822
0.511000000000000343,-2.223457592745595512
0.512000000000000344,-2.188987713810786051
0.513000000000000345,-2.154959544760811863
0.514000000000000346,-2.121371547086317477
0.515000000000000346,-2.088222063130293460
0.516000000000000347,-2.055509320390362049
0.517000000000000348,-2.023231435740326489
0.518000000000000349,-1.991386419571081090
0.519000000000000350,-1.959972179851429797
0.520000000000000351,-1.928986526108979138
0.521000000000000352,-1.898427173331713735
0.522000000000000353,-1.868291745790556124
0.523000000000000353,-1.838577780783473559
0.524000000000000354,-1.809282732301716434
0.525000000000000355,-1.780403974618658625
0.526000000000000356,-1.751938805801884103
0.527000000000000357,-1.723884451149242825
0.528000000000000358,-1.696238066549313306
0.529000000000000359,-1.668996741767277303
0.530000000000000360,-1.642157503656595186
0.531000000000000361,-1.615717319297495180
0.532000000000000361,-1.589673099062844042
0.533000000000000362,-1.564021699612324401
0.534000000000000363,-1.538759926815602030
0.535000000000000364,-1.513884538605409169
0.536000000000000365,-1.489392247761290200
0.537000000000000366,-1.465279724624951818
0.538000000000000367,-1.441543599747948878
0.539000000000000368,-1.418180466472795054
0.540000000000000369,-1.395186883448117143
0.541000000000000369,-1.372559377079029419
0.542000000000000370,-1.350294443913399700
0.543000000000000371,-1.328388552965066083
0.544000000000000372,-1.306838147974888953
0.545000000000000373,-1.285639649610555990
0.546000000000000374,-1.264789457606054102
0.547000000000000375,-1.244283952841784169
0.548000000000000376,-1.224119499366252528
0.549000000000000377,-1.204292446360247570
0.550000000000000377,-1.184799130044463356
0.551000000000000378,-1.165635875531512600
0.552000000000000379,-1.146798998623290933
0.553000000000000380,-1.128284807554587266
0.554000000000000381,-1.110089604683899056
0.555000000000000382,-1.092209688132451673
0.556000000000000383,-1.074641353372207009
0.557000000000000384,-1.057380894763995105
0.558000000000000385,-1.040424607046480654
0.559000000000000385,-1.023768786777067952
0.560000000000000386,-1.007409733725549206
0.561000000000000387,-0.991343752221455210
0.562000000000000388,-0.975567152455983910
0.563000000000000389,-0.960076251739455544
0.564000000000000390,-0.944867375715130242
0.565000000000000391,-0.929936859530310356
0.566000000000000392,-0.915281048965575272
0.567000000000000393,-0.900896301523083864
0.568000000000000393,-0.886778987474703628
0.569000000000000394,-0.872925490870905763
0.570000000000000395,-0.859332210511252192
0.571000000000000396,-0.845995560877264019
0.572000000000000397,-0.832911973028593322
0.573000000000000398,-0.820077895463181661
0.574000000000000399,-0.807489794942382821
0.575000000000000400,-0.795144157281662878
0.576000000000000401,-0.783037488107809265
0.577000000000000401,-0.771166313583400376
0.578000000000000402,-0.759527181099236670
0.579000000000000403,-0.748116659935525452
0.580000000000000404,-0.736931341892665515
0.581000000000000405,-0.725967841892181553
0.582000000000000406,-0.715222798548711958
0.583000000000000407,-0.704692874713657158
0.584000000000000408,-0.694374757991239600
0.585000000000000409,-0.684265161227673557
0.586000000000000409,-0.674360822974099383
0.587000000000000410,-0.664658507924009490
0.588000000000000411,-0.655155007325747052
0.589000000000000412,-0.645847139370849921
0.590000000000000413,-0.636731749558746896
0.591000000000000414,-0.627805711038541547
0.592000000000000415,-0.619065924928473454
0.593000000000000416,-0.610509320613636386
0.594000000000000417,-0.602132856022577156
0.595000000000000417,-0.593933517883435402
0.596000000000000418,-0.585908321960018852
0.597000000000000419,-0.578054313268609343
0.598000000000000420,-0.570368566275869071
0.599000000000000421,-0.562848185078520413
0.600000000000000422,-0.555490303565262411
0.601000000000000423,-0.548292085561487896
0.602000000000000424,-0.541250724957305307
0.603000000000000425,-0.534363445819386884
0.604000000000000425,-0.527627502487109989
0.605000000000000426,-0.521040179653492919
0.606000000000000427,-0.514598792431482877
0.607000000000000428,-0.508300686405820712
0.608000000000000429,-0.502143237671348386
0.609000000000000430,-0.496123852857712655
0.610000000000000431,-0.490239969141369136
0.611000000000000432,-0.484489054244998996
0.612000000000000433,-0.478868606424866061
