# CNT15-NH2-14_CS-13867413-AC
# h[nm],U(h)[kJ/mol]
0.200000000000000011,81.160378950269731035
0.201000000000000012,79.743023279929005298
0.202000000000000013,78.326047800394746901
0.203000000000000014,76.917844209409906853
0.204000000000000015,75.520914566499385501
0.205000000000000016,74.135138339031030341
0.206000000000000016,72.759605995305122406
0.207000000000000017,71.393544470506768107
0.208000000000000018,70.036691582253240540
0.209000000000000019,68.689356910075133555
0.210000000000000020,67.352322732616229928
0.211000000000000021,66.026680588902621594
0.212000000000000022,64.713659646660488534
0.213000000000000023,63.414476961517628695
0.214000000000000024,62.130222958650065834
0.215000000000000024,60.861785192201807604
0.216000000000000025,59.609807562602426856
0.217000000000000026,58.374679213364991881
0.218000000000000027,57.156546238303917562
0.219000000000000028,55.955339377638289022
0.220000000000000029,54.770811569058821533
0.221000000000000030,53.602580216040792038
0.222000000000000031,52.450170127342275350
0.223000000000000032,51.313054138470661769
0.224000000000000032,50.190689374632775355
0.225000000000000033,49.082547920236230254
0.226000000000000034,47.988141312122209570
0.227000000000000035,46.907038777496538273
0.228000000000000036,45.838879506878519976
0.229000000000000037,44.783379505551707211
0.230000000000000038,43.740333723622534023
0.231000000000000039,42.709614244082317214
0.232000000000000040,41.691165327896989368
0.233000000000000040,40.684996090691683435
0.234000000000000041,39.691171530301559756
0.235000000000000042,38.709802549262306570
0.236000000000000043,37.741035529969039430
0.237000000000000044,36.785041929549528561
0.238000000000000045,35.842008271577917355
0.239000000000000046,34.912126826269634705
0.240000000000000047,33.995587192219289818
0.241000000000000048,33.092568922603312842
0.242000000000000048,32.203235277834053818
0.243000000000000049,31.327728135123344089
0.244000000000000050,30.466164043074265066
0.245000000000000051,29.618631375738893041
0.246000000000000052,28.785188514851064667
0.247000000000000053,27.965862970322387326
0.248000000000000054,27.160651336691909563
0.249000000000000055,26.369519976147092422
0.250000000000000056,25.592406316113716969
0.251000000000000056,24.829220650426737649
0.252000000000000057,24.079848336987645041
0.253000000000000058,23.344152290911104330
0.254000000000000059,22.621975679862970310
0.255000000000000060,21.913144737079015556
0.256000000000000061,21.217471616985058347
0.257000000000000062,20.534757228050313671
0.258000000000000063,19.864793987195511704
0.259000000000000064,19.207368449508045671
0.260000000000000064,18.562263776004307658
0.261000000000000065,17.929262010589198439
0.262000000000000066,17.308146145097378366
0.263000000000000067,16.698701958303505677
0.264000000000000068,16.100719621025657347
0.265000000000000069,15.513995064911750177
0.266000000000000070,14.938331117205724041
0.267000000000000071,14.373538407763371438
0.268000000000000071,13.819436057868532686
0.269000000000000072,13.275852163031945707
0.270000000000000073,12.742624083992039274
0.271000000000000074,12.219598561633187472
0.272000000000000075,11.706631672548562406
0.273000000000000076,11.203588642559893174
0.274000000000000077,10.710343535718164887
0.275000000000000078,10.226778836201997791
0.276000000000000079,9.752784940154205273
0.277000000000000079,9.288259573896745280
0.278000000000000080,8.833107154186475185
0.279000000000000081,8.387238105253830511
0.280000000000000082,7.950568146342892994
0.281000000000000083,7.523017562372956490
0.282000000000000084,7.104510469198186406
0.283000000000000085,6.694974083776723539
0.284000000000000086,6.294338008393170369
0.285000000000000087,5.902533536929243319
0.286000000000000087,5.519492990057307757
0.287000000000000088,5.145149085155460433
0.288000000000000089,4.779434345718411414
0.289000000000000090,4.422280554073278580
0.290000000000000091,4.073618250309753108
0.291000000000000092,3.733376279501089190
0.292000000000000093,3.401481388531194305
0.293000000000000094,3.077857873151773394
0.294000000000000095,2.762427275273615201
0.295000000000000095,2.455108129944655992
0.296000000000000096,2.155815760984749474
0.297000000000000097,1.864462123827848927
0.298000000000000098,1.580955693765933479
0.299000000000000099,1.305201397489942572
0.300000000000000100,1.037100585579539436
0.301000000000000101,0.776551043399583030
0.302000000000000102,0.523447037715478070
0.303000000000000103,0.277679396234834841
0.304000000000000103,0.039135617218803473
0.305000000000000104,-0.192299993724228208
0.306000000000000105,-0.416746162548697452
0.307000000000000106,-0.634324464243152475
0.308000000000000107,-0.845159121667978019
0.309000000000000108,-1.049376788491196200
0.310000000000000109,-1.247106318863632435
0.311000000000000110,-1.438478526368307975
0.312000000000000111,-1.623625934662221493
0.313000000000000111,-1.802682522100543583
0.314000000000000112,-1.975783462499096643
0.315000000000000113,-2.143064864050869378
0.316000000000000114,-2.304663508269042094
0.317000000000000115,-2.460716590683675875
0.318000000000000116,-2.611361464873898086
0.319000000000000117,-2.756735391272762570
0.320000000000000118,-2.896975292039604799
0.321000000000000119,-3.032217513155559097
0.322000000000000119,-3.162597594762362352
0.323000000000000120,-3.288250050633757748
0.324000000000000121,-3.409308157543658346
0.325000000000000122,-3.525903755174989662
0.326000000000000123,-3.638167057099454205
0.327000000000000124,-3.746226473250948263
0.328000000000000125,-3.850208444214401116
0.329000000000000126,-3.950237287557175847
0.330000000000000127,-4.046435056342591707
0.331000000000000127,-4.138921409883817404
0.332000000000000128,-4.227813496721809727
0.333000000000000129,-4.313225849742880591
0.334000000000000130,-4.395270293289378571
0.335000000000000131,-4.474055862061655731
0.336000000000000132,-4.549688731559010435
0.337000000000000133,-4.622272159763691768
0.338000000000000134,-4.691906439733095624
0.339000000000000135,-4.758688862731432323
0.340000000000000135,-4.822713691504045386
0.341000000000000136,-4.884072143272880417
0.342000000000000137,-4.942852382012365986
0.343000000000000138,-4.999139519548892352
0.344000000000000139,-5.053015625015574663
0.345000000000000140,-5.104559742185339033
0.346000000000000141,-5.153847914200287761
0.347000000000000142,-5.200953215213142578
0.348000000000000143,-5.245945788457110126
0.349000000000000143,-5.288892890263420909
0.350000000000000144,-5.329858939551126440
0.351000000000000145,-5.368905572320756825
0.352000000000000146,-5.406091700692670088
0.353000000000000147,-5.441473576041234494
0.354000000000000148,-5.475104855788056391
0.355000000000000149,-5.507036673430506291
0.356000000000000150,-5.537317711395912667
0.357000000000000151,-5.565994276326783563
0.358000000000000151,-5.593110376418033880
0.359000000000000152,-5.618707800443383249
0.360000000000000153,-5.642826198124899051
0.361000000000000154,-5.665503161516300956
0.362000000000000155,-5.686774307088041880
0.363000000000000156,-5.706673358219275904
0.364000000000000157,-5.725232227818978892
0.365000000000000158,-5.742481100815880701
0.366000000000000159,-5.758448516273435125
0.367000000000000159,-5.773161448903223913
0.368000000000000160,-5.786645389766357894
0.369000000000000161,-5.798924425968678520
0.370000000000000162,-5.810021319171283061
0.371000000000000163,-5.819957582753239045
0.372000000000000164,-5.828753557478105307
0.373000000000000165,-5.836428485530354315
0.374000000000000166,-5.843000582801672671
0.375000000000000167,-5.848487109320178234
0.376000000000000167,-5.852904437728792431
0.377000000000000168,-5.856268119730859922
0.378000000000000169,-5.858592950432942814
0.379000000000000170,-5.859893030525841873
0.380000000000000171,-5.860181826255312032
0.381000000000000172,-5.859472227144022050
0.382000000000000173,-5.857776601435580766
0.383000000000000174,-5.855106849240497624
0.384000000000000175,-5.851474453372039086
0.385000000000000175,-5.846890527867807386
0.386000000000000176,-5.841365864200239066
0.387000000000000177,-5.834910975185599646
0.388000000000000178,-5.827536136607802675
0.389000000000000179,-5.819251426578557762
0.390000000000000180,-5.810066762661142192
0.391000000000000181,-5.799991936789622216
0.392000000000000182,-5.789036648019823872
0.393000000000000183,-5.777210533152404182
0.394000000000000183,-5.764523195271849865
0.395000000000000184,-5.750984230248550766
0.396000000000000185,-5.736603251253799662
0.397000000000000186,-5.721389911340158285
0.398000000000000187,-5.705353924141776112
0.399000000000000188,-5.688505082751051489
0.400000000000000189,-5.670853276829580736
0.401000000000000190,-5.652408508012660704
0.402000000000000191,-5.633180903667616590
0.403000000000000191,-5.613180729066870711
0.404000000000000192,-5.592418398037414917
0.405000000000000193,-5.570904482148421266
0.406000000000000194,-5.548649718499053307
0.407000000000000195,-5.525665016168366250
0.408000000000000196,-5.501961461388908958
0.409000000000000197,-5.477550321505321840
0.410000000000000198,-5.452443047778690932
0.411000000000000199,-5.426651277096560477
0.412000000000000199,-5.400186832647959179
0.413000000000000200,-5.373061723621650465
0.414000000000000201,-5.345288143984999074
0.415000000000000202,-5.316878470399518442
0.416000000000000203,-5.287845259328221914
0.417000000000000204,-5.258201243388443302
0.418000000000000205,-5.227959327002581702
0.419000000000000206,-5.197132581397862161
0.420000000000000207,-5.165734239004640571
0.421000000000000207,-5.133777687301625647
0.422000000000000208,-5.101276462154435087
0.423000000000000209,-5.068244240692960645
0.424000000000000210,-5.034694833770974043
0.425000000000000211,-5.000642178050124897
0.426000000000000212,-4.966100327748969256
0.427000000000000213,-4.931083446095824385
0.428000000000000214,-4.895605796523085473
0.429000000000000214,-4.859681733638709922
0.430000000000000215,-4.823325694009283460
0.431000000000000216,-4.786552186787472962
0.432000000000000217,-4.749375784215118301
0.433000000000000218,-4.711811112031740301
0.434000000000000219,-4.673872839816838543
0.435000000000000220,-4.635575671292816224
0.436000000000000221,-4.596934334613953510
0.437000000000000222,-4.557963572665482133
0.438000000000000222,-4.518678133395464869
0.439000000000000223,-4.479092760200808598
0.440000000000000224,-4.439222182387456250
0.441000000000000225,-4.399081105723452900
0.442000000000000226,-4.358684203102598076
0.443000000000000227,-4.318046105334786944
0.444000000000000228,-4.277181392078428956
0.445000000000000229,-4.236104582928837736
0.446000000000000230,-4.194830128675574699
0.447000000000000230,-4.153372402740710179
0.448000000000000231,-4.111745692808816521
0.449000000000000232,-4.069964192658550139
0.450000000000000233,-4.028041994204931697
0.451000000000000234,-3.985993079760179025
0.452000000000000235,-3.943831314520444664
0.453000000000000236,-3.901570439284630876
0.454000000000000237,-3.859224063411013983
0.455000000000000238,-3.816805658016273473
0.456000000000000238,-3.774328549421113621
0.457000000000000239,-3.731805912845747919
0.458000000000000240,-3.689250766358019629
0.459000000000000241,-3.646675965076096482
0.460000000000000242,-3.604094195627388864
0.461000000000000243,-3.561517970864387816
0.462000000000000244,-3.518959624838032596
0.463000000000000245,-3.476431308028163691
0.464000000000000246,-3.433944982830781534
0.465000000000000246,-3.391512419300795500
0.466000000000000247,-3.349145191148918066
0.467000000000000248,-3.306854671990753669
0.468000000000000249,-3.264652031845932445
0.469000000000000250,-3.222548233884597213
0.470000000000000251,-3.180554031418429961
0.471000000000000252,-3.138679965132924465
0.472000000000000253,-3.096936360557582812
0.473000000000000254,-3.055333325770118069
0.474000000000000254,-3.013880749330884790
0.475000000000000255,-2.972588298443259003
0.476000000000000256,-2.931465417335652912
0.477000000000000257,-2.890521325860661239
0.478000000000000258,-2.849765018306581688
0.479000000000000259,-2.809205262416571536
0.480000000000000260,-2.768850598610442137
0.481000000000000261,-2.728709339404018941
0.482000000000000262,-2.688789569020996861
0.483000000000000262,-2.649099143192009009
0.484000000000000263,-2.609645689135617452
0.485000000000000264,-2.570436605715924028
0.486000000000000265,-2.531479063771402416
0.487000000000000266,-2.492780006609506493
0.488000000000000267,-2.454346150661673498
0.489000000000000268,-2.416183986293284125
0.490000000000000269,-2.378299778763079964
0.491000000000000270,-2.340699569326708751
0.492000000000000270,-2.303389176478884970
0.493000000000000271,-2.266374197328876683
0.494000000000000272,-2.229660009103925145
0.495000000000000273,-2.193251770775254350
0.496000000000000274,-2.157154424801526638
0.497000000000000275,-2.121372698984388183
0.498000000000000276,-2.085911108431081740
0.499000000000000277,-2.050773957618990284
0.500000000000000222,-2.015965342557060058
0.501000000000000334,-1.981489153039243334
0.502000000000000224,-1.947349074985056605
0.503000000000000336,-1.913548592862401421
0.504000000000000226,-1.880090992188117038
0.505000000000000338,-1.846979362101413447
0.506000000000000227,-1.814216598005939263
0.507000000000000339,-1.781805404275762283
0.508000000000000229,-1.749748297021181953
0.509000000000000341,-1.718047606909894442
0.510000000000000231,-1.686705482039629889
0.511000000000000343,-1.655723890857910829
0.512000000000000233,-1.625104625125260771
0.513000000000000345,-1.594849302917781042
0.514000000000000234,-1.564959371665600063
0.515000000000000346,-1.535436111223235089
0.516000000000000236,-1.506280636968650999
0.517000000000000348,-1.477493902927296210
0.518000000000000238,-1.449076704917995784
0.519000000000000350,-1.421029683717262682
0.520000000000000240,-1.393353328239057776
0.521000000000000352,-1.366047978726859125
0.522000000000000242,-1.339113829955141721
0.523000000000000353,-1.312550934437399786
0.524000000000000243,-1.286359205638013758
0.525000000000000355,-1.260538421185270597
0.526000000000000245,-1.235088226083049801
0.527000000000000357,-1.210008135918626104
0.528000000000000247,-1.185297540064370603
0.529000000000000359,-1.160955704870926031
0.530000000000000249,-1.136981776849830705
0.531000000000000361,-1.113374785843384007
0.532000000000000250,-1.090133648179862247
0.533000000000000362,-1.067257169812081630
0.534000000000000252,-1.044744049437557054
0.535000000000000364,-1.022592881598473724
0.536000000000000254,-1.000802159759871302
0.537000000000000366,-0.979370279364335738
0.538000000000000256,-0.958295540861901940
0.539000000000000368,-0.937576152713518574
0.540000000000000258,-0.917210234366956478
0.541000000000000369,-0.897195819203656209
0.542000000000000259,-0.877530857455549596
0.543000000000000371,-0.858213219090519175
0.544000000000000261,-0.839240696665578545
0.545000000000000373,-0.820611008146697074
0.546000000000000263,-0.802321799694403759
0.547000000000000375,-0.784370648414188243
0.548000000000000265,-0.766755065071090036
0.549000000000000377,-0.749472496767489726
0.550000000000000266,-0.732520329583632668
0.551000000000000378,-0.715895891180093114
0.552000000000000268,-0.699596453361705506
0.553000000000000380,-0.683619234602365067
0.554000000000000270,-0.667961402530305004
0.555000000000000382,-0.652620076373305769
0.556000000000000272,-0.637592329363632082
0.557000000000000384,-0.622875191102157055
0.558000000000000274,-0.608465649881608561
0.559000000000000385,-0.594360654968496105
0.560000000000000275,-0.580557118843677555
0.561000000000000387,-0.567051919401298177
0.562000000000000277,-0.553841902106027795
0.563000000000000389,-0.540923882108499954
0.564000000000000279,-0.528294646318916983
0.565000000000000391,-0.515950955438777559
0.566000000000000281,-0.503889545950770512
0.567000000000000393,-0.492107132066861575
0.568000000000000282,-0.480600407634697357
0.569000000000000394,-0.469366048002356984
0.570000000000000284,-0.458400711841665642
0.571000000000000396,-0.447701042930179205
0.572000000000000286,-0.437263671892081374
0.573000000000000398,-0.427085217898110714
0.574000000000000288,-0.417162290324857410
0.575000000000000400,-0.407491490373632026
0.576000000000000290,-0.398069412649165844
0.577000000000000401,-0.388892646698484890
0.578000000000000291,-0.379957778510240429
0.579000000000000403,-0.371261391974820665
0.580000000000000293,-0.362800070305632771
0.581000000000000405,-0.354570397421862915
0.582000000000000295,-0.346568959293149070
0.583000000000000407,-0.338792345246505811
0.584000000000000297,-0.331237149235938111
0.585000000000000409,-0.323899971075164161
0.586000000000000298,-0.316777417633843039
0.587000000000000410,-0.309866103997782250
0.588000000000000300,-0.303162654593550518
0.589000000000000412,-0.296663704277946971
0.590000000000000302,-0.290365899392805049
0.591000000000000414,-0.284265898785624027
0.592000000000000304,-0.278360374796442600
0.593000000000000416,-0.272646014211494814
0.594000000000000306,-0.267119519184137511
0.595000000000000417,-0.261777608123506755
0.596000000000000307,-0.256617016551421051
0.597000000000000419,-0.251634497928056478
0.598000000000000309,-0.246826824446881810
0.599000000000000421,-0.242190787799318713
0.600000000000000311,-0.237723199909738947
0.601000000000000423,-0.233420893641203275
0.602000000000000313,-0.229280723472544301
0.603000000000000425,-0.225299566147213415
0.604000000000000314,-0.221474321294534399
0.605000000000000426,-0.217801912023728061
0.606000000000000316,-0.214279285491359273
0.607000000000000428,-0.210903413442613374
0.608000000000000318,-0.207671292726998719
0.609000000000000430,-0.204579945788914669
0.610000000000000320,-0.201626421133649508
0.611000000000000432,-0.198807793769279345
0.612000000000000322,-0.196121165624986549
0.613000000000000433,-0.193563665946300173
0.614000000000000323,-0.191132451667753722
0.615000000000000435,-0.188824707763462440
0.616000000000000325,-0.186637647576089083
0.617000000000000437,-0.184568513124721167
0.618000000000000327,-0.182614575392126055
0.619000000000000439,-0.180773134591845408
0.620000000000000329,-0.179041520415645750
0.621000000000000441,-0.177417092261769854
0.622000000000000330,-0.175897239444451958
0.623000000000000442,-0.174479381385189564
0.624000000000000332,-0.173160967786176540
0.625000000000000444,-0.171939478786421990
0.626000000000000334,-0.170812425100926119
0.627000000000000446,-0.169777348143416912
0.628000000000000336,-0.168831820133041793
0.629000000000000448,-0.167973444185473442
0.630000000000000338,-0.167199854388834834
0.631000000000000449,-0.166508715864889023
0.632000000000000339,-0.165897724815868369
0.633000000000000451,-0.165364608557399123
0.634000000000000341,-0.164907125537875426
0.635000000000000453,-0.164523065344744090
0.636000000000000343,-0.164210248697992861
0.637000000000000455,-0.163966527431349540
0.638000000000000345,-0.163789784461462140
0.639000000000000457,-0.163677933745495580
0.640000000000000346,-0.163628920227495950
0.641000000000000458,-0.163640719773878313
0.642000000000000348,-0.163711339098395858
0.643000000000000460,-0.163838815676947552
0.644000000000000350,-0.164021217652546680
0.645000000000000462,-0.164256643730817636
0.646000000000000352,-0.164543223066317135
0.647000000000000464,-0.164879115140030647
0.648000000000000353,-0.165262509628357146
0.649000000000000465,-0.165691626263881286
0.650000000000000355,-0.166164714688261272
0.651000000000000467,-0.166680054297507707
0.652000000000000357,-0.167235954079983345
0.653000000000000469,-0.167830752447367837
0.654000000000000359,-0.168462817058920550
0.655000000000000471,-0.169130544639266189
0.656000000000000361,-0.169832360790026948
0.657000000000000473,-0.170566719795523236
0.658000000000000362,-0.171332104422838194
0.659000000000000474,-0.172127025716466042
0.660000000000000364,-0.172950022787833113
0.661000000000000476,-0.173799662599900817
0.662000000000000366,-0.174674539747097152
0.663000000000000478,-0.175573276230837544
