# CNT15-NH2-14_ADENINE
# h[nm],U(h)[kJ/mol]
0.200000000000000011,96.414891175919947841
0.201000000000000012,94.858060527598439649
0.202000000000000013,93.188500262460337353
0.203000000000000014,91.501097258258837996
0.204000000000000015,89.841110112386928677
0.205000000000000016,88.224577122012902919
0.206000000000000016,86.651650768374210543
0.207000000000000017,85.115019692511054927
0.208000000000000018,83.604978976200442276
0.209000000000000019,82.112264357514604285
0.210000000000000020,80.629437960320245793
0.211000000000000021,79.151373206525676096
0.212000000000000022,77.675212666729066768
0.213000000000000023,76.200047835489471026
0.214000000000000024,74.726481410611768297
0.215000000000000024,73.256170958712743868
0.216000000000000025,71.791410605267770961
0.217000000000000026,70.334779169651341135
0.218000000000000027,68.888864940368705447
0.219000000000000028,67.456066074644127184
0.220000000000000029,66.038459228754774699
0.221000000000000030,64.637725898765282295
0.222000000000000031,63.255124940751599638
0.223000000000000032,61.891500042397339598
0.224000000000000032,60.547311975879267720
0.225000000000000033,59.222686895825368936
0.226000000000000034,57.917473505617110163
0.227000000000000035,56.631303442425043215
0.228000000000000036,55.363650632909084948
0.229000000000000037,54.113886598908820247
0.230000000000000038,52.881329727032550636
0.231000000000000039,51.665287358487390179
0.232000000000000040,50.465090218227565799
0.233000000000000040,49.280119204506483754
0.234000000000000041,48.109824923111759176
0.235000000000000042,46.953740597412163993
0.236000000000000043,45.811489137373257563
0.237000000000000044,44.682785227606949263
0.238000000000000045,43.567433313720854926
0.239000000000000046,42.465322342707608527
0.240000000000000047,41.376418059412706896
0.241000000000000048,40.300753587547305301
0.242000000000000048,39.238418938498014654
0.243000000000000049,38.189550000769678206
0.244000000000000050,37.154317472156343172
0.245000000000000051,36.132916109234727742
0.246000000000000052,35.125554587011379226
0.247000000000000053,34.132446187133986371
0.248000000000000054,33.153800466924892021
0.249000000000000055,32.189816003989989213
0.250000000000000056,31.240674262275696549
0.251000000000000056,30.306534584869837090
0.252000000000000057,29.387530286043563876
0.253000000000000058,28.483765789353316933
0.254000000000000059,27.595314739325651487
0.255000000000000060,26.722219000569886305
0.256000000000000061,25.864488449336608511
0.257000000000000062,25.022101457824771131
0.258000000000000063,24.195005970241176385
0.259000000000000064,23.383121071089497889
0.260000000000000064,22.586338949832800438
0.261000000000000065,21.804527171415923448
0.262000000000000066,21.037531168695860373
0.263000000000000067,20.285176880223950491
0.264000000000000068,19.547273464716806046
0.265000000000000069,18.823616031667253168
0.266000000000000070,18.113988335658227413
0.267000000000000071,17.418165389865340131
0.268000000000000071,16.735915961830656329
0.269000000000000072,16.067004921750918101
0.270000000000000073,15.411195420174260917
0.271000000000000074,14.768250878089258293
0.272000000000000075,14.137936777889484219
0.273000000000000076,13.520022248596578862
0.274000000000000077,12.914281443027348928
0.275000000000000078,12.320494708311921173
0.276000000000000079,11.738449554335330660
0.277000000000000079,11.167941427312779723
0.278000000000000080,10.608774297859371316
0.279000000000000081,10.060761074611708210
0.280000000000000082,9.523723855747252998
0.281000000000000083,8.997494031664855285
0.282000000000000084,8.481912252680064768
0.283000000000000085,7.976828275890300191
0.284000000000000086,7.482100705414974406
0.285000000000000087,6.997596640053536987
0.286000000000000087,6.523191242060121908
0.287000000000000088,6.058767240241360597
0.288000000000000089,5.604214379971663718
0.289000000000000090,5.159428832013217558
0.290000000000000091,4.724312571251955362
0.291000000000000092,4.298772735632981679
0.292000000000000093,3.882720974721923568
0.293000000000000094,3.476072796445224267
0.294000000000000095,3.078746919688438943
0.295000000000000095,2.690664639566957561
0.296000000000000096,2.311749211340638155
0.297000000000000097,1.941925258127952914
0.298000000000000098,1.581118206795307124
0.299000000000000099,1.229253755656322777
0.300000000000000100,0.886257376919935114
0.301000000000000101,0.552053856175403146
0.302000000000000102,0.226566870601663861
0.303000000000000103,-0.090281392965377544
0.304000000000000103,-0.398570579476072939
0.305000000000000104,-0.698382466444474437
0.306000000000000105,-0.989801224290182469
0.307000000000000106,-1.272913636834960061
0.308000000000000107,-1.547809282860595825
0.309000000000000108,-1.814580679907338068
0.310000000000000109,-2.073323391726016318
0.311000000000000110,-2.324136100991088583
0.312000000000000111,-2.567120649043139302
0.313000000000000111,-2.802382044555404850
0.314000000000000112,-3.030028443116575154
0.315000000000000113,-3.250171099791399065
0.316000000000000114,-3.462924296765037546
0.317000000000000115,-3.668405248198805424
0.318000000000000116,-3.866733984426524273
0.319000000000000117,-4.058033217604294585
0.320000000000000118,-4.242428190894053763
0.321000000000000119,-4.420046513215676320
0.322000000000000119,-4.591017981544183613
0.323000000000000120,-4.755474392660781646
0.324000000000000121,-4.913549346190629663
0.325000000000000122,-5.065378040676877802
0.326000000000000123,-5.211097064352149921
0.327000000000000124,-5.350844182176336616
0.328000000000000125,-5.484758120614168675
0.329000000000000126,-5.612978351528647991
0.330000000000000127,-5.735644876468543707
0.331000000000000127,-5.852898012529847094
0.332000000000000128,-5.964878180873773417
0.333000000000000129,-6.071725698887888711
0.334000000000000130,-6.173580576882555349
0.335000000000000131,-6.270582320123832432
0.336000000000000132,-6.362869736914398722
0.337000000000000133,-6.450580753349046681
0.338000000000000134,-6.533852235289002053
0.339000000000000135,-6.612819818020601481
0.340000000000000135,-6.687617743989804353
0.341000000000000136,-6.758378708933014067
0.342000000000000137,-6.825233716658424044
0.343000000000000138,-6.888311942669494314
0.344000000000000139,-6.947740606764247318
0.345000000000000140,-7.003644854689551558
0.346000000000000141,-7.056147648879624867
0.347000000000000142,-7.105369668261746874
0.348000000000000143,-7.151429217070043087
0.349000000000000143,-7.194442142569504206
0.350000000000000144,-7.234521761557788366
0.351000000000000145,-7.271778795480756230
0.352000000000000146,-7.306321313970092213
0.353000000000000147,-7.338254686586209274
0.354000000000000148,-7.367681542528413452
0.355000000000000149,-7.394701738055189821
0.356000000000000150,-7.419412331341737499
0.357000000000000151,-7.441907564488298377
0.358000000000000151,-7.462278852381966310
0.359000000000000152,-7.480614778105826979
0.360000000000000153,-7.497001094582910419
0.361000000000000154,-7.511520732137462630
0.362000000000000155,-7.524253811653574431
0.363000000000000156,-7.535277663009812166
0.364000000000000157,-7.544666848468835951
0.365000000000000158,-7.552493190703115644
0.366000000000000159,-7.558825805140240384
0.367000000000000159,-7.563731136316097725
0.368000000000000160,-7.567272997928983003
0.369000000000000161,-7.569512616293897267
0.370000000000000162,-7.570508676903100032
0.371000000000000163,-7.570317373806764394
0.372000000000000164,-7.568992461535380301
0.373000000000000165,-7.566585309294644901
0.374000000000000166,-7.563144957172466931
0.375000000000000167,-7.558718174107153409
0.376000000000000167,-7.553349517375852251
0.377000000000000168,-7.547081393372026881
0.378000000000000169,-7.539954119451030223
0.379000000000000170,-7.532005986633066641
0.380000000000000171,-7.523273322963058618
0.381000000000000172,-7.513790557337225451
0.382000000000000173,-7.503590283616395240
0.383000000000000174,-7.492703324856373470
0.384000000000000175,-7.481158797495463197
0.385000000000000175,-7.468984175349291377
0.386000000000000176,-7.456205353272919112
0.387000000000000177,-7.442846710359281026
0.388000000000000178,-7.428931172552934115
0.389000000000000179,-7.414480274566493279
0.390000000000000180,-7.399514220996375791
0.391000000000000181,-7.384051946542827594
0.392000000000000182,-7.368111175247395117
0.393000000000000183,-7.351708478669071845
0.394000000000000183,-7.334859332927915254
0.395000000000000184,-7.317578174552357595
0.396000000000000185,-7.299878455073378625
0.397000000000000186,-7.281772694315568728
0.398000000000000187,-7.263272532341441767
0.399000000000000188,-7.244388780011609796
0.400000000000000189,-7.225131468129042389
0.401000000000000190,-7.205509895141448240
0.402000000000000191,-7.185532673380800261
0.403000000000000191,-7.165207773824059601
0.404000000000000192,-7.144542569363832918
0.405000000000000193,-7.123543876581972079
0.406000000000000194,-7.102217996023315827
0.407000000000000195,-7.080570750970544225
0.408000000000000196,-7.058607524724704874
0.409000000000000197,-7.036333296399230441
0.410000000000000198,-7.013752675238528411
0.411000000000000199,-6.990869933474717968
0.412000000000000199,-6.967689037739103419
0.413000000000000200,-6.944213679047034127
0.414000000000000201,-6.920447301377238958
0.415000000000000202,-6.896393128868465894
0.416000000000000203,-6.872054191658287792
0.417000000000000204,-6.847433350390377704
0.418000000000000205,-6.822533319418059072
0.419000000000000206,-6.797356688733218633
0.420000000000000207,-6.771905944650661979
0.421000000000000207,-6.746183489279244050
0.422000000000000208,-6.720191658811461188
0.423000000000000209,-6.693932740664374492
0.424000000000000210,-6.667408989504975736
0.425000000000000211,-6.640622642193553915
0.426000000000000212,-6.613575931679240405
0.427000000000000213,-6.586271099881644275
0.428000000000000214,-6.558710409593194512
0.429000000000000214,-6.530896155436304085
0.430000000000000215,-6.502830673909788750
0.431000000000000216,-6.474516352558718602
0.432000000000000217,-6.445955638301656521
0.433000000000000218,-6.417151044948951721
0.434000000000000219,-6.388105159945580702
0.435000000000000220,-6.358820650371471928
0.436000000000000221,-6.329300268231881077
0.437000000000000222,-6.299546855069902307
0.438000000000000222,-6.269563345932678722
0.439000000000000223,-6.239352772722338791
0.440000000000000224,-6.208918266961994448
0.441000000000000225,-6.178263062006582373
0.442000000000000226,-6.147390494727762444
0.443000000000000227,-6.116304006701113849
0.444000000000000228,-6.085007144923622491
0.445000000000000229,-6.053503562088286216
0.446000000000000230,-6.021797016442213213
0.447000000000000230,-5.989891371253825092
0.448000000000000231,-5.957790593913957267
0.449000000000000232,-5.925498754694823234
0.450000000000000233,-5.893020025190374156
0.451000000000000234,-5.860358676460363903
0.452000000000000235,-5.827519076900119721
0.453000000000000236,-5.794505689856867647
0.454000000000000237,-5.761323071013118025
0.455000000000000238,-5.727975865556403257
0.456000000000000238,-5.694468805154381918
0.457000000000000239,-5.660806704753204244
0.458000000000000240,-5.626994459216611233
0.459000000000000241,-5.593037039822228884
0.460000000000000242,-5.558939490631155778
0.461000000000000243,-5.524706924745872882
0.462000000000000244,-5.490344520471227341
0.463000000000000245,-5.455857517392082912
0.464000000000000246,-5.421251212381150708
0.465000000000000246,-5.386530955549362787
0.466000000000000247,-5.351702146150808304
0.467000000000000248,-5.316770228453586711
0.468000000000000249,-5.281740687587275218
0.469000000000000250,-5.246619045377229895
0.470000000000000251,-5.211410856175247908
0.471000000000000252,-5.176121702695639648
0.472000000000000253,-5.140757191865363396
0.473000000000000254,-5.105322950695979856
0.474000000000000254,-5.069824622185157281
0.475000000000000255,-5.034267861254572374
0.476000000000000256,-4.998658330730849642
0.477000000000000257,-4.963001697375603705
0.478000000000000258,-4.927303627970196942
0.479000000000000259,-4.891569785460522013
0.480000000000000260,-4.855805825166598311
0.481000000000000261,-4.820017391061385936
0.482000000000000262,-4.784210112122954328
0.483000000000000262,-4.748389598763686159
0.484000000000000263,-4.712561439339806313
0.485000000000000264,-4.676731196744374763
0.486000000000000265,-4.640904405086410556
0.487000000000000266,-4.605086566458477471
0.488000000000000267,-4.569283147794983790
0.489000000000000268,-4.533499577822965421
0.490000000000000269,-4.497741244106904013
0.491000000000000270,-4.462013490189013609
0.492000000000000270,-4.426321612825943497
0.493000000000000271,-4.390670859322908015
0.494000000000000272,-4.355066424965805538
0.495000000000000273,-4.319513450551759171
0.496000000000000274,-4.284017020018444200
0.497000000000000275,-4.248582158172123258
0.498000000000000276,-4.213213828514438042
0.499000000000000277,-4.177916931167603209
0.500000000000000222,-4.142696300897607209
0.501000000000000334,-4.107556705234920003
0.502000000000000224,-4.072502842691974045
0.503000000000000336,-4.037539341076580968
0.504000000000000226,-4.002670755900488153
0.505000000000000338,-3.967901568881841534
0.506000000000000227,-3.933236186540645996
0.507000000000000339,-3.898678938885791645
0.508000000000000229,-3.864234078192505084
0.509000000000000341,-3.829905777868662931
0.510000000000000231,-3.795698131408761888
0.511000000000000343,-3.761615151433674864
0.512000000000000233,-3.727660768814954562
0.513000000000000345,-3.693838831881746110
0.514000000000000234,-3.660153105708926713
0.515000000000000346,-3.626607271484389994
0.516000000000000236,-3.593204925954056161
0.517000000000000348,-3.559949580942531888
0.518000000000000238,-3.526844662947807851
0.519000000000000350,-3.493893512807949353
0.520000000000000240,-3.461099385438061837
0.521000000000000352,-3.428465449635571982
0.522000000000000242,-3.395994787951936988
0.523000000000000353,-3.363690396628876478
0.524000000000000243,-3.331555185597208091
0.525000000000000355,-3.299591978536393633
0.526000000000000245,-3.267803512992890180
0.527000000000000357,-3.236192440555305527
0.528000000000000247,-3.204761327084638456
0.529000000000000359,-3.173512652997481531
0.530000000000000249,-3.142448813600529078
0.531000000000000361,-3.111572119474325770
0.532000000000000250,-3.080884796904578060
0.533000000000000362,-3.050388988359035380
0.534000000000000252,-3.020086753008239366
0.535000000000000364,-2.989980067288282584
0.536000000000000254,-2.960070825503868797
0.537000000000000366,-2.930360840469779404
0.538000000000000256,-2.900851844189259232
0.539000000000000368,-2.871545488567336157
0.540000000000000258,-2.842443346157710771
0.541000000000000369,-2.813546910941238544
0.542000000000000259,-2.784857599134722861
0.543000000000000371,-2.756376750028153744
0.544000000000000261,-2.728105626849024912
0.545000000000000373,-2.700045417652090940
0.546000000000000263,-2.672197236233178952
0.547000000000000375,-2.644562123065397952
0.548000000000000265,-2.617141046256648895
0.549000000000000377,-2.589934902526612515
0.550000000000000266,-2.562944518202270316
0.551000000000000378,-2.536170650230293422
0.552000000000000268,-2.509613987205221441
0.553000000000000380,-2.483275150412031618
0.554000000000000270,-2.457154694881980905
0.555000000000000382,-2.431253110460369182
0.556000000000000272,-2.405570822885269688
0.557000000000000384,-2.380108194875822925
0.558000000000000274,-2.354865527229306643
0.559000000000000385,-2.329843059925592819
0.560000000000000275,-2.305040973238249080
0.561000000000000387,-2.280459388851050484
0.562000000000000277,-2.256098370979070733
0.563000000000000389,-2.231957927493356753
0.564000000000000279,-2.208038011048297555
0.565000000000000391,-2.184338520210784118
0.566000000000000281,-2.160859300590352028
0.567000000000000393,-2.137600145969430265
0.568000000000000282,-2.114560799433008231
0.569000000000000394,-2.091740954496812410
0.570000000000000284,-2.069140256233439779
0.571000000000000396,-2.046758302395571327
0.572000000000000286,-2.024594644535773202
0.573000000000000398,-2.002648789122024819
0.574000000000000288,-1.980920198648574715
0.575000000000000400,-1.959408292741367408
0.576000000000000290,-1.938112449257564318
0.577000000000000401,-1.917032005378558335
0.578000000000000291,-1.896166258696022400
0.579000000000000403,-1.875514468290431225
0.580000000000000293,-1.855075855801676443
0.581000000000000405,-1.834849606491197660
0.582000000000000295,-1.814834870295377600
0.583000000000000407,-1.795030762869620933
0.584000000000000297,-1.775436366622870965
0.585000000000000409,-1.756050731742131887
0.586000000000000298,-1.736872877206703691
0.587000000000000410,-1.717901791791755839
0.588000000000000300,-1.699136435061016970
0.589000000000000412,-1.680575738348202508
0.590000000000000302,-1.662218605727012744
0.591000000000000414,-1.644063914969408957
0.592000000000000304,-1.626110518491955759
0.593000000000000416,-1.608357244289965848
0.594000000000000306,-1.590802896859383697
0.595000000000000417,-1.573446258106077078
0.596000000000000307,-1.556286088242477605
0.597000000000000419,-1.539321126671383544
0.598000000000000309,-1.522550092856824744
0.599000000000000421,-1.505971687181790752
0.600000000000000311,-1.489584591792842527
0.601000000000000423,-1.473387471431383045
0.602000000000000313,-1.457378974251636983
0.603000000000000425,-1.441557732625114330
0.604000000000000314,-1.425922363931719783
0.605000000000000426,-1.410471471337201965
0.606000000000000316,-1.395203644557164058
0.607000000000000428,-1.380117460607402924
0.608000000000000318,-1.365211484540737263
0.609000000000000430,-1.350484270170162926
0.610000000000000320,-1.335934360778494590
0.611000000000000432,-1.321560289814371014
0.612000000000000322,-1.307360581574760205
0.613000000000000433,-1.293333751873915638
0.614000000000000323,-1.279478308698880573
0.615000000000000435,-1.265792752851552905
0.616000000000000325,-1.252275578577378479
0.617000000000000437,-1.238925274180728398
0.618000000000000327,-1.225740322627065337
0.619000000000000439,-1.212719202131884444
0.620000000000000329,-1.199860386736624207
0.621000000000000441,-1.187162346871549534
0.622000000000000330,-1.174623549905731590
0.623000000000000442,-1.162242460684214551
0.624000000000000332,-1.150017542052474750
0.625000000000000444,-1.137947255368277455
0.626000000000000334,-1.126030061001041860
0.627000000000000446,-1.114264418818817770
0.628000000000000336,-1.102648788663017854
0.629000000000000448,-1.091181630810996506
0.630000000000000338,-1.079861406426636083
0.631000000000000449,-1.068686577999026666
0.632000000000000339,-1.057655609769410754
0.633000000000000451,-1.046766968146499055
0.634000000000000341,-1.036019122110309443
0.635000000000000453,-1.025410543604672764
0.636000000000000343,-1.014939707918511180
0.637000000000000455,-1.004605094056080450
0.638000000000000345,-0.994405185096308486
0.639000000000000457,-0.984338468541317568
0.640000000000000346,-0.974403436654395882
0.641000000000000458,-0.964598586787432710
0.642000000000000348,-0.954922421698089274
0.643000000000000460,-0.945373449856754311
0.644000000000000350,-0.935950185743525176
0.645000000000000462,-0.926651150135283763
0.646000000000000352,-0.917474870383105712
0.647000000000000464,-0.908419880680056302
0.648000000000000353,-0.899484722319661700
0.649000000000000465,-0.890667943945043228
0.650000000000000355,-0.881968101789037839
0.651000000000000467,-0.873383759905312473
0.652000000000000357,-0.864913490390753936
0.653000000000000469,-0.856555873599168849
0.654000000000000359,-0.848309498346565105
0.655000000000000471,-0.840172962108048038
0.656000000000000361,-0.832144871206609849
0.657000000000000473,-0.824223840993835388
0.658000000000000362,-0.816408496022802077
0.659000000000000474,-0.808697470213208924
0.660000000000000364,-0.801089407008994447
0.661000000000000476,-0.793582959528483456
0.662000000000000366,-0.786176790707306283
0.663000000000000478,-0.778869573434180062
