# CNT15-NH2-14_BSAIV11
# h[nm],U(h)[kJ/mol]
0.149999999999999994,155.695402896891096134
0.150999999999999995,153.086070557812007564
0.151999999999999996,151.146919752454579111
0.152999999999999997,149.338887829453540235
0.153999999999999998,147.469418452875771663
0.154999999999999999,145.507746658685192642
0.156000000000000000,143.485360273951954468
0.157000000000000001,141.446575488508500484
0.158000000000000002,139.427364355606812296
0.159000000000000002,137.449140379212821017
0.160000000000000003,135.519682557191345040
0.161000000000000004,133.636807151168852670
0.162000000000000005,131.792490392196185667
0.163000000000000006,129.976381313347246760
0.164000000000000007,128.178339035107967447
0.165000000000000008,126.389991400377127206
0.166000000000000009,124.605476669193123485
0.167000000000000010,122.821582699149303153
0.168000000000000010,121.037491813269028285
0.169000000000000011,119.254306347703689539
0.170000000000000012,117.474488035438213274
0.171000000000000013,115.701303748033595298
0.172000000000000014,113.938335317403470981
0.173000000000000015,112.189083787388966584
0.174000000000000016,110.456678426006916993
0.175000000000000017,108.743687268424679360
0.176000000000000018,107.052017647228652208
0.177000000000000018,105.382890859718742149
0.178000000000000019,103.736873698649404218
0.179000000000000020,102.113950090885722943
0.180000000000000021,100.513617801266917695
0.181000000000000022,98.934997503594004797
0.182000000000000023,97.376944093288585691
0.183000000000000024,95.838152643510383655
0.184000000000000025,94.317253717152155446
0.185000000000000026,92.812894746691839032
0.186000000000000026,91.323805843200346999
0.187000000000000027,89.848849693595425947
0.188000000000000028,88.387056174522129481
0.189000000000000029,86.937642989166974417
0.190000000000000030,85.500024063693885523
0.191000000000000031,84.073807668181387953
0.192000000000000032,82.658786296429212825
0.193000000000000033,81.254920289327571936
0.194000000000000034,79.862317052164172537
0.195000000000000034,78.481207526341876246
0.196000000000000035,77.111921354183905919
0.197000000000000036,75.754861940468913417
0.198000000000000037,74.410482380221040444
0.199000000000000038,73.079262999334531514
0.200000000000000039,71.761691049836173306
0.201000000000000040,70.458242919288167627
0.202000000000000041,69.169369056220574521
0.203000000000000042,67.895481681126426565
0.204000000000000042,66.636945244825454893
0.205000000000000043,65.394069511432135755
0.206000000000000044,64.167105079711816984
0.207000000000000045,62.956241111919027276
0.208000000000000046,61.761605010783775072
0.209000000000000047,60.583263770629812939
0.210000000000000048,59.421226725260339663
0.211000000000000049,58.275449420969280823
0.212000000000000050,57.145838355775637751
0.213000000000000050,56.032256343910127327
0.214000000000000051,54.934528286110662521
0.215000000000000052,53.852447150057152214
0.216000000000000053,52.785779990159525710
0.217000000000000054,51.734273860986945692
0.218000000000000055,50.697661503157135598
0.219000000000000056,49.675666703932932933
0.220000000000000057,48.668009256678494978
0.221000000000000058,47.674409463435360124
0.222000000000000058,46.694592142994814310
0.223000000000000059,45.728290122894222236
0.224000000000000060,44.775247207721626808
0.225000000000000061,43.835220628022241840
0.226000000000000062,42.907982984043094632
0.227000000000000063,41.993323706645426796
0.228000000000000064,41.091050064097387917
0.229000000000000065,40.200987748282912548
0.230000000000000066,39.322981077291345287
0.231000000000000066,38.456892853543045874
0.232000000000000067,37.602603917725069493
0.233000000000000068,36.760012439007091700
0.234000000000000069,35.929032981432200700
0.235000000000000070,35.109595385162194248
0.236000000000000071,34.301643499531920156
0.237000000000000072,33.505133802742484761
0.238000000000000073,32.720033940601936706
0.239000000000000073,31.946321214096780494
0.240000000000000074,31.183981042820342111
0.241000000000000075,30.433005428470700338
0.242000000000000076,29.693391439812167221
0.243000000000000077,28.965139737720829061
0.244000000000000078,28.248253156245407780
0.245000000000000079,27.542735353040040280
0.246000000000000080,26.848589540091062133
0.247000000000000081,26.165817303379935055
0.248000000000000081,25.494417518016131652
0.249000000000000082,24.834385363440883765
0.250000000000000111,24.185711441550211021
0.251000000000000112,23.548380999013719617
0.252000000000000113,22.922373253670475179
0.253000000000000114,22.307660823662693872
0.254000000000000115,21.704209256910257153
0.255000000000000115,21.111976657630997067
0.256000000000000116,20.530913405860648169
0.257000000000000117,19.960961965312705502
0.258000000000000118,19.402056774434043973
0.259000000000000119,18.854124215142149978
0.260000000000000120,18.317082653467075204
0.261000000000000121,17.790842546153761816
0.262000000000000122,17.275306607196693420
0.263000000000000123,16.770370028271699425
0.264000000000000123,16.275920747086168205
0.265000000000000124,15.791839757783415976
0.266000000000000125,15.318001457698022350
0.267000000000000126,14.854274024961375389
0.268000000000000127,14.400519821690380695
0.269000000000000128,13.956595817754230637
0.270000000000000129,13.522354030394406976
0.271000000000000130,13.097641975269198156
0.272000000000000131,12.682303124799773286
0.273000000000000131,12.276177370006097433
0.274000000000000132,11.879101482333938478
0.275000000000000133,11.490909572285902485
0.276000000000000134,11.111433541975999972
0.277000000000000135,10.740503529028254448
0.278000000000000136,10.377948339530266963
0.279000000000000137,10.023595868033716272
0.280000000000000138,9.677273502862636434
0.281000000000000139,9.338808515245590414
0.282000000000000139,9.008028431029961425
0.283000000000000140,8.684761383963861547
0.284000000000000141,8.368836449743982442
0.285000000000000142,8.060083960225373545
0.286000000000000143,7.758335797371910481
0.287000000000000144,7.463425666694563532
0.288000000000000145,7.175189350077570971
0.289000000000000146,6.893464938032640710
0.290000000000000147,6.618093041546133648
0.291000000000000147,6.348916983797275648
0.292000000000000148,6.085782972124304635
0.293000000000000149,5.828540250703841075
0.294000000000000150,5.577041234484260812
0.295000000000000151,5.331141624979509608
0.296000000000000152,5.090700508584839135
0.297000000000000153,4.855580438121849696
0.298000000000000154,4.625647498356848075
0.299000000000000155,4.400771356265669176
0.300000000000000155,4.180825296839058680
0.301000000000000156,3.965686245237567853
0.302000000000000157,3.755234776112531314
0.303000000000000158,3.549355110912814748
0.304000000000000159,3.347935103993961548
0.305000000000000160,3.150866218339512415
0.306000000000000161,2.958043491692966320
0.307000000000000162,2.769365493884023088
0.308000000000000163,2.584734276115015383
0.309000000000000163,2.404055312952769974
0.310000000000000164,2.227237437748248450
0.311000000000000165,2.054192772181623550
0.312000000000000166,1.884836650603958663
0.313000000000000167,1.719087539819109001
0.314000000000000168,1.556866954920839596
0.315000000000000169,1.398099371770798793
0.316000000000000170,1.242712136673094658
0.317000000000000171,1.090635373771380090
0.318000000000000171,0.941801890664119568
0.319000000000000172,0.796147082703551723
0.320000000000000173,0.653608836414442451
0.321000000000000174,0.514127432439246523
0.322000000000000175,0.377645448387421756
0.323000000000000176,0.244107661938738035
0.324000000000000177,0.113460954522703522
0.325000000000000178,-0.014345784129990945
0.326000000000000179,-0.139361750294347608
0.327000000000000179,-0.261634319170957863
0.328000000000000180,-0.381209136197703191
0.329000000000000181,-0.498130206555006338
0.330000000000000182,-0.612439982687899676
0.331000000000000183,-0.724179449689435262
0.332000000000000184,-0.833388208409324038
0.333000000000000185,-0.940104556170668459
0.334000000000000186,-1.044365564995346940
0.335000000000000187,-1.146207157255091369
0.336000000000000187,-1.245664178681331835
0.337000000000000188,-1.342770468680946960
0.338000000000000189,-1.437558927919438734
0.339000000000000190,-1.530061583145323700
0.340000000000000191,-1.620309649241382655
0.341000000000000192,-1.708333588499574063
0.342000000000000193,-1.794163167126219260
0.343000000000000194,-1.877827508993541894
0.344000000000000195,-1.959355146661608371
0.345000000000000195,-2.038774069703132685
0.346000000000000196,-2.116111770369685008
0.347000000000000197,-2.191395286644723495
0.348000000000000198,-2.264651242734109893
0.349000000000000199,-2.335905887049757990
0.350000000000000200,-2.405185127746526597
0.351000000000000201,-2.472514565876076542
0.352000000000000202,-2.537919526224756694
0.353000000000000203,-2.601425085905344936
0.354000000000000203,-2.663056100774802371
0.355000000000000204,-2.722837229751802202
0.356000000000000205,-2.780792957109593289
0.357000000000000206,-2.836947612820702513
0.358000000000000207,-2.891325391030443281
0.359000000000000208,-2.943950366737024815
0.360000000000000209,-2.994846510755922342
0.361000000000000210,-3.044037703045908483
0.362000000000000210,-3.091547744474001380
0.363000000000000211,-3.137400367095656950
0.364000000000000212,-3.181619243025914479
0.365000000000000213,-3.224227991975973318
0.366000000000000214,-3.265250187528624615
0.367000000000000215,-3.304709362224461877
0.368000000000000216,-3.342629011529540062
0.369000000000000217,-3.379032596753218876
0.370000000000000218,-3.413943546983603028
0.371000000000000218,-3.447385260105825466
0.372000000000000219,-3.479381102966892847
0.373000000000000220,-3.509954410748723497
0.374000000000000221,-3.539128485609018604
0.375000000000000222,-3.566926594647596094
0.376000000000000223,-3.593371967254014976
0.377000000000000224,-3.618487791889870575
0.378000000000000225,-3.642297212357387792
0.379000000000000226,-3.664823323603660921
0.380000000000000226,-3.686089167108089093
0.381000000000000227,-3.706117725898065540
0.382000000000000228,-3.724931919236442290
0.383000000000000229,-3.742554597021860552
0.384000000000000230,-3.759008533941215369
0.385000000000000231,-3.774316423411666843
0.386000000000000232,-3.788500871347352472
0.387000000000000233,-3.801584389784498974
0.388000000000000234,-3.813589390396271650
0.389000000000000234,-3.824538177927438998
0.390000000000000235,-3.834452943576651229
0.391000000000000236,-3.843355758352792861
0.392000000000000237,-3.851268566429962625
0.393000000000000238,-3.858213178524190656
0.394000000000000239,-3.864211265313212351
0.395000000000000240,-3.869284350919379278
0.396000000000000241,-3.873453806474079109
0.397000000000000242,-3.876740843780714929
0.398000000000000242,-3.879166509092035309
0.399000000000000243,-3.880751677016051282
0.400000000000000244,-3.881517044563775443
0.401000000000000245,-3.881483125350730923
0.402000000000000246,-3.880670243962843102
0.403000000000000247,-3.879098530496577268
0.404000000000000248,-3.876787915281815433
0.405000000000000249,-3.873758123795144392
0.406000000000000250,-3.870028671770173734
0.407000000000000250,-3.865618860510696031
0.408000000000000251,-3.860547772411552447
0.409000000000000252,-3.854834266691264499
0.410000000000000253,-3.848496975339829707
0.411000000000000254,-3.841554299284168472
0.412000000000000255,-3.834024404773162420
0.413000000000000256,-3.825925219983617787
0.414000000000000257,-3.817274431847629934
0.415000000000000258,-3.808089483101654515
0.416000000000000258,-3.798387569556648025
0.417000000000000259,-3.788185637588469490
0.418000000000000260,-3.777500381847080924
0.419000000000000261,-3.766348243182763067
0.420000000000000262,-3.754745406787070472
0.421000000000000263,-3.742707800546039465
0.422000000000000264,-3.730251093602612311
0.423000000000000265,-3.717390695125117439
0.424000000000000266,-3.704141753278364035
0.425000000000000266,-3.690519154393413714
0.426000000000000267,-3.676537522332234520
0.427000000000000268,-3.662211218042900729
0.428000000000000269,-3.647554339301007253
0.429000000000000270,-3.632580720632810678
0.430000000000000271,-3.617303933415246142
0.431000000000000272,-3.601737286148215755
0.432000000000000273,-3.585893824894041071
0.433000000000000274,-3.569786333879214624
0.434000000000000274,-3.553427336253259572
0.435000000000000275,-3.536829094999622392
0.436000000000000276,-3.520003613993410774
0.437000000000000277,-3.502962639200712491
0.438000000000000278,-3.485717660014316266
0.439000000000000279,-3.468279910720586834
0.440000000000000280,-3.450660372092230865
0.441000000000000281,-3.432869773101737021
0.442000000000000282,-3.414918592750392001
0.443000000000000282,-3.396817062007517762
0.444000000000000283,-3.378575165855044027
0.445000000000000284,-3.360202645432170065
0.446000000000000285,-3.341709000275131736
0.447000000000000286,-3.323103490647285163
0.448000000000000287,-3.304395139954349414
0.449000000000000288,-3.285592737240284666
0.450000000000000289,-3.266704839758857837
0.451000000000000290,-3.247739775616386826
0.452000000000000290,-3.228705646481069724
0.453000000000000291,-3.209610330354399910
0.454000000000000292,-3.190461484400354486
0.455000000000000293,-3.171266547828028415
0.456000000000000294,-3.152032744823566990
0.457000000000000295,-3.132767087527348782
0.458000000000000296,-3.113476379052353860
0.459000000000000297,-3.094167216539989163
0.460000000000000298,-3.074845994249453263
0.461000000000000298,-3.055518906677132218
0.462000000000000299,-3.036191951702378766
0.463000000000000300,-3.016870933756232720
0.464000000000000301,-2.997561467009830505
0.465000000000000302,-2.978268978579200699
0.466000000000000303,-2.958998711743308085
0.467000000000000304,-2.939755729172425447
0.468000000000000305,-2.920544916163817728
0.469000000000000306,-2.901370983881983001
0.470000000000000306,-2.882238472600794132
0.471000000000000307,-2.863151754944813998
0.472000000000000308,-2.844115039127424360
0.473000000000000309,-2.825132372183299712
0.474000000000000310,-2.806207643192931478
0.475000000000000311,-2.787344586496993237
0.476000000000000312,-2.768546784898529900
0.477000000000000313,-2.749817672850815686
0.478000000000000314,-2.731160539629063244
0.479000000000000314,-2.712578532484169358
0.480000000000000315,-2.694074659776650282
0.481000000000000316,-2.675651794089270563
0.482000000000000317,-2.657312675316637396
0.483000000000000318,-2.639059913730418483
0.484000000000000319,-2.620895993018677483
0.485000000000000320,-2.602823273298076945
0.486000000000000321,-2.584843994097658193
0.487000000000000322,-2.566960277313078187
0.488000000000000322,-2.549174130130095861
0.489000000000000323,-2.531487447916468625
0.490000000000000324,-2.513902017081124818
0.491000000000000325,-2.496419517899837182
0.492000000000000326,-2.479041527306490078
0.493000000000000327,-2.461769521649281423
0.494000000000000328,-2.444604879411069298
0.495000000000000329,-2.427548883893289933
0.496000000000000330,-2.410602725862791118
0.497000000000000330,-2.393767506161187164
0.498000000000000331,-2.377044238276066146
0.499000000000000332,-2.360433850873843831
0.500000000000000333,-2.343937190293764683
0.501000000000000334,-2.327555023002706225
0.502000000000000335,-2.311288038010626877
0.503000000000000336,-2.295136849246325106
0.504000000000000337,-2.279101997893369980
0.505000000000000338,-2.263183954686033061
0.506000000000000338,-2.247383122165130587
0.507000000000000339,-2.231699836893700439
0.508000000000000340,-2.216134371632440647
0.509000000000000341,-2.200686937475029747
0.510000000000000342,-2.185357685943183359
0.511000000000000343,-2.170146711041691212
0.512000000000000344,-2.155054051273384008
0.513000000000000345,-2.140079691614245494
0.514000000000000346,-2.125223565448821184
0.515000000000000346,-2.110485556466025869
0.516000000000000347,-2.095865500515611490
0.517000000000000348,-2.081363187425551597
0.518000000000000349,-2.066978362780482303
0.519000000000000350,-2.052710729661597622
0.520000000000000351,-2.038559950348157734
0.521000000000000352,-2.024525647981058718
0.522000000000000353,-2.010607408188650247
0.523000000000000353,-1.996804780675219604
0.524000000000000354,-1.983117280772513258
0.525000000000000355,-1.969544390954601543
0.526000000000000356,-1.956085562316501880
0.527000000000000357,-1.942740216017011745
0.528000000000000358,-1.929507744686020931
0.529000000000000359,-1.916387513796909969
0.530000000000000360,-1.903378863004265842
0.531000000000000361,-1.890481107447518738
0.532000000000000361,-1.877693539020832691
0.533000000000000362,-1.865015427609776122
0.534000000000000363,-1.852446022295165307
0.535000000000000364,-1.839984552524627670
0.536000000000000365,-1.827630229252263039
0.537000000000000366,-1.815382246046981951
0.538000000000000367,-1.803239780169870077
0.539000000000000368,-1.791201993621238886
0.540000000000000369,-1.779268034157643452
0.541000000000000369,-1.767437036279555951
0.542000000000000370,-1.755708122190018372
0.543000000000000371,-1.744080402724877077
0.544000000000000372,-1.732552978255045728
0.545000000000000373,-1.721124939561309075
0.546000000000000374,-1.709795368682125893
0.547000000000000375,-1.698563339734963096
0.548000000000000376,-1.687427919711652846
0.549000000000000377,-1.676388169248222537
0.550000000000000377,-1.665443143369739643
0.551000000000000378,-1.654591892210602211
0.552000000000000379,-1.643833461710829003
0.553000000000000380,-1.633166894288769155
0.554000000000000381,-1.622591229490723874
0.555000000000000382,-1.612105504618028817
0.556000000000000383,-1.601708755331921141
0.557000000000000384,-1.591400016236851345
0.558000000000000385,-1.581178321442512802
0.559000000000000385,-1.571042705105214043
0.560000000000000386,-1.560992201948953939
0.561000000000000387,-1.551025847766684063
0.562000000000000388,-1.541142679902191004
0.563000000000000389,-1.531341737713100004
0.564000000000000390,-1.521622063015344528
0.565000000000000391,-1.511982700509630906
0.566000000000000392,-1.502422698190245764
0.567000000000000393,-1.492941107736719841
0.568000000000000393,-1.483536984888663923
0.569000000000000394,-1.474209389804267856
0.570000000000000395,-1.464957387402867184
0.571000000000000396,-1.455780047691895618
0.572000000000000397,-1.446676446078768441
0.573000000000000398,-1.437645663667913798
0.574000000000000399,-1.428686787543502534
0.575000000000000400,-1.419798911038115952
0.576000000000000401,-1.410981133987813108
0.577000000000000401,-1.402232562973963592
0.578000000000000402,-1.393552311552140210
0.579000000000000403,-1.384939500468475249
0.580000000000000404,-1.376393257863870456
0.581000000000000405,-1.367912719466290561
0.582000000000000406,-1.359497028771613270
0.583000000000000407,-1.351145337213236486
0.584000000000000408,-1.342856804320887276
0.585000000000000409,-1.334630597868863067
0.586000000000000409,-1.326465894014059232
0.587000000000000410,-1.318361877424111706
0.588000000000000411,-1.310317741395876645
0.589000000000000412,-1.302332687964670166
0.590000000000000413,-1.294405928004414008
0.591000000000000414,-1.286536681319089270
0.592000000000000415,-1.278724176725729800
0.593000000000000416,-1.270967652129205705
0.594000000000000417,-1.263266354589093421
0.595000000000000417,-1.255619540378952070
0.596000000000000418,-1.248026475038085836
0.597000000000000419,-1.240486433416285728
0.598000000000000420,-1.232998699711563395
0.599000000000000421,-1.225562567501300659
0.600000000000000422,-1.218177339766930212
0.601000000000000423,-1.210842328912426824
0.602000000000000424,-1.203556856776836659
0.603000000000000425,-1.196320254641060732
0.604000000000000425,-1.189131863229062613
0.605000000000000426,-1.181991032703781697
0.606000000000000427,-1.174897122657941662
0.607000000000000428,-1.167849502099827852
0.608000000000000429,-1.160847549434507853
0.609000000000000430,-1.153890652440312303
0.610000000000000431,-1.146978208241131725
0.611000000000000432,-1.140109623274433659
0.612000000000000433,-1.133284313255296549
0.613000000000000433,-1.126501703136657317
