# CNT15-NH2-14_FORMICACID-AC
# h[nm],U(h)[kJ/mol]
0.149999999999999994,90.767158163284534567
0.150999999999999995,89.069678727905028381
0.151999999999999996,87.799041272645808931
0.152999999999999997,86.599354380664564701
0.153999999999999998,85.355974467305259168
0.154999999999999999,84.059812311840090615
0.156000000000000000,82.737494138212767325
0.157000000000000001,81.418950176866587753
0.158000000000000002,80.125181228480386153
0.159000000000000002,78.866051375530588530
0.160000000000000003,77.642376235671136442
0.161000000000000004,76.449263931711485043
0.162000000000000005,75.279248184130864274
0.163000000000000006,74.124643475899091527
0.164000000000000007,72.979020528939969381
0.165000000000000008,71.837919157429581674
0.166000000000000009,70.698993681622965823
0.167000000000000010,69.561790321490747147
0.168000000000000010,68.427326098996786641
0.169000000000000011,67.297597355424031207
0.170000000000000012,66.175104994376994227
0.171000000000000013,65.062448559344161936
0.172000000000000014,63.962014137017249027
0.173000000000000015,62.875761755217538962
0.174000000000000016,61.805105383190507951
0.175000000000000017,60.750871466883481276
0.176000000000000018,59.713318758584264856
0.177000000000000018,58.692201801226381974
0.178000000000000019,57.686861796594698149
0.179000000000000020,56.696330947973024195
0.180000000000000021,55.719439156194553675
0.181000000000000022,54.754914775728835252
0.182000000000000023,53.801473757847404045
0.183000000000000024,52.857893781778230391
0.184000000000000025,51.923071840415104816
0.185000000000000026,50.996065196193249847
0.186000000000000026,50.076116680934390502
0.187000000000000027,49.162666026317388912
0.188000000000000028,48.255349333985130045
0.189000000000000029,47.353988983119258194
0.190000000000000030,46.458576282995828421
0.191000000000000031,45.569249057594348074
0.192000000000000032,44.686266140991499185
0.193000000000000033,43.809980500969302852
0.194000000000000034,42.940812421855277137
0.195000000000000034,42.079223887390426739
0.196000000000000035,41.225695025933596582
0.197000000000000036,40.380703224210868996
0.198000000000000037,39.544705288737581839
0.199000000000000038,38.718122839416636793
0.200000000000000039,37.901330958634737556
0.201000000000000040,37.094649990617035940
0.202000000000000041,36.298340287772234092
0.203000000000000042,35.512599630363425263
0.204000000000000042,34.737562999705858147
0.205000000000000043,33.973304359667238828
0.206000000000000044,33.219840092987482194
0.207000000000000045,32.477133744467451493
0.208000000000000046,31.745101739279000697
0.209000000000000047,31.023619768726767632
0.210000000000000048,30.312529565295200484
0.211000000000000049,29.611645821655837807
0.212000000000000050,28.920763042744273008
0.213000000000000050,28.239662154637123592
0.214000000000000051,27.568116727650100017
0.215000000000000052,26.905898703000161731
0.216000000000000053,26.252783541919619381
0.217000000000000054,25.608554742871916687
0.218000000000000055,24.973007696261145583
0.219000000000000056,24.345952866653256308
0.220000000000000057,23.727218310044627003
0.221000000000000058,23.116651548228198010
0.222000000000000058,22.514120833973148450
0.223000000000000059,21.919515849766845861
0.224000000000000060,21.332747889500264904
0.225000000000000061,20.753749576968147039
0.226000000000000062,20.182474177662715675
0.227000000000000063,19.618894561324424330
0.228000000000000064,19.063001872326346131
0.229000000000000065,18.514803963445562118
0.230000000000000066,17.974323646139332311
0.231000000000000066,17.441596807293954896
0.232000000000000067,16.916670438735181392
0.233000000000000068,16.399600621738848361
0.234000000000000069,15.890450504502769746
0.235000000000000070,15.389288306153980912
0.236000000000000071,14.896185376474672779
0.237000000000000072,14.411214336216687570
0.238000000000000073,13.934447318710834196
0.239000000000000073,13.465954329515778198
0.240000000000000074,13.005801737131767126
0.241000000000000075,12.554050904360442686
0.242000000000000076,12.110756966739469220
0.243000000000000077,11.675967761632151110
0.244000000000000078,11.249722909012056959
0.245000000000000079,10.832053042746666804
0.246000000000000080,10.422979189247300269
0.247000000000000081,10.022512288700704985
0.248000000000000081,9.630652852719283175
0.249000000000000082,9.247390751123319319
0.250000000000000111,8.872705119681910446
0.251000000000000112,8.506564379970694034
0.252000000000000113,8.148926362032973714
0.253000000000000114,7.799738520238530093
0.254000000000000115,7.458938232598694817
0.255000000000000115,7.126453173800920027
0.256000000000000116,6.802201752350471864
0.257000000000000117,6.486093602434810812
0.258000000000000118,6.178030121441063116
0.259000000000000119,5.877905044443017424
0.260000000000000120,5.585605047417343094
0.261000000000000121,5.301010371437293145
0.262000000000000122,5.023995460612598940
0.263000000000000123,4.754429607088084708
0.264000000000000123,4.492177596969738396
0.265000000000000124,4.237100351608729554
0.266000000000000125,3.989055559233115389
0.267000000000000126,3.747898292468311077
0.268000000000000127,3.513481607824746167
0.269000000000000128,3.285657123751570818
0.270000000000000129,3.064275574353680032
0.271000000000000130,2.849187336343847132
0.272000000000000131,2.640242927250390004
0.273000000000000131,2.437293473321040516
0.274000000000000132,2.240191145955511054
0.275000000000000133,2.048789565861335316
0.276000000000000134,1.862944174459923330
0.277000000000000135,1.682512572373137116
0.278000000000000136,1.507354825094022299
0.279000000000000137,1.337333736191194999
0.280000000000000138,1.172315088614319212
0.281000000000000139,1.012167854859525429
0.282000000000000139,0.856764376920146731
0.283000000000000140,0.705980517090452286
0.284000000000000141,0.559695780810050558
0.285000000000000142,0.417793412835313016
0.286000000000000143,0.280160468103292259
0.287000000000000144,0.146687858714714681
0.288000000000000145,0.017270378506347071
0.289000000000000146,-0.108193293287433073
0.290000000000000147,-0.229800607769754001
0.291000000000000147,-0.347645179995916431
0.292000000000000148,-0.461816838959768272
0.293000000000000149,-0.572401692462329192
0.294000000000000150,-0.679482205400970041
0.295000000000000151,-0.783137290052621560
0.296000000000000152,-0.883442406966211680
0.297000000000000153,-0.980469675126926843
0.298000000000000154,-1.074287990106957302
0.299000000000000155,-1.164963148973140461
0.300000000000000155,-1.252557980780829805
0.301000000000000156,-1.337132481544304641
0.302000000000000157,-1.418743952636951855
0.303000000000000158,-1.497447141637937573
0.304000000000000159,-1.573294384706565907
0.305000000000000160,-1.646335749629431744
0.306000000000000161,-1.716619178749439367
0.307000000000000162,-1.784190631048581777
0.308000000000000163,-1.849094222718046909
0.309000000000000163,-1.911372365609618651
0.310000000000000164,-1.971065903020905896
0.311000000000000165,-2.028214242323497452
0.312000000000000166,-2.082855483997884338
0.313000000000000167,-2.135026546691276561
0.314000000000000168,-2.184763287964410772
0.315000000000000169,-2.232100620441169969
0.316000000000000170,-2.277072623119925865
0.317000000000000171,-2.319712647648070281
0.318000000000000171,-2.360053419401351160
0.319000000000000172,-2.398127133247232923
0.320000000000000173,-2.433965543906462248
0.321000000000000174,-2.467600050859635630
0.322000000000000175,-2.499061777775763549
0.323000000000000176,-2.528381646467553701
0.324000000000000177,-2.555590445403608690
0.325000000000000178,-2.580718892830880851
0.326000000000000179,-2.603797694582008493
0.327000000000000179,-2.624857596660852721
0.328000000000000180,-2.643929432716657146
0.329000000000000181,-2.661044166532527733
0.330000000000000182,-2.676232929666733540
0.331000000000000183,-2.689527054397441663
0.332000000000000184,-2.700958102130942784
0.333000000000000185,-2.710557887442111458
0.334000000000000186,-2.718358497922669148
0.335000000000000187,-2.724392310018465935
0.336000000000000187,-2.728692001041380433
0.337000000000000188,-2.731290557544444830
0.338000000000000189,-2.732221280251182272
0.339000000000000190,-2.731517785731018222
0.340000000000000191,-2.729214005012823741
0.341000000000000192,-2.725344179328151650
0.342000000000000193,-2.719942853174067476
0.343000000000000194,-2.713044864883634055
0.344000000000000195,-2.704685334888975223
0.345000000000000195,-2.694899651859027578
0.346000000000000196,-2.683723456889822501
0.347000000000000197,-2.671192625921175789
0.348000000000000198,-2.657343250548982905
0.349000000000000199,-2.642211617397223655
0.350000000000000200,-2.625834186208760190
0.351000000000000201,-2.608247566808307383
0.352000000000000202,-2.589488495085396469
0.353000000000000203,-2.569593808139320146
0.354000000000000203,-2.548600418722056560
0.355000000000000204,-2.526545289109094483
0.356000000000000205,-2.503465404522100535
0.357000000000000206,-2.479397746221223109
0.358000000000000207,-2.454379264378560244
0.359000000000000208,-2.428446850838499760
0.360000000000000209,-2.401637311864415647
0.361000000000000210,-2.373987340965265425
0.362000000000000210,-2.345533491889806754
0.363000000000000211,-2.316312151870322023
0.364000000000000212,-2.286359515192114777
0.365000000000000213,-2.255711557159440606
0.366000000000000214,-2.224404008523229059
0.367000000000000215,-2.192472330430596195
0.368000000000000216,-2.159951689951179699
0.369000000000000217,-2.126876936230257087
0.370000000000000218,-2.093282577313986703
0.371000000000000218,-2.059202757687366159
0.372000000000000219,-2.024671236561245813
0.373000000000000220,-1.989721366940369052
0.374000000000000221,-1.954386075500450515
0.375000000000000222,-1.918697843298278638
0.376000000000000223,-1.882688687335357880
0.377000000000000224,-1.846390142991844119
0.378000000000000225,-1.809833247344325047
0.379000000000000226,-1.773048523377787733
0.380000000000000226,-1.736065965099155450
0.381000000000000227,-1.698915023556833104
0.382000000000000228,-1.661624593768210145
0.383000000000000229,-1.624223002554464390
0.384000000000000230,-1.586737997279619616
0.385000000000000231,-1.549196735488853616
0.386000000000000232,-1.511625775438725894
0.387000000000000233,-1.474051067510365298
0.388000000000000234,-1.436497946494720512
0.389000000000000234,-1.398991124737559488
0.390000000000000235,-1.361554686130229896
0.391000000000000236,-1.324212080931046476
0.392000000000000237,-1.286986121400761851
0.393000000000000238,-1.249898978234653457
0.394000000000000239,-1.212972177772588367
0.395000000000000240,-1.176226599967713282
0.396000000000000241,-1.139682477093507007
0.397000000000000242,-1.103359393168288571
0.398000000000000242,-1.067276284075748594
0.399000000000000243,-1.031451438359469952
0.400000000000000244,-0.995902498668988168
0.401000000000000245,-0.960646463834787134
0.402000000000000246,-0.925699691549050518
0.403000000000000247,-0.891077901629076186
0.404000000000000248,-0.856796179839988681
0.405000000000000249,-0.822868982253372239
0.406000000000000250,-0.789310140118387293
0.407000000000000250,-0.756132865222083894
0.408000000000000251,-0.723349755715582132
0.409000000000000252,-0.690972802383098328
0.410000000000000253,-0.659013395330836915
0.411000000000000254,-0.627482331073102917
0.412000000000000255,-0.596389819993199954
0.413000000000000256,-0.565745494157036899
0.414000000000000257,-0.535558415457589310
0.415000000000000258,-0.505837084068904153
0.416000000000000258,-0.476589447188507098
0.417000000000000259,-0.447822908047680879
0.418000000000000260,-0.419544335169376115
0.419000000000000261,-0.391760071854025671
0.420000000000000262,-0.364475945873993346
0.421000000000000263,-0.337697279357874081
0.422000000000000264,-0.311428898846315638
0.423000000000000265,-0.285675145501547323
0.424000000000000266,-0.260439885453420172
0.425000000000000266,-0.235726520265032408
0.426000000000000267,-0.211537997501824698
0.427000000000000268,-0.187876821388333365
0.428000000000000269,-0.164745063537423381
0.429000000000000270,-0.142144373737362384
0.430000000000000271,-0.120075990782531200
0.431000000000000272,-0.098540753334208059
0.432000000000000273,-0.077539110798306402
0.433000000000000274,-0.057071134207515174
0.434000000000000274,-0.037136527095766626
0.435000000000000275,-0.017734636353511312
0.436000000000000276,0.001135536947230409
0.437000000000000277,0.019475326768610059
0.438000000000000278,0.037286391373482053
0.439000000000000279,0.054570702652300053
0.440000000000000280,0.071330535519466179
0.441000000000000281,0.087568457387748738
0.442000000000000282,0.103287317728866596
0.443000000000000282,0.118490237728043818
0.444000000000000283,0.133180600039683850
0.445000000000000284,0.147362038651068589
0.446000000000000285,0.161038428860516392
0.447000000000000286,0.174213877375886200
0.448000000000000287,0.186892712539190403
0.449000000000000288,0.199079474682394286
0.450000000000000289,0.210778906619340844
0.451000000000000290,0.221995944278228746
0.452000000000000290,0.232735707478764015
0.453000000000000291,0.243003490857789661
0.454000000000000292,0.252804754946803045
0.455000000000000293,0.262145117404507633
0.456000000000000294,0.271030344407198420
0.457000000000000295,0.279466342199484796
0.458000000000000296,0.287459148807588716
0.459000000000000297,0.295014925917143844
0.460000000000000298,0.302139950917178601
0.461000000000000298,0.308840609111694087
0.462000000000000299,0.315123386099994574
0.463000000000000300,0.320994860326739406
0.464000000000000301,0.326461695802365504
0.465000000000000302,0.331530634994396278
0.466000000000000303,0.336208491889920302
0.467000000000000304,0.340502145229305053
0.468000000000000305,0.344418531911021675
0.469000000000000306,0.347964640567327621
0.470000000000000306,0.351147505310290431
0.471000000000000307,0.353974199647586307
0.472000000000000308,0.356451830567235672
0.473000000000000309,0.358587532790389851
0.474000000000000310,0.360388463191083364
0.475000000000000311,0.361861795381758611
0.476000000000000312,0.363014714463232357
0.477000000000000313,0.363854411937698519
0.478000000000000314,0.364388080783200785
0.479000000000000314,0.364622910687909862
0.480000000000000315,0.364566083442524835
0.481000000000000316,0.364224768488893402
0.482000000000000317,0.363606118623007790
0.483000000000000318,0.362717265850337367
0.484000000000000319,0.361565317391478902
0.485000000000000320,0.360157351835962480
0.486000000000000321,0.358500415442068232
0.487000000000000322,0.356601518580384469
0.488000000000000322,0.354467632318867132
0.489000000000000323,0.352105685147006464
0.490000000000000324,0.349522559836791036
0.491000000000000325,0.346725090438034400
0.492000000000000326,0.343720059405647149
0.493000000000000327,0.340514194856376018
0.494000000000000328,0.337114167952533517
0.495000000000000329,0.333526590410229529
0.496000000000000330,0.329758012129570066
0.497000000000000330,0.325814918944286880
0.498000000000000331,0.321703730488305861
0.499000000000000332,0.317430798176650597
0.500000000000000333,0.313002403298169196
0.501000000000000334,0.308424755217554414
0.502000000000000335,0.303703989684073250
0.503000000000000336,0.298846167244512351
0.504000000000000337,0.293857271757782423
0.505000000000000338,0.288743209008684110
0.506000000000000338,0.283509805418315497
0.507000000000000339,0.278162806848644029
0.508000000000000340,0.272707877498772344
0.509000000000000341,0.267150598890416258
0.510000000000000342,0.261496468940201399
0.511000000000000343,0.255750901116329921
0.512000000000000344,0.249919223677253999
0.513000000000000345,0.244006678989977022
0.514000000000000346,0.238018422925626888
0.515000000000000346,0.231959524330037803
0.516000000000000347,0.225834964567011853
0.517000000000000348,0.219649637132007303
0.518000000000000349,0.213408347334061499
0.519000000000000350,0.207115812043727893
0.520000000000000351,0.200776659504862121
0.521000000000000352,0.194395429208142179
0.522000000000000353,0.187976571824220312
0.523000000000000353,0.181524449194438720
0.524000000000000354,0.175043334377086024
0.525000000000000355,0.168537411747184562
0.526000000000000356,0.162010777147887614
0.527000000000000357,0.155467438091499516
0.528000000000000358,0.148911314008293744
0.529000000000000359,0.142346236541224275
0.530000000000000360,0.135775949884755109
0.531000000000000361,0.129204111165987373
0.532000000000000361,0.122634290866367540
0.533000000000000362,0.116069973282249259
0.534000000000000363,0.109514557022650519
0.535000000000000364,0.102971355542550352
0.536000000000000365,0.096443597710141937
0.537000000000000366,0.089934428406462888
0.538000000000000367,0.083446909155893118
0.539000000000000368,0.076984018785980282
0.540000000000000369,0.070548654115205153
0.541000000000000369,0.064143630667184287
0.542000000000000370,0.057771683409992301
0.543000000000000371,0.051435467519198752
0.544000000000000372,0.045137559163319817
0.545000000000000373,0.038880456310400879
0.546000000000000374,0.032666579554474308
0.547000000000000375,0.026498272960672441
0.548000000000000376,0.020377804927800825
0.549000000000000377,0.014307369067241704
0.550000000000000377,0.008289085097039383
0.551000000000000378,0.002324999750098944
0.552000000000000379,-0.003582912304574648
0.553000000000000380,-0.009432747528622632
0.554000000000000381,-0.015222672570041540
0.555000000000000382,-0.020950923308864423
0.556000000000000383,-0.026615803893696999
0.557000000000000384,-0.032215685770075456
0.558000000000000385,-0.037749006701469280
0.559000000000000385,-0.043214269783835156
0.560000000000000386,-0.048610042454500138
0.561000000000000387,-0.053934955496204862
0.562000000000000388,-0.059187702037049504
0.563000000000000389,-0.064367036547127054
0.564000000000000390,-0.069471773832508216
0.565000000000000391,-0.074500788027323850
0.566000000000000392,-0.079453011584576697
0.567000000000000393,-0.084327434266355167
0.568000000000000393,-0.089123102134041773
0.569000000000000394,-0.093839116539146714
0.570000000000000395,-0.098474633115313084
0.571000000000000396,-0.103028860772056058
0.572000000000000397,-0.107501060690791489
0.573000000000000398,-0.111890545323614893
0.574000000000000399,-0.116196677395374273
0.575000000000000400,-0.120418868909457744
0.576000000000000401,-0.124556580157780622
0.577000000000000401,-0.128609318735390943
0.578000000000000402,-0.132576638560100324
0.579000000000000403,-0.136458138897519010
0.580000000000000404,-0.140253463391920213
0.581000000000000405,-0.143962299103222502
0.582000000000000406,-0.147584375550491281
0.583000000000000407,-0.151119463762237144
0.584000000000000408,-0.154567375333855062
0.585000000000000409,-0.157927961492461355
0.586000000000000409,-0.161201112169436694
0.587000000000000410,-0.164386755080921626
0.588000000000000411,-0.167484854816494749
0.589000000000000412,-0.170495411936314539
0.590000000000000413,-0.173418462076881802
0.591000000000000414,-0.176254075065675087
0.592000000000000415,-0.179002354044841744
0.593000000000000416,-0.181663434604103863
0.594000000000000417,-0.184237483923072320
0.595000000000000417,-0.186724699923124737
0.596000000000000418,-0.189125310428956972
0.597000000000000419,-0.191439572340000391
0.598000000000000420,-0.193667770811769308
0.599000000000000421,-0.195810218447290657
0.600000000000000422,-0.197867254498705236
0.601000000000000423,-0.199839244079122513
0.602000000000000424,-0.201726577384834821
0.603000000000000425,-0.203529668927954044
0.604000000000000425,-0.205248956779521485
0.605000000000000426,-0.206884901823167239
0.606000000000000427,-0.208437987019386428
0.607000000000000428,-0.209908716680388047
0.608000000000000429,-0.211297615755699469
0.609000000000000430,-0.212605229128360884
0.610000000000000431,-0.213832120921921776
0.611000000000000432,-0.214978873818104876
0.612000000000000433,-0.216046088385203644
0.613000000000000433,-0.217034382417234356
0.614000000000000434,-0.217944390283783207
0.615000000000000435,-0.218776762290556093
0.616000000000000436,-0.219532164050632417
