# CNT15-NH2-14_2HYDROXYACETALDEHYDE-AC
# h[nm],U(h)[kJ/mol]
0.149999999999999994,97.509109516715213317
0.150999999999999995,95.227048148813906892
0.151999999999999996,93.709955745337808253
0.152999999999999997,92.341853388466844876
0.153999999999999998,90.912635414873705031
0.154999999999999999,89.394676986596749657
0.156000000000000000,87.825959537431941726
0.157000000000000001,86.254412213630885731
0.158000000000000002,84.715755149284191816
0.159000000000000002,83.228368694519716087
0.160000000000000003,81.795764972085322597
0.161000000000000004,80.411563715562778043
0.162000000000000005,79.064449495897832776
0.163000000000000006,77.742058910842700925
0.164000000000000007,76.433537582596528637
0.165000000000000008,75.130891303921487179
0.166000000000000009,73.829406871264694701
0.167000000000000010,72.527443694900654236
0.168000000000000010,71.225862048049222608
0.169000000000000011,69.927295328643907624
0.170000000000000012,68.635412361211791676
0.171000000000000013,67.354261544633999392
0.172000000000000014,66.087745433873209322
0.173000000000000015,64.839242635325945230
0.174000000000000016,63.611372508512282309
0.175000000000000017,62.405885220610272768
0.176000000000000018,61.223653186018893280
0.177000000000000018,60.064737996928307950
0.178000000000000019,58.928508062959700453
0.179000000000000020,57.813785106159777172
0.180000000000000021,56.719001490069537397
0.181000000000000022,55.642354454795736274
0.182000000000000023,54.581947259101539771
0.183000000000000024,53.535910739877422770
0.184000000000000025,52.502501758584045888
0.185000000000000026,51.480177371294722377
0.186000000000000026,50.467645350457857489
0.187000000000000027,49.463892955100391191
0.188000000000000028,48.468196663769916199
0.189000000000000029,47.480116030253746828
0.190000000000000030,46.499474974503549163
0.191000000000000031,45.526333752985749470
0.192000000000000032,44.560954628045138293
0.193000000000000033,43.603763929151490686
0.194000000000000034,42.655312814421932899
0.195000000000000034,41.716238633393459168
0.196000000000000035,40.787228387908896821
0.197000000000000036,39.868985405981582915
0.198000000000000037,38.962199996184757822
0.199000000000000038,38.067524544967547229
0.200000000000000039,37.185553259840318674
0.201000000000000040,36.316806548073493843
0.202000000000000041,35.461719851695974626
0.203000000000000042,34.620636631925734150
0.204000000000000042,33.793805105523304633
0.205000000000000043,32.981378277236423457
0.206000000000000044,32.183416781624281100
0.207000000000000045,31.399894039328955841
0.208000000000000046,30.630703242765473959
0.209000000000000047,29.875665710073178616
0.210000000000000048,29.134540180297385348
0.211000000000000049,28.407032663914655757
0.212000000000000050,27.692806508218495765
0.213000000000000050,26.991492384459199627
0.214000000000000051,26.302697951119235142
0.215000000000000052,25.626016993852353210
0.216000000000000053,24.961037886313192757
0.217000000000000054,24.307351256560476571
0.218000000000000055,23.664556780401927227
0.219000000000000056,23.032269055653625145
0.220000000000000057,22.410122539681648135
0.221000000000000058,21.797775556803323127
0.222000000000000058,21.194913402272110403
0.223000000000000059,20.601250585878648991
0.224000000000000060,20.016532270939883631
0.225000000000000061,19.440534973937801055
0.226000000000000062,18.873066596646026483
0.227000000000000063,18.313965866593289178
0.228000000000000064,17.763101263503056515
0.229000000000000065,17.220369509250396334
0.230000000000000066,16.685693697210247421
0.231000000000000066,16.159021133927318203
0.232000000000000067,15.640320962090788370
0.233000000000000068,15.129581629088743711
0.234000000000000069,14.626808260167180720
0.235000000000000070,14.132019989615731248
0.236000000000000071,13.645247297614044868
0.237000000000000072,13.166529394535791297
0.238000000000000073,12.695911688742187451
0.239000000000000073,12.233443368297985288
0.240000000000000074,11.779175121684099636
0.241000000000000075,11.333157017526115595
0.242000000000000076,10.895436558645752001
0.243000000000000077,10.466056921405005653
0.244000000000000078,10.045055387368257982
0.245000000000000079,9.632461970763229075
0.246000000000000080,9.228298242078846414
0.247000000000000081,8.832576345387225913
0.248000000000000081,8.445298204608192805
0.249000000000000082,8.066454911929110239
0.250000000000000111,7.696026289930131270
0.251000000000000112,7.333980617623588216
0.252000000000000113,6.980274509569516006
0.253000000000000114,6.634852936455510886
0.254000000000000115,6.297649374997694949
0.255000000000000115,5.968586074709961942
0.256000000000000116,5.647574428971882554
0.257000000000000117,5.334515437879836952
0.258000000000000118,5.029300250567416697
0.259000000000000119,4.731810775007377678
0.260000000000000120,4.441920343738670063
0.261000000000000121,4.159494424479715846
0.262000000000000122,3.884391365174360455
0.263000000000000123,3.616463163655700530
0.264000000000000123,3.355556252789233973
0.265000000000000124,3.101512292659000636
0.266000000000000125,2.854168962076398142
0.267000000000000126,2.613360742411588777
0.268000000000000127,2.378919687462658139
0.269000000000000128,2.150676173781499223
0.270000000000000129,1.928459626560356854
0.271000000000000130,1.712099216844270355
0.272000000000000131,1.501424526468706944
0.273000000000000131,1.296266177723769619
0.274000000000000132,1.096456425315285088
0.275000000000000133,0.901829708725829016
0.276000000000000134,0.712223163574852158
0.277000000000000135,0.527477091035865042
0.278000000000000136,0.347435384788997437
0.279000000000000137,0.171945915370769142
0.280000000000000138,0.000860872129369650
0.281000000000000139,-0.165962936696125385
0.282000000000000139,-0.328663824978355779
0.283000000000000140,-0.487375009749936638
0.284000000000000141,-0.642224431050893552
0.285000000000000142,-0.793334609149107695
0.286000000000000143,-0.940822537556194716
0.287000000000000144,-1.084799610136576220
0.288000000000000145,-1.225371580508280323
0.289000000000000146,-1.362638551856862890
0.290000000000000147,-1.496694995229160829
0.291000000000000147,-1.627629794337221103
0.292000000000000148,-1.755526314885065720
0.293000000000000149,-1.880462496428298547
0.294000000000000150,-2.002510964789008252
0.295000000000000151,-2.121739163073137480
0.296000000000000152,-2.238209499373566835
0.297000000000000153,-2.351979509288100623
0.298000000000000154,-2.463102031435818517
0.299000000000000155,-2.571625394216869864
0.300000000000000155,-2.677593612128287504
0.301000000000000156,-2.781046590020859188
0.302000000000000157,-2.882020333758700925
0.303000000000000158,-2.980547165822284406
0.304000000000000159,-3.076655944477582061
0.305000000000000160,-3.170372285216640940
0.306000000000000161,-3.261718783258744203
0.307000000000000162,-3.350715235985000540
0.308000000000000163,-3.437378864262311762
0.309000000000000163,-3.521724531694996330
0.310000000000000164,-3.603764960923220961
0.311000000000000165,-3.683510946166219213
0.312000000000000166,-3.760971561285445741
0.313000000000000167,-3.836154362717122179
0.314000000000000168,-3.909065586695596117
0.315000000000000169,-3.979710340258046930
0.316000000000000170,-4.048092785587195763
0.317000000000000171,-4.114216317311662152
0.318000000000000171,-4.178083732443496956
0.319000000000000172,-4.239697392689273592
0.320000000000000173,-4.299059378924307673
0.321000000000000174,-4.356171637669893570
0.322000000000000175,-4.411036119460454152
0.323000000000000176,-4.463654909031153473
0.324000000000000177,-4.514030347297259382
0.325000000000000178,-4.562165145133899813
0.326000000000000179,-4.608062488999658868
0.327000000000000179,-4.651726138478801786
0.328000000000000180,-4.693160515845807623
0.329000000000000181,-4.732370787782070209
0.330000000000000182,-4.769362939397735701
0.331000000000000183,-4.804143840733019033
0.332000000000000184,-4.836721305931449777
0.333000000000000185,-4.867104145294051776
0.334000000000000186,-4.895302210437428414
0.335000000000000187,-4.921326432790804617
0.336000000000000187,-4.945188855677281836
0.337000000000000188,-4.966902660232705102
0.338000000000000189,-4.986482185422424607
0.339000000000000190,-5.003942942421128137
0.340000000000000191,-5.019301623624468078
0.341000000000000192,-5.032576106563610097
0.342000000000000193,-5.043785452994584695
0.343000000000000194,-5.052949903434393875
0.344000000000000195,-5.060090867414132276
0.345000000000000195,-5.065230909717798546
0.346000000000000196,-5.068393732871724566
0.347000000000000197,-5.069604156146120033
0.348000000000000198,-5.068888091325442602
0.349000000000000199,-5.066272515499047557
0.350000000000000200,-5.061785441117939044
0.351000000000000201,-5.055455883556980723
0.352000000000000202,-5.047313826415285476
0.353000000000000203,-5.037390184780536018
0.354000000000000203,-5.025716766675462743
0.355000000000000204,-5.012326232897093448
0.356000000000000205,-4.997252055451665953
0.357000000000000206,-4.980528474780084203
0.358000000000000207,-4.962190455960485913
0.359000000000000208,-4.942273644066653482
0.360000000000000209,-4.920814318852551494
0.361000000000000210,-4.897849348925117141
0.362000000000000210,-4.873416145559298585
0.363000000000000211,-4.847552616301099349
0.364000000000000212,-4.820297118496530864
0.365000000000000213,-4.791688412876153436
0.366000000000000214,-4.761765617317358590
0.367000000000000215,-4.730568160898631191
0.368000000000000216,-4.698135738352706703
0.369000000000000217,-4.664508265018014299
0.370000000000000218,-4.629725832380825246
0.371000000000000218,-4.593828664293368114
0.372000000000000219,-4.556857073946575909
0.373000000000000220,-4.518851421669525692
0.374000000000000221,-4.479852073621289676
0.375000000000000222,-4.439899361434766156
0.376000000000000223,-4.399033542866364499
0.377000000000000224,-4.357294763499541368
0.378000000000000225,-4.314723019544912219
0.379000000000000226,-4.271358121774400551
0.380000000000000226,-4.227239660622060136
0.381000000000000227,-4.182406972479197016
0.382000000000000228,-4.136899107207308468
0.383000000000000229,-4.090754796887715372
0.384000000000000230,-4.044012425822883117
0.385000000000000231,-3.996710001800663825
0.386000000000000232,-3.948885128628826013
0.387000000000000233,-3.900574979944094967
0.388000000000000234,-3.851816274296467668
0.389000000000000234,-3.802645251506795887
0.390000000000000235,-3.753097650292564147
0.391000000000000236,-3.703208687154416534
0.392000000000000237,-3.653013036513277800
0.393000000000000238,-3.602544812085906045
0.394000000000000239,-3.551837549484358814
0.395000000000000240,-3.500924190023146476
0.396000000000000241,-3.449837065715949169
0.397000000000000242,-3.398607885442087362
0.398000000000000242,-3.347267722261716649
0.399000000000000243,-3.295847001857043601
0.400000000000000244,-3.244375492075893597
0.401000000000000245,-3.192882293552878448
0.402000000000000246,-3.141395831382305825
0.403000000000000247,-3.089943847816271738
0.404000000000000248,-3.038553395960660541
0.405000000000000249,-2.987250834441074865
0.406000000000000250,-2.936061823010242211
0.407000000000000250,-2.885011319068069291
0.408000000000000251,-2.834123575065063960
0.409000000000000252,-2.783422136759755361
0.410000000000000253,-2.732929842300393375
0.411000000000000254,-2.682668822101278217
0.412000000000000255,-2.632660499483909788
0.413000000000000256,-2.582925592053305852
0.414000000000000257,-2.533484113779777225
0.415000000000000258,-2.484355377756831018
0.416000000000000258,-2.435557999605817425
0.417000000000000259,-2.387109901498427611
0.418000000000000260,-2.339028316768294591
0.419000000000000261,-2.291329795083353993
0.420000000000000262,-2.244030208151008843
0.421000000000000263,-2.197144755928530202
0.422000000000000264,-2.150687973311598888
0.423000000000000265,-2.104673737274286527
0.424000000000000266,-2.059115274434482057
0.425000000000000266,-2.014025169018979877
0.426000000000000267,-1.969415371203287579
0.427000000000000268,-1.925297205801580258
0.428000000000000269,-1.881681381282868770
0.429000000000000270,-1.838577999090102777
0.430000000000000271,-1.795996563239339538
0.431000000000000272,-1.753945990176979608
0.432000000000000273,-1.712434618873432957
0.433000000000000274,-1.671470221132426826
0.434000000000000274,-1.631060012095565614
0.435000000000000275,-1.591210660922604436
0.436000000000000276,-1.551928301628383577
0.437000000000000277,-1.513218544057995718
0.438000000000000278,-1.475086484982503610
0.439000000000000279,-1.437536719298038834
0.440000000000000280,-1.400573351311753756
0.441000000000000281,-1.364200006098748919
0.442000000000000282,-1.328419840914720762
0.443000000000000282,-1.293235556649559692
0.444000000000000283,-1.258649409307923239
0.445000000000000284,-1.224663221503219157
0.446000000000000285,-1.191278393952030390
0.447000000000000286,-1.158495916956810756
0.448000000000000287,-1.126316381864830296
0.449000000000000288,-1.094739992492346881
0.450000000000000289,-1.063766576503148764
0.451000000000000290,-1.033395596731391475
0.452000000000000290,-1.003626162439048342
0.453000000000000291,-0.974457040498809546
0.454000000000000292,-0.945886666493835349
0.455000000000000293,-0.917913155726108321
0.456000000000000294,-0.890534314125771331
0.457000000000000295,-0.863747649054160904
0.458000000000000296,-0.837550379993736938
0.459000000000000297,-0.811939449118576739
0.460000000000000298,-0.786911531739444836
0.461000000000000298,-0.762463046617951057
0.462000000000000299,-0.738590166144630356
0.463000000000000300,-0.715288826376159204
0.464000000000000301,-0.692554736927384118
0.465000000000000302,-0.670383390714105132
0.466000000000000303,-0.648770073542896175
0.467000000000000304,-0.627709873544668229
0.468000000000000305,-0.607197690448936567
0.469000000000000306,-0.587228244696039847
0.470000000000000306,-0.567796086384977139
0.471000000000000307,-0.548895604054620900
0.472000000000000308,-0.530521033296575961
0.473000000000000309,-0.512666465198000187
0.474000000000000310,-0.495325854613121563
0.475000000000000311,-0.478493028262310660
0.476000000000000312,-0.462161692657938716
0.477000000000000313,-0.446325441856271432
0.478000000000000314,-0.430977765035079063
0.479000000000000314,-0.416112053896732614
0.480000000000000315,-0.401721609896708631
0.481000000000000316,-0.387799651297758674
0.482000000000000317,-0.374339320049994262
0.483000000000000318,-0.361333688497471495
0.484000000000000319,-0.348775765911877589
0.485000000000000320,-0.336658504854198626
0.486000000000000321,-0.324974807365267293
0.487000000000000322,-0.313717530986330151
0.488000000000000322,-0.302879494610794275
0.489000000000000323,-0.292453484168578470
0.490000000000000324,-0.282432258144422188
0.491000000000000325,-0.272808552931776194
0.492000000000000326,-0.263575088023867532
0.493000000000000327,-0.254724571043737469
0.494000000000000328,-0.246249702615040089
0.495000000000000329,-0.238143181075514632
0.496000000000000330,-0.230397707035117749
0.497000000000000330,-0.223005987780865583
0.498000000000000331,-0.215960741530458133
0.499000000000000332,-0.209254701536911059
0.500000000000000333,-0.202880620046362342
0.501000000000000334,-0.196831272111312350
0.502000000000000335,-0.191099459261651144
0.503000000000000336,-0.185678013035762868
0.504000000000000337,-0.180559798374107350
0.505000000000000338,-0.175737716877679251
0.506000000000000338,-0.171204709933781618
0.507000000000000339,-0.166953761711542747
0.508000000000000340,-0.162977902029659200
0.509000000000000341,-0.159270209098868465
0.510000000000000342,-0.155823812141597795
0.511000000000000343,-0.152631893891336079
0.512000000000000344,-0.149687692974205921
0.513000000000000345,-0.146984506175253632
0.514000000000000346,-0.144515690591988710
0.515000000000000346,-0.142274665677631695
0.516000000000000347,-0.140254915176597272
0.517000000000000348,-0.138449988954730874
0.518000000000000349,-0.136853504726714148
0.519000000000000350,-0.135459149683165025
0.520000000000000351,-0.134260682019871985
0.521000000000000352,-0.133251932371591997
0.522000000000000353,-0.132426805152846910
0.523000000000000353,-0.131779279808106720
0.524000000000000354,-0.131303411973764772
0.525000000000000355,-0.130993334554245333
0.526000000000000356,-0.130843258714574195
0.527000000000000357,-0.130847474791770224
0.528000000000000358,-0.131000353127265518
0.529000000000000359,-0.131296344822707495
0.530000000000000360,-0.131729982421283948
0.531000000000000361,-0.132295880516850317
0.532000000000000361,-0.132988736292974280
0.533000000000000362,-0.133803329994094916
0.534000000000000363,-0.134734525330850646
0.535000000000000364,-0.135777269821716617
0.536000000000000365,-0.136926595072951074
0.537000000000000366,-0.138177616998906461
0.538000000000000367,-0.139525535984650895
0.539000000000000368,-0.140965636992901100
0.540000000000000369,-0.142493289617122598
0.541000000000000369,-0.144103948082742156
0.542000000000000370,-0.145793151198270132
0.543000000000000371,-0.147556522258176837
0.544000000000000372,-0.149389768899303610
0.545000000000000373,-0.151288682912540218
0.546000000000000374,-0.153249140011486984
0.547000000000000375,-0.155267099559776467
0.548000000000000376,-0.157338604258717929
0.549000000000000377,-0.159459779796835788
0.550000000000000377,-0.161626834462901769
0.551000000000000378,-0.163836058723999090
0.552000000000000379,-0.166083824770112576
0.553000000000000380,-0.168366586026732629
0.554000000000000381,-0.170680876636884943
0.555000000000000382,-0.173023310914036388
0.556000000000000383,-0.175390582767184583
0.557000000000000384,-0.177779465099540124
0.558000000000000385,-0.180186809182039914
0.559000000000000385,-0.182609544003028396
0.560000000000000386,-0.185044675595289754
0.561000000000000387,-0.187489286341690542
0.562000000000000388,-0.189940534260569699
0.563000000000000389,-0.192395652272064732
0.564000000000000390,-0.194851947446447155
0.565000000000000391,-0.197306800235594743
0.566000000000000392,-0.199757663688621856
0.567000000000000393,-0.202202062652732273
0.568000000000000393,-0.204637592960250331
0.569000000000000394,-0.207061920602842786
0.570000000000000395,-0.209472780893845079
0.571000000000000396,-0.211867977619604020
0.572000000000000397,-0.214245382180765193
0.573000000000000398,-0.216602932724295094
0.574000000000000399,-0.218938633267146632
0.575000000000000400,-0.221250552812313706
0.576000000000000401,-0.223536824458093308
0.577000000000000401,-0.225795644501310205
0.578000000000000402,-0.228025271535226004
0.579000000000000403,-0.230224025542822508
0.580000000000000404,-0.232390286986209504
0.581000000000000405,-0.234522495892736493
0.582000000000000406,-0.236619150938509604
0.583000000000000407,-0.238678808529902531
0.584000000000000408,-0.240700081883660294
0.585000000000000409,-0.242681640106168800
0.586000000000000409,-0.244622207272456038
0.587000000000000410,-0.246520561505439717
0.588000000000000411,-0.248375534055934155
0.589000000000000412,-0.250186008383940561
0.590000000000000413,-0.251950919241638704
0.591000000000000414,-0.253669251758587178
0.592000000000000415,-0.255340040529547285
0.593000000000000416,-0.256962368705337507
0.594000000000000417,-0.258535367087142032
0.595000000000000417,-0.260058213224660995
0.596000000000000418,-0.261530130518424275
0.597000000000000419,-0.262950387326693957
0.598000000000000420,-0.264318296077224790
0.599000000000000421,-0.265633212384240480
0.600000000000000422,-0.266894534170925291
0.601000000000000423,-0.268101700797706510
0.602000000000000424,-0.269254192196627717
0.603000000000000425,-0.270351528012067632
0.604000000000000425,-0.271393266748037210
0.605000000000000426,-0.272379004922308821
0.606000000000000427,-0.273308376227629601
0.607000000000000428,-0.274181050700126827
0.608000000000000429,-0.274996733895279566
0.609000000000000430,-0.275755166071431135
0.610000000000000431,-0.276456121381223219
0.611000000000000432,-0.277099407070970583
0.612000000000000433,-0.277684862688185319
0.613000000000000433,-0.278212359297428546
