# CNT15-NH2-14_DIFLUOROMETHANE
# h[nm],U(h)[kJ/mol]
0.149999999999999994,90.747086624926566856
0.150999999999999995,89.328007891110047467
0.151999999999999996,88.064128053278750485
0.152999999999999997,86.818579696718444438
0.153999999999999998,85.557682761109759895
0.154999999999999999,84.287140774579782487
0.156000000000000000,83.021794117757337972
0.157000000000000001,81.773442220521175727
0.158000000000000002,80.547683772143869874
0.159000000000000002,79.344700855009264728
0.160000000000000003,78.161308968267775299
0.161000000000000004,76.992991590748331987
0.162000000000000005,75.835415382874245438
0.163000000000000006,74.685325668276803412
0.164000000000000007,73.540907277965999356
0.165000000000000008,72.401760183441282948
0.166000000000000009,71.268641435950513596
0.167000000000000010,70.143099240047888543
0.168000000000000010,69.027090723149910900
0.169000000000000011,67.922641992037966929
0.170000000000000012,66.831581756648958503
0.171000000000000013,65.755359419136453880
0.172000000000000014,64.694944731032066443
0.173000000000000015,63.650797850933962252
0.174000000000000016,62.622894611658452391
0.175000000000000017,61.610790804166299495
0.176000000000000018,60.613710257910994983
0.177000000000000018,59.630643613742883247
0.178000000000000019,58.660447329991882270
0.179000000000000020,57.701935205939228979
0.180000000000000021,56.753957273304273201
0.181000000000000022,55.815463136859577276
0.182000000000000023,54.885548666982472810
0.183000000000000024,53.963486346314809339
0.184000000000000025,53.048740574439364082
0.185000000000000026,52.140969885492403080
0.186000000000000026,51.240018391379138052
0.187000000000000027,50.345898887695945234
0.188000000000000028,49.458770007803408930
0.189000000000000029,48.578909634085064795
0.190000000000000030,47.706686518189805213
0.191000000000000031,46.842531759987444673
0.192000000000000032,45.986911476364056739
0.193000000000000033,45.140301677091578370
0.194000000000000034,44.303166070912361363
0.195000000000000034,43.475937260585510558
0.196000000000000035,42.659001556648597386
0.197000000000000036,41.852687448458439690
0.198000000000000037,41.057257617614283163
0.199000000000000038,40.272904261284381278
0.200000000000000039,39.499747408208634170
0.201000000000000040,38.737835854470020536
0.202000000000000041,37.987150315402828937
0.203000000000000042,37.247608380053449650
0.204000000000000042,36.519070861380924953
0.205000000000000043,35.801349155109747358
0.206000000000000044,35.094213249416824851
0.207000000000000045,34.397400063455862096
0.208000000000000046,33.710621832531330710
0.209000000000000047,33.033574299393194451
0.210000000000000048,32.365944512897641516
0.211000000000000049,31.707418075809005842
0.212000000000000050,31.057685721772351428
0.213000000000000050,30.416449136733756831
0.214000000000000051,29.783425971836816615
0.215000000000000052,29.158354022807873918
0.216000000000000053,28.540994574953639784
0.217000000000000054,27.931134933167271583
0.218000000000000055,27.328590172911709999
0.219000000000000056,26.733204161240859520
0.220000000000000057,26.144849906798334871
0.221000000000000058,25.563429304714510693
0.222000000000000058,24.988872346722814655
0.223000000000000059,24.421135868976016070
0.224000000000000060,23.860201910282988536
0.225000000000000061,23.306075752124918665
0.226000000000000062,22.758783709140452345
0.227000000000000063,22.218370735066272914
0.228000000000000064,21.684897904632322252
0.229000000000000065,21.158439826858511879
0.230000000000000066,20.639082039781897038
0.231000000000000066,20.126918431025139000
0.232000000000000067,19.622048722946040300
0.233000000000000068,19.124576055501702143
0.234000000000000069,18.634604694520263024
0.235000000000000070,18.152237887874061784
0.236000000000000071,17.677575887153473388
0.237000000000000072,17.210714147891486903
0.238000000000000073,16.751741717218308736
0.239000000000000073,16.300739814050025700
0.240000000000000074,15.857780603541081987
0.241000000000000075,15.422926164560024631
0.242000000000000076,14.996227646369991504
0.243000000000000077,14.577724608497367953
0.244000000000000078,14.167444535935800332
0.245000000000000079,13.765402520335957348
0.246000000000000080,13.371601096650868712
0.247000000000000081,12.986030223815722806
0.248000000000000081,12.608667397414146549
0.249000000000000082,12.239477881893735756
0.250000000000000111,11.878415049714430296
0.251000000000000112,11.525420814819863580
0.252000000000000113,11.180426147988244523
0.253000000000000114,10.843351661923854579
0.254000000000000115,10.514108254368048634
0.255000000000000115,10.192597798022479338
0.256000000000000116,9.878713866665448151
0.257000000000000117,9.572342487489063245
0.258000000000000118,9.273362910374691737
0.259000000000000119,8.981648385541932456
0.260000000000000120,8.697066941740510870
0.261000000000000121,8.419482157894403684
0.262000000000000122,8.148753921842599723
0.263000000000000123,7.884739170544330378
0.264000000000000123,7.627292606820598841
0.265000000000000124,7.376267388383219270
0.266000000000000125,7.131515785552696052
0.267000000000000126,6.892889804683321131
0.268000000000000127,6.660241774894953615
0.269000000000000128,6.433424896254974712
0.270000000000000129,6.212293748058312914
0.271000000000000130,5.996704756318419705
0.272000000000000131,5.786516620007501110
0.273000000000000131,5.581590695970010785
0.274000000000000132,5.381791342780535281
0.275000000000000133,5.186986224126606260
0.276000000000000134,4.997046572569898260
0.277000000000000135,4.811847414777733256
0.278000000000000136,4.631267759521445981
0.279000000000000137,4.455190749912093295
0.280000000000000138,4.283503781488239959
0.281000000000000139,4.116098587887149662
0.282000000000000139,3.952871295922263162
0.283000000000000140,3.793722451957413089
0.284000000000000141,3.638557021514829959
0.285000000000000142,3.487284364080521559
0.286000000000000143,3.339818185079820978
0.287000000000000144,3.196076466989233200
0.288000000000000145,3.055981381529533358
0.289000000000000146,2.919459184852331468
0.290000000000000147,2.786440097587584042
0.291000000000000147,2.656858171566655713
0.292000000000000148,2.530651144973586675
0.293000000000000149,2.407760287609602035
0.294000000000000150,2.288130237882106677
0.295000000000000151,2.171708833051702925
0.296000000000000152,2.058446934189627431
0.297000000000000153,1.948298247214556467
0.298000000000000154,1.841219141292656847
0.299000000000000155,1.737168465799093564
0.300000000000000155,1.636107366953339026
0.301000000000000156,1.537999105155435142
0.302000000000000157,1.442808873966038741
0.303000000000000158,1.350503621590632530
0.304000000000000159,1.261051875647388076
0.305000000000000160,1.174423571920029108
0.306000000000000161,1.090589887721072460
0.307000000000000162,1.009523080417962015
0.308000000000000163,0.931196331604774108
0.309000000000000163,0.855583597335377144
0.310000000000000164,0.782659464770538826
0.311000000000000165,0.712399015531564705
0.312000000000000166,0.644777695996301303
0.313000000000000167,0.579771194720371863
0.314000000000000168,0.517355327116759023
0.315000000000000169,0.457505927480641339
0.316000000000000170,0.400198748403442106
0.317000000000000171,0.345409367580602478
0.318000000000000171,0.293113101981228474
0.319000000000000172,0.243284929314485782
0.320000000000000173,0.195899416697651041
0.321000000000000174,0.150930656403432478
0.322000000000000175,0.108352208539774938
0.323000000000000176,0.068137050493737444
0.324000000000000177,0.030257532951873521
0.325000000000000178,-0.005314657707023973
0.326000000000000179,-0.038608530865542723
0.327000000000000179,-0.069653817198258292
0.328000000000000180,-0.098480988520206009
0.329000000000000181,-0.125121272202437850
0.330000000000000182,-0.149606660409919490
0.331000000000000183,-0.171969914422222869
0.332000000000000184,-0.192244564300226323
0.333000000000000185,-0.210464904164082478
0.334000000000000186,-0.226665983348015493
0.335000000000000187,-0.240883593696774673
0.336000000000000187,-0.253154253266777818
0.337000000000000188,-0.263515186691923087
0.338000000000000189,-0.272004302470577941
0.339000000000000190,-0.278660167425493044
0.340000000000000191,-0.283521978583115342
0.341000000000000192,-0.286629532713040980
0.342000000000000193,-0.288023193761679841
0.343000000000000194,-0.287743858407504660
0.344000000000000195,-0.285832919957607678
0.345000000000000195,-0.282332230798022166
0.346000000000000196,-0.277284063601908104
0.347000000000000197,-0.270731071491758180
0.348000000000000198,-0.262716247343416809
0.349000000000000199,-0.253282882411088650
0.350000000000000200,-0.242474524444189626
0.351000000000000201,-0.230334935458093082
0.352000000000000202,-0.216908049312393547
0.353000000000000203,-0.202237929241747771
0.354000000000000203,-0.186368725475864333
0.355000000000000204,-0.169344633076795426
0.356000000000000205,-0.151209850113567301
0.357000000000000206,-0.132008536286024186
0.358000000000000207,-0.111784772101699972
0.359000000000000208,-0.090582518702038678
0.360000000000000209,-0.068445578426514331
0.361000000000000210,-0.045417556195950892
0.362000000000000210,-0.021541821789219352
0.363000000000000211,0.003138526919420270
0.364000000000000212,0.028580699701656463
0.365000000000000213,0.054742248640960181
0.366000000000000214,0.081581101674794154
0.367000000000000215,0.109055594971040254
0.368000000000000216,0.137124504102074024
0.369000000000000217,0.165747073985382798
0.370000000000000218,0.194883047564645612
0.371000000000000218,0.224492693210241623
0.372000000000000219,0.254536830822590709
0.373000000000000220,0.284976856626262320
0.374000000000000221,0.315774766646826743
0.375000000000000222,0.346893178866439555
0.376000000000000223,0.378295354057642697
0.377000000000000224,0.409945215298439636
0.378000000000000225,0.441807366174857219
0.379000000000000226,0.473847107680193780
0.380000000000000226,0.506030453822866599
0.381000000000000227,0.538324145957510547
0.382000000000000228,0.570695665856135070
0.383000000000000229,0.603113247538451080
0.384000000000000230,0.635545887882513649
0.385000000000000231,0.667963356038439149
0.386000000000000232,0.700336201669844116
0.387000000000000233,0.732635762048920780
0.388000000000000234,0.764834168032562212
0.389000000000000234,0.796904348947919838
0.390000000000000235,0.828820036417022621
0.391000000000000236,0.860555767150759765
0.392000000000000237,0.892086884743496400
0.393000000000000238,0.923389540500025641
0.394000000000000239,0.954440693327277878
0.395000000000000240,0.985218108723453723
0.396000000000000241,1.015700356897647039
0.397000000000000242,1.045866810053259321
0.398000000000000242,1.075697638868495121
0.399000000000000243,1.105173808207421171
0.400000000000000244,1.134277072094970418
0.401000000000000245,1.162989967989021878
0.402000000000000246,1.191295810382758891
0.403000000000000247,1.219178683770020255
0.404000000000000248,1.246623435006158243
0.405000000000000249,1.273615665096521354
0.406000000000000250,1.300141720444304871
0.407000000000000250,1.326188683588951367
0.408000000000000251,1.351744363465912979
0.409000000000000252,1.376797285217912892
0.410000000000000253,1.401336679587372291
0.411000000000000254,1.425352471918989838
0.412000000000000255,1.448835270800886033
0.413000000000000256,1.471776356371988559
0.414000000000000257,1.494167668322788467
0.415000000000000258,1.516001793615713966
0.416000000000000258,1.537271953950869907
0.417000000000000259,1.557971993001977307
0.418000000000000260,1.578096363446748196
0.419000000000000261,1.597640113815122831
0.420000000000000262,1.616598875178069772
0.421000000000000263,1.634968847698892391
0.422000000000000264,1.652746787068237966
0.423000000000000265,1.669929990843295853
0.424000000000000266,1.686516284710778635
0.425000000000000266,1.702504008692762083
0.426000000000000267,1.717892003313484128
0.427000000000000268,1.732679595744630374
0.428000000000000269,1.746866585945849426
0.429000000000000270,1.760453232816453495
0.430000000000000271,1.773440240373711729
0.431000000000000272,1.785828743972249555
0.432000000000000273,1.797620296578534838
0.433000000000000274,1.808816855113639210
0.434000000000000274,1.819420766876893136
0.435000000000000275,1.829434756062301215
0.436000000000000276,1.838861910379025577
0.437000000000000277,1.847705667786580408
0.438000000000000278,1.855969803354768910
0.439000000000000279,1.863658416257802486
0.440000000000000280,1.870775916911456394
0.441000000000000281,1.877327014261585658
0.442000000000000282,1.883316703231654454
0.443000000000000282,1.888750252336605318
0.444000000000000283,1.893633191469617838
0.445000000000000284,1.897971299868012718
0.446000000000000285,1.901770594264004854
0.447000000000000286,1.905037317225407589
0.448000000000000287,1.907777925691183096
0.449000000000000288,1.909999079706026226
0.450000000000000289,1.911707631357953741
0.451000000000000290,1.912910613922323311
0.452000000000000290,1.913615231215357593
0.453000000000000291,1.913828847159906532
0.454000000000000292,1.913558975565713638
0.455000000000000293,1.912813270126218823
0.456000000000000294,1.911599514633491426
0.457000000000000295,1.909925613412625012
0.458000000000000296,1.907799581976592496
0.459000000000000297,1.905229537902274561
0.460000000000000298,1.902223691928065064
0.461000000000000298,1.898790339273233485
0.462000000000000299,1.894937851178908783
0.463000000000000300,1.890674666670383974
0.464000000000000301,1.886009284540103748
0.465000000000000302,1.880950255550577932
0.466000000000000303,1.875506174856201413
0.467000000000000304,1.869685674642768802
0.468000000000000305,1.863497416983282751
0.469000000000000306,1.856950086908524700
0.470000000000000306,1.850052385690598600
0.471000000000000307,1.842813024337614625
0.472000000000000308,1.835240717297448088
0.473000000000000309,1.827344176368398410
0.474000000000000310,1.819132104814489725
0.475000000000000311,1.810613191682946876
0.476000000000000312,1.801796106321367663
0.477000000000000313,1.792689493091935926
0.478000000000000314,1.783301966279994488
0.479000000000000314,1.773642105194111807
0.480000000000000315,1.763718449454845238
0.481000000000000316,1.753539494469164906
0.482000000000000317,1.743113687087591401
0.483000000000000318,1.732449421440923842
0.484000000000000319,1.721555034953463847
0.485000000000000320,1.710438804529547552
0.486000000000000321,1.699108942910193321
0.487000000000000322,1.687573595196591558
0.488000000000000322,1.675840835537217632
0.489000000000000323,1.663918663975207934
0.490000000000000324,1.651815003452738129
0.491000000000000325,1.639537696969044500
0.492000000000000326,1.627094504888770388
0.493000000000000327,1.614493102397286162
0.494000000000000328,1.601741077099620769
0.495000000000000329,1.588845926759711036
0.496000000000000330,1.575815057176577882
0.497000000000000330,1.562655780194129651
0.498000000000000331,1.549375311841288516
0.499000000000000332,1.535980770599118639
0.500000000000000333,1.522479175791672690
0.501000000000000334,1.508877446097337316
0.502000000000000335,1.495182398177377525
0.503000000000000336,1.481400745418534060
0.504000000000000337,1.467539096786442787
0.505000000000000338,1.453603955786752389
0.506000000000000338,1.439601719530801516
0.507000000000000339,1.425538677902786322
0.508000000000000340,1.411421012825357035
0.509000000000000341,1.397254797620622657
0.510000000000000342,1.383045996463611926
0.511000000000000343,1.368800463925223143
0.512000000000000344,1.354523944601796037
0.513000000000000345,1.340222072828447297
0.514000000000000346,1.325900372473322930
0.515000000000000346,1.311564256810071161
0.516000000000000347,1.297219028465753654
0.517000000000000348,1.282869879441535410
0.518000000000000349,1.268521891203540974
0.519000000000000350,1.254180034841277047
0.520000000000000351,1.239849171291077301
0.521000000000000352,1.225534051622097831
0.522000000000000353,1.211239317382412750
0.523000000000000353,1.196969501002806968
0.524000000000000354,1.182729026255940452
0.525000000000000355,1.168522208768548731
0.526000000000000356,1.154353256584489174
0.527000000000000357,1.140226270776355522
0.528000000000000358,1.126145246103571473
0.529000000000000359,1.112114071714817021
0.530000000000000360,1.098136531892750956
0.531000000000000361,1.084216306839004051
0.532000000000000361,1.070356973497489372
0.533000000000000362,1.056562006414097921
0.534000000000000363,1.042834778630943315
0.535000000000000364,1.029178562613283665
0.536000000000000365,1.015596531207384468
0.537000000000000366,1.002091758627572160
0.538000000000000367,0.988667221470799662
0.539000000000000368,0.975325799757064238
0.540000000000000369,0.962070277994110157
0.541000000000000369,0.948903346264827641
0.542000000000000370,0.935827601335874837
0.543000000000000371,0.922845547786025122
0.544000000000000372,0.909959599152819876
0.545000000000000373,0.897172079096160480
0.546000000000000374,0.884485222577472086
0.547000000000000375,0.871901177053154619
0.548000000000000376,0.859422003681043378
0.549000000000000377,0.847049678538672524
0.550000000000000377,0.834786093852133648
0.551000000000000378,0.822633059234404440
0.552000000000000379,0.810592302932024777
0.553000000000000380,0.798665473079037902
0.554000000000000381,0.786854138957188143
0.555000000000000382,0.775159792261330916
0.556000000000000383,0.763583848369128404
0.557000000000000384,0.752127647614060590
0.558000000000000385,0.740792456560882551
0.559000000000000385,0.729579469282627402
0.560000000000000386,0.718489808638348659
0.561000000000000387,0.707524527550773330
0.562000000000000388,0.696684610283110906
0.563000000000000389,0.685970973714240984
0.564000000000000390,0.675384468611614275
0.565000000000000391,0.664925880901121591
0.566000000000000392,0.654595932933327851
0.567000000000000393,0.644395284745387431
0.568000000000000393,0.634324535318082638
0.569000000000000394,0.624384223827361806
0.570000000000000395,0.614574830889868418
0.571000000000000396,0.604896779801895712
0.572000000000000397,0.595350437771266838
0.573000000000000398,0.585936117141692692
0.574000000000000399,0.576654076609099286
0.575000000000000400,0.567504522429527869
0.576000000000000401,0.558487609618182335
0.577000000000000401,0.549603443139209502
0.578000000000000402,0.540852079085871518
0.579000000000000403,0.532233525850755784
0.580000000000000404,0.523747745285644606
0.581000000000000405,0.515394653850803519
0.582000000000000406,0.507174123753321826
0.583000000000000407,0.499085984074276401
0.584000000000000408,0.491130021884434775
0.585000000000000409,0.483305983348269130
0.586000000000000409,0.475613574816029394
0.587000000000000410,0.468052463903690597
0.588000000000000411,0.460622280560575692
0.589000000000000412,0.453322618124438192
0.590000000000000413,0.446153034363893752
0.591000000000000414,0.439113052508004198
0.592000000000000415,0.432202162262884548
0.593000000000000416,0.425419820815224448
0.594000000000000417,0.418765453822587230
0.595000000000000417,0.412238456390393193
0.596000000000000418,0.405838194035511357
0.597000000000000419,0.399564003636353859
0.598000000000000420,0.393415194369429622
0.599000000000000421,0.387391048632294566
0.600000000000000422,0.381490822952831932
0.601000000000000423,0.375713748884869747
0.602000000000000424,0.370059033890059896
0.603000000000000425,0.364525862206018514
0.604000000000000425,0.359113395700743632
0.605000000000000426,0.353820774713274000
0.606000000000000427,0.348647118880589635
0.607000000000000428,0.343591527950842468
0.608000000000000429,0.338653082582804799
0.609000000000000430,0.333830845131737330
0.610000000000000431,0.329123860421536629
0.611000000000000432,0.324531156503342522
0.612000000000000433,0.320051745400592003
0.613000000000000433,0.315684623840558731
0.614000000000000434,0.311428773972490414
0.615000000000000435,0.307283164072379766
0.616000000000000436,0.303246749234438284
0.617000000000000437,0.299318472049347695
0.618000000000000438,0.295497263269396959
0.619000000000000439,0.291782042460562607
0.620000000000000440,0.288171718641627939
