# CNT15-COO--3_BGALNA-AC
# h[nm],U(h)[kJ/mol]
0.149999999999999994,212.535178535723701998
0.150999999999999995,209.394160068874953140
0.151999999999999996,206.482697571825752902
0.152999999999999997,203.735031862716425621
0.153999999999999998,201.087870811855680131
0.154999999999999999,198.495046941089896109
0.156000000000000000,195.929314570601377454
0.157000000000000001,193.378764846151028678
0.158000000000000002,190.841786254050362004
0.159000000000000002,188.322427424514216909
0.160000000000000003,185.826865940549652123
0.161000000000000004,183.361088620013703121
0.162000000000000005,180.929614708006795354
0.163000000000000006,178.534999882112572323
0.164000000000000007,176.177858592382449388
0.165000000000000008,173.857183727123100425
0.166000000000000009,171.570797214014390875
0.167000000000000010,169.315818069422419967
0.168000000000000010,167.089078927367069127
0.169000000000000011,164.887456173423146311
0.170000000000000012,162.708102865514263158
0.171000000000000013,160.548589140049273283
0.172000000000000014,158.406963629179188047
0.173000000000000015,156.281753354264736799
0.174000000000000016,154.171920172329521392
0.175000000000000017,152.076790389144434812
0.176000000000000018,149.995971561101498537
0.177000000000000018,147.929267463033511376
0.178000000000000019,145.876599151738872706
0.179000000000000020,143.837937281926798505
0.180000000000000021,141.813248480129942664
0.181000000000000022,139.802456709192313156
0.182000000000000023,137.805419157039125366
0.183000000000000024,135.821915217263523346
0.184000000000000025,133.851646534419984391
0.185000000000000026,131.894245794855095255
0.186000000000000026,129.949291885786777812
0.187000000000000027,128.016329157854812593
0.188000000000000028,126.094888754252721697
0.189000000000000029,124.184510266780378629
0.190000000000000030,122.284762309005259340
0.191000000000000031,120.395260931170128060
0.192000000000000032,118.515685120278448039
0.193000000000000033,116.645788918239802001
0.194000000000000034,114.785409942818432683
0.195000000000000034,112.934474306394051268
0.196000000000000035,111.092998095485498311
0.197000000000000036,109.261085701215804988
0.198000000000000037,107.438925380637144258
0.199000000000000038,105.626782485298349457
0.200000000000000039,103.824990821370377603
0.201000000000000040,102.033942609917815503
0.202000000000000041,100.254077501284001528
0.203000000000000042,98.485871068504209802
0.204000000000000042,96.729823165196904711
0.205000000000000043,94.986446487060220534
0.206000000000000044,93.256255625926826269
0.207000000000000045,91.539756853823305960
0.208000000000000046,89.837438823647786990
0.209000000000000047,88.149764324488145917
0.210000000000000048,86.477163184408979646
0.211000000000000049,84.820026372546408311
0.212000000000000050,83.178701316057811255
0.213000000000000050,81.553488416141433959
0.214000000000000051,79.944638720999847692
0.215000000000000052,78.352352692165396775
0.216000000000000053,76.776779983789580797
0.217000000000000054,75.218020141997712358
0.218000000000000055,73.676124122835261687
0.219000000000000056,72.151096522261582322
0.220000000000000057,70.642898409632820744
0.221000000000000058,69.151450656735150346
0.222000000000000058,67.676637657229861134
0.223000000000000059,66.218311335972188658
0.224000000000000060,64.776295353667762811
0.225000000000000061,63.350389419398922541
0.226000000000000062,61.940373631373745411
0.227000000000000063,60.546012774547286028
0.228000000000000064,59.167060512301169695
0.229000000000000065,57.803263417936342705
0.230000000000000066,56.454364800168129079
0.231000000000000066,55.120108284968566181
0.232000000000000067,53.800241123870947035
0.233000000000000068,52.494517206145836496
0.234000000000000069,51.202699759019061787
0.235000000000000070,49.924563726282272569
0.236000000000000071,48.659897821227858117
0.237000000000000072,47.408506254803860713
0.238000000000000073,46.170210144243029049
0.239000000000000073,44.944848611181463127
0.240000000000000074,43.732279581465355989
0.241000000000000075,42.532380301486504948
0.242000000000000076,41.345047588011468065
0.243000000000000077,40.170197830118084426
0.244000000000000078,39.007766763064161353
0.245000000000000079,37.857709034724834396
0.246000000000000080,36.719997585691217523
0.247000000000000081,35.594622864258226969
0.248000000000000081,34.481591897388845780
0.249000000000000082,33.380927238358928832
0.250000000000000111,32.292665811197593939
0.251000000000000112,31.216857671278109621
0.252000000000000113,30.153564700511118701
0.253000000000000114,29.102859254580835113
0.254000000000000115,28.064822778563147665
0.255000000000000115,27.039544406105100904
0.256000000000000116,26.027119556142803702
0.257000000000000117,25.027648539911520942
0.258000000000000118,24.041235189774859293
0.259000000000000119,23.067985520181160553
0.260000000000000120,22.108006429858992448
0.261000000000000121,21.161404453201456022
0.262000000000000122,20.228284567666086957
0.263000000000000123,19.308749062945082642
0.264000000000000123,18.402896476640460577
0.265000000000000124,17.510820600218981014
0.266000000000000125,16.632609558121909998
0.267000000000000126,15.768344962069871684
0.268000000000000127,14.918101141830319989
0.269000000000000128,14.081944453010539320
0.270000000000000129,13.259932661795755138
0.271000000000000130,12.452114405972583455
0.272000000000000131,11.658528731061156947
0.273000000000000131,10.879204699920313359
0.274000000000000132,10.114161073789436074
0.275000000000000133,9.363406062383401007
0.276000000000000134,8.626937140361359724
0.277000000000000135,7.904740927244655602
0.278000000000000136,7.196793127655747746
0.279000000000000137,6.503058528591951770
0.280000000000000138,5.823491050327855412
0.281000000000000139,5.158033847454801091
0.282000000000000139,4.506619456515645439
0.283000000000000140,3.869169986670285333
0.284000000000000141,3.245597349833398759
0.285000000000000142,2.635803526754448622
0.286000000000000143,2.039680865560742351
0.287000000000000144,1.457112409353959359
0.288000000000000145,0.887972249535094682
0.289000000000000146,0.332125901634172049
0.290000000000000147,-0.210569299469375082
0.291000000000000147,-0.740263787926345840
0.292000000000000148,-1.257115341760440153
0.293000000000000149,-1.761288646899192400
0.294000000000000150,-2.252954852979305311
0.295000000000000151,-2.732291123367324381
0.296000000000000152,-3.199480181691169989
0.297000000000000153,-3.654709857030224107
0.298000000000000154,-4.098172629765537422
0.299000000000000155,-4.530065179945127696
0.300000000000000155,-4.950587939875935817
0.301000000000000156,-5.359944652511801522
0.302000000000000157,-5.758341937069866745
0.303000000000000158,-6.145988863172208383
0.304000000000000159,-6.523096534680152381
0.305000000000000160,-6.889877684262799562
0.306000000000000161,-7.246546279620801556
0.307000000000000162,-7.593317142170979750
0.308000000000000163,-7.930405578887027573
0.309000000000000163,-8.258027027887024474
0.310000000000000164,-8.576396718259452712
0.311000000000000165,-8.885729344525586271
0.312000000000000166,-9.186238756048549448
0.313000000000000167,-9.478137661616674592
0.314000000000000168,-9.761637349352044524
0.315000000000000169,-10.036947422023546395
0.316000000000000170,-10.304275547777896449
0.317000000000000171,-10.563827226240485757
0.318000000000000171,-10.815805569882398274
0.319000000000000172,-11.060411100498745540
0.320000000000000173,-11.297841560596653565
0.321000000000000174,-11.528291739449505471
0.322000000000000175,-11.751953313536372292
0.323000000000000176,-11.969014701051754912
0.324000000000000177,-12.179660930141418262
0.325000000000000178,-12.384073520493547704
0.326000000000000179,-12.582430377892880102
0.327000000000000179,-12.774905701325289797
0.328000000000000180,-12.961669902205006366
0.329000000000000181,-13.142889535283268643
0.330000000000000182,-13.318727240786557786
0.331000000000000183,-13.489341697325253122
0.332000000000000184,-13.654887585107394088
0.333000000000000185,-13.815515558989371669
0.334000000000000186,-13.971372230893809530
0.335000000000000187,-14.122600161125532736
0.336000000000000187,-14.269337858118863238
0.337000000000000188,-14.411719786152627165
0.338000000000000189,-14.549876380575426538
0.339000000000000190,-14.683934070089259549
0.340000000000000191,-14.814015305647449949
0.341000000000000192,-14.940238595531473820
0.342000000000000193,-15.062718546180553503
0.343000000000000194,-15.181565908358328088
0.344000000000000195,-15.296887628251166547
0.345000000000000195,-15.408786903105319510
0.346000000000000196,-15.517363241020637687
0.347000000000000197,-15.622712524532195388
0.348000000000000198,-15.724927077622947280
0.349000000000000199,-15.824095735823965114
0.350000000000000200,-15.920303919071731258
0.351000000000000201,-16.013633707005208606
0.352000000000000202,-16.104163916398622547
0.353000000000000203,-16.191970180439348326
0.354000000000000203,-16.277125029573518589
0.355000000000000204,-16.359697973654839132
0.356000000000000205,-16.439755585145604755
0.357000000000000206,-16.517361583131680902
0.358000000000000207,-16.592576917925434543
0.359000000000000208,-16.665459856043906228
0.360000000000000209,-16.736066065361132615
0.361000000000000210,-16.804448700245590231
0.362000000000000210,-16.870658486505828222
0.363000000000000211,-16.934743805978108355
0.364000000000000212,-16.996750780601576736
0.365000000000000213,-17.056723355836702183
0.366000000000000214,-17.114703383293626615
0.367000000000000215,-17.170730702446583393
0.368000000000000216,-17.224843221320902842
0.369000000000000217,-17.277076996047803448
0.370000000000000218,-17.327466309191898119
0.371000000000000218,-17.376043746764167963
0.372000000000000219,-17.422840273842332692
0.373000000000000220,-17.467885308727851168
0.374000000000000221,-17.511206795576701012
0.375000000000000222,-17.552831275447921655
0.376000000000000223,-17.592783955721657208
0.377000000000000224,-17.631088777843935134
0.378000000000000225,-17.667768483362472409
0.379000000000000226,-17.702844678223186747
0.380000000000000226,-17.736337895303183387
0.381000000000000227,-17.768267655160581597
0.382000000000000228,-17.798652524987318202
0.383000000000000229,-17.827510175755019617
0.384000000000000230,-17.854857437548893984
0.385000000000000231,-17.880710353088630882
0.386000000000000232,-17.905084229438852361
0.387000000000000233,-17.927993687915790844
0.388000000000000234,-17.949452712199548188
0.389000000000000234,-17.969474694665024117
0.390000000000000235,-17.988072480947064236
0.391000000000000236,-18.005258412758045949
0.392000000000000237,-18.021044368978785144
0.393000000000000238,-18.035441805045714148
0.394000000000000239,-18.048461790659143134
0.395000000000000240,-18.060115045839694403
0.396000000000000241,-18.070411975361210466
0.397000000000000242,-18.079362701590188323
0.398000000000000242,-18.086977095763089096
0.399000000000000243,-18.093264807733952182
0.400000000000000244,-18.098235294225876402
0.401000000000000245,-18.101897845620836591
0.402000000000000246,-18.104261611322865377
0.403000000000000247,-18.105335623730589134
0.404000000000000248,-18.105128820855352245
0.405000000000000249,-18.103650067621781972
0.406000000000000250,-18.100908175887674645
0.407000000000000250,-18.096911923220687868
0.408000000000000251,-18.091670070469128007
0.409000000000000252,-18.085191378164285680
0.410000000000000253,-18.077484621791722219
0.411000000000000254,-18.068558605968824793
0.412000000000000255,-18.058422177565606859
0.413000000000000256,-18.047084237805858464
0.414000000000000257,-18.034553753384876984
0.415000000000000258,-18.020839766640321500
0.416000000000000258,-18.005951404811636252
0.417000000000000259,-17.989897888423751482
0.418000000000000260,-17.972688538829537208
0.419000000000000261,-17.954332784945741253
0.420000000000000262,-17.934840169215679140
0.421000000000000263,-17.914220352832497696
0.422000000000000264,-17.892483120254844664
0.423000000000000265,-17.869638383047366403
0.424000000000000266,-17.845696183077247809
0.425000000000000266,-17.820666695096996079
0.426000000000000267,-17.794560228743794283
0.427000000000000268,-17.767387229984301200
0.428000000000000269,-17.739158282033468339
0.429000000000000270,-17.709884105775049790
0.430000000000000271,-17.679575559710755783
0.431000000000000272,-17.648243639464471499
0.432000000000000273,-17.615899476866751172
0.433000000000000274,-17.582554338644676761
0.434000000000000274,-17.548219624740859501
0.435000000000000275,-17.512906866284975393
0.436000000000000276,-17.476627723240401480
0.437000000000000277,-17.439393981747699058
0.438000000000000278,-17.401217551186086041
0.439000000000000279,-17.362110460973262605
0.440000000000000280,-17.322084857123229540
0.441000000000000281,-17.281152998581028157
0.442000000000000282,-17.239327253352797698
0.443000000000000282,-17.196620094448537230
0.444000000000000283,-17.153044095654632173
0.445000000000000284,-17.108611927152260535
0.446000000000000285,-17.063336350997381885
0.447000000000000286,-17.017230216477230442
0.448000000000000287,-16.970306455357530240
0.449000000000000288,-16.922578077034373223
0.450000000000000289,-16.874058163603613991
0.451000000000000290,-16.824759864860467928
0.452000000000000290,-16.774696393241313785
0.453000000000000291,-16.723881018718881108
0.454000000000000292,-16.672327063661935398
0.455000000000000293,-16.620047897669572023
0.456000000000000294,-16.567056932390023860
0.457000000000000295,-16.513367616333344046
0.458000000000000296,-16.458993429686550769
0.459000000000000297,-16.403947879139927579
0.460000000000000298,-16.348244492731925703
0.461000000000000298,-16.291896814720548292
0.462000000000000299,-16.234918400487885037
0.463000000000000300,-16.177322811484462051
0.464000000000000301,-16.119123610219755705
0.465000000000000302,-16.060334355304394904
0.466000000000000303,-16.000968596549618894
0.467000000000000304,-15.941039870129060319
0.468000000000000305,-15.880561693807393908
0.469000000000000306,-15.819547562240297012
0.470000000000000306,-15.758010942349880423
0.471000000000000307,-15.695965268778934387
0.472000000000000308,-15.633423939427796512
0.473000000000000309,-15.570400311076729949
0.474000000000000310,-15.506907695096668220
0.475000000000000311,-15.442959353250941490
0.476000000000000312,-15.378568493590341504
0.477000000000000313,-15.313748266443463208
0.478000000000000314,-15.248511760504200652
0.479000000000000314,-15.182871999018155762
0.480000000000000315,-15.116841936069032926
0.481000000000000316,-15.050434452966561238
0.482000000000000317,-14.983662354736640765
0.483000000000000318,-14.916538366714672037
0.484000000000000319,-14.849075131242688741
0.485000000000000320,-14.781285204470634653
0.486000000000000321,-14.713181053262255560
0.487000000000000322,-14.644775052205611487
0.488000000000000322,-14.576079480728139970
0.489000000000000323,-14.507106520316455089
0.490000000000000324,-14.437868251840214384
0.491000000000000325,-14.368376652979980790
0.492000000000000326,-14.298643595758273150
0.493000000000000327,-14.228680844173563713
0.494000000000000328,-14.158500051936167452
0.495000000000000329,-14.088112760305429916
0.496000000000000330,-14.017530396027144235
0.497000000000000330,-13.946764269370493849
0.498000000000000331,-13.875825572263000396
0.499000000000000332,-13.804725376522913649
0.500000000000000333,-13.733474632187405717
0.501000000000000334,-13.662084165935402424
0.502000000000000335,-13.590564679603920339
0.503000000000000336,-13.518926748796342707
0.504000000000000337,-13.447180821581275367
0.505000000000000338,-13.375337217280526048
0.506000000000000338,-13.303406125344755750
0.507000000000000339,-13.231397604315144889
0.508000000000000340,-13.159321580869525192
0.509000000000000341,-13.087187848951646885
0.510000000000000342,-13.015006068981449516
0.511000000000000343,-12.942785767145210230
0.512000000000000344,-12.870536334763508890
0.513000000000000345,-12.798267027735548140
0.514000000000000346,-12.725986966058155048
0.515000000000000346,-12.653705133417568973
0.516000000000000347,-12.581430376852432929
0.517000000000000348,-12.509171406486398581
0.518000000000000349,-12.436936795328257688
0.519000000000000350,-12.364734979138342297
0.520000000000000351,-12.292574256359012352
0.521000000000000352,-12.220462788107969487
0.522000000000000353,-12.148408598232277811
0.523000000000000353,-12.076419573421606657
0.524000000000000354,-12.004503463379078809
0.525000000000000355,-11.932667881047748892
0.526000000000000356,-11.860920302891283740
0.527000000000000357,-11.789268069227176738
0.528000000000000358,-11.717718384610575910
0.529000000000000359,-11.646278318267569318
0.530000000000000360,-11.574954804575757095
0.531000000000000361,-11.503754643590980322
0.532000000000000361,-11.432684501618336270
0.533000000000000362,-11.361750911826055344
0.534000000000000363,-11.290960274900614380
0.535000000000000364,-11.220318859741636786
0.536000000000000365,-11.149832804195026981
0.537000000000000366,-11.079508115822903846
0.538000000000000367,-11.009350672708739793
0.539000000000000368,-10.939366224296565022
0.540000000000000369,-10.869560392262460624
0.541000000000000369,-10.799938671417267599
0.542000000000000370,-10.730506430638918403
0.543000000000000371,-10.661268913833184868
0.544000000000000372,-10.592231240921512025
0.545000000000000373,-10.523398408854623298
0.546000000000000374,-10.454775292650584362
0.547000000000000375,-10.386366646456183460
0.548000000000000376,-10.318177104630386509
0.549000000000000377,-10.250211182848643077
0.550000000000000377,-10.182473279226897489
0.551000000000000378,-10.114967675464137997
0.552000000000000379,-10.047698538002494573
0.553000000000000380,-9.980669919203627671
0.554000000000000381,-9.913885758540407878
0.555000000000000382,-9.847349883803023118
0.556000000000000383,-9.781066012318115455
0.557000000000000384,-9.715037752180423425
0.558000000000000385,-9.649268603495560370
0.559000000000000385,-9.583761959633282146
0.560000000000000386,-9.518521108490197946
0.561000000000000387,-9.453549233761032511
0.562000000000000388,-9.388849416217595945
0.563000000000000389,-9.324424634994709749
0.564000000000000390,-9.260277768882078320
0.565000000000000391,-9.196411597621501954
0.566000000000000392,-9.132828803208532520
0.567000000000000393,-9.069531971197976716
0.568000000000000393,-9.006523592012271706
0.569000000000000394,-8.943806062252244615
0.570000000000000395,-8.881381686009600429
0.571000000000000396,-8.819252676180202144
0.572000000000000397,-8.757421155777860733
0.573000000000000398,-8.695889159247725431
0.574000000000000399,-8.634658633778872883
0.575000000000000400,-8.573731440615389943
0.576000000000000401,-8.513109356365431424
0.577000000000000401,-8.452794074307846017
0.578000000000000402,-8.392787205695555031
0.579000000000000403,-8.333090281055465454
0.580000000000000404,-8.273704751484363129
0.581000000000000405,-8.214631989940178514
0.582000000000000406,-8.155873292528422525
0.583000000000000407,-8.097429879783089035
0.584000000000000408,-8.039302897941890791
0.585000000000000409,-7.981493420215221235
0.586000000000000409,-7.924002448048542924
0.587000000000000410,-7.866830912377899665
0.588000000000000411,-7.809979674878041678
0.589000000000000412,-7.753449529203074064
0.590000000000000413,-7.697241202219023748
0.591000000000000414,-7.641355355228275137
0.592000000000000415,-7.585792585185480164
0.593000000000000416,-7.530553425904609632
0.594000000000000417,-7.475638349256941595
0.595000000000000417,-7.421047766359945008
0.596000000000000418,-7.366782028756269085
0.597000000000000419,-7.312841429583365027
0.598000000000000420,-7.259226204732806664
0.599000000000000421,-7.205936533999695470
0.600000000000000422,-7.152972542221550434
0.601000000000000423,-7.100334300406754728
0.602000000000000424,-7.048021826852307825
0.603000000000000425,-6.996035088250704526
0.604000000000000425,-6.944374000785868084
0.605000000000000426,-6.893038431217912709
0.606000000000000427,-6.842028197956818936
