# CNT15-COO--3_GLUPSCA-AC
# h[nm],U(h)[kJ/mol]
0.149999999999999994,120.766255973895994202
0.150999999999999995,118.893330313685964938
0.151999999999999996,117.051433441230301469
0.152999999999999997,115.250786167215522937
0.153999999999999998,113.478242235730860443
0.154999999999999999,111.718508585745254891
0.156000000000000000,109.961787992726840457
0.157000000000000001,108.204875803900335995
0.158000000000000002,106.449597079656172127
0.159000000000000002,104.700588336061287009
0.160000000000000003,102.963341634631319721
0.161000000000000004,101.242832937547660777
0.162000000000000005,99.542755120416273940
0.163000000000000006,97.865244553896417301
0.164000000000000007,96.210951720550099253
0.165000000000000008,94.579314489811977751
0.166000000000000009,92.968920468507917576
0.167000000000000010,91.377877463010690917
0.168000000000000010,89.804141100512069329
0.169000000000000011,88.245772954623518558
0.170000000000000012,86.701120399689926899
0.171000000000000013,85.168921395162200838
0.172000000000000014,83.648344513948828194
0.173000000000000015,82.138977941369077485
0.174000000000000016,80.640781969882880276
0.175000000000000017,79.154018614400968090
0.176000000000000018,77.679170092183483121
0.177000000000000018,76.216855580746482701
0.178000000000000019,74.767753254977080246
0.179000000000000020,73.332532347540265505
0.180000000000000021,71.911798010669201631
0.181000000000000022,70.506050145147028729
0.182000000000000023,69.115656115641343149
0.183000000000000024,67.740836369783465898
0.184000000000000025,66.381661381702656399
0.185000000000000026,65.038058000218711641
0.186000000000000026,63.709823146371192593
0.187000000000000027,62.396642825422205192
0.188000000000000028,61.098114550785666665
0.189000000000000029,59.813771483597690803
0.190000000000000030,58.543106840619898890
0.191000000000000031,57.285597390138562446
0.192000000000000032,56.040725121758022453
0.193000000000000033,54.807996428007093925
0.194000000000000034,53.586958364452051740
0.195000000000000034,52.377211755128051607
0.196000000000000035,51.178421079018612261
0.197000000000000036,49.990321210658649420
0.198000000000000037,48.812721194915319245
0.199000000000000038,47.645505314904980310
0.200000000000000039,46.488631765799404150
0.201000000000000040,45.342129279281792265
0.202000000000000041,44.206092057068964607
0.203000000000000042,43.080673370588272064
0.204000000000000042,41.966078170755295673
0.205000000000000043,40.862555029742118506
0.206000000000000044,39.770387708219566036
0.207000000000000045,38.689886609032626552
0.208000000000000046,37.621380343499353671
0.209000000000000047,36.565207601057281295
0.210000000000000048,35.521709478051292308
0.211000000000000049,34.491222388018940137
0.212000000000000050,33.474071644581115947
0.213000000000000050,32.470565779488140379
0.214000000000000051,31.480991632796296642
0.215000000000000052,30.505610229723892246
0.216000000000000053,29.544653439484125812
0.217000000000000054,28.598321395252263244
0.218000000000000055,27.666780641257865625
0.219000000000000056,26.750162962608794004
0.220000000000000057,25.848564845618604124
0.221000000000000058,24.962047510880754686
0.222000000000000058,24.090637457837704716
0.223000000000000059,23.234327457879377477
0.224000000000000060,22.393077932806569663
0.225000000000000061,21.566818656569473944
0.226000000000000062,20.755450720307074164
0.227000000000000063,19.958848703656506984
0.228000000000000064,19.176862998881595956
0.229000000000000065,18.409322238408904582
0.230000000000000066,17.656035780712986849
0.231000000000000066,16.916796214020362044
0.232000000000000067,16.191381841896959060
0.233000000000000068,15.479559119348110130
0.234000000000000069,14.781085012517602095
0.235000000000000070,14.095709259358804033
0.236000000000000071,13.423176512719487974
0.237000000000000072,12.763228351092816837
0.238000000000000073,12.115605145817713861
0.239000000000000073,11.480047776745159638
0.240000000000000074,10.856299191310906593
0.241000000000000075,10.244105804574065388
0.242000000000000076,9.643218740093761454
0.243000000000000077,9.053394913532674337
0.244000000000000078,8.474397962609767632
0.245000000000000079,7.905999028487549651
0.246000000000000080,7.347977394890951253
0.247000000000000081,6.800120992230310080
0.248000000000000081,6.262226774762583048
0.249000000000000082,5.734100979389519459
0.250000000000000111,5.215559275079233892
0.251000000000000112,4.706426812128296611
0.252000000000000113,4.206538180571155472
0.253000000000000114,3.715737287014813539
0.254000000000000115,3.233877159039415083
0.255000000000000115,2.760819686082222280
0.256000000000000116,2.296435305422911632
0.257000000000000117,1.840602641528541028
0.258000000000000118,1.393208106609048702
0.259000000000000119,0.954145469788424405
0.260000000000000120,0.523315401824337001
0.261000000000000121,0.100625001819042686
0.262000000000000122,-0.314012688136706575
0.263000000000000123,-0.720679174948273604
0.264000000000000123,-1.119451008193176333
0.265000000000000124,-1.510400271044068932
0.266000000000000125,-1.893595064475113166
0.267000000000000126,-2.269099981252546971
0.268000000000000127,-2.636976566656993537
0.269000000000000128,-2.997283763308975946
0.270000000000000129,-3.350078337871645662
0.271000000000000130,-3.695415287782721325
0.272000000000000131,-4.033348226520092616
0.273000000000000131,-4.363929746233561779
0.274000000000000132,-4.687211756876838109
0.275000000000000133,-5.003245801250866265
0.276000000000000134,-5.312083345621486430
0.277000000000000135,-5.613776045801125214
0.278000000000000136,-5.908375988789186906
0.279000000000000137,-6.195935910246466172
0.280000000000000138,-6.476509388238566700
0.281000000000000139,-6.750151013823080248
0.282000000000000139,-7.016916539174529177
0.283000000000000140,-7.276863004043343963
0.284000000000000141,-7.530048841429599626
0.285000000000000142,-7.776533963421620399
0.286000000000000143,-8.016379828204156510
0.287000000000000144,-8.249649489281853931
0.288000000000000145,-8.476407627993783223
0.289000000000000146,-8.696720570411823559
0.290000000000000147,-8.910656289725226387
0.291000000000000147,-9.118284395212100435
0.292000000000000148,-9.319676108890996957
0.293000000000000149,-9.514904230929545292
0.294000000000000150,-9.704043094866364072
0.295000000000000151,-9.887168513675277381
0.296000000000000152,-10.064357717670045389
0.297000000000000153,-10.235689285212679067
0.298000000000000154,-10.401243067150588217
0.299000000000000155,-10.561100105867327059
0.300000000000000155,-10.715342549789243165
0.301000000000000156,-10.864053564146489705
0.302000000000000157,-11.007317238742350796
0.303000000000000158,-11.145218493439212892
0.304000000000000159,-11.277842982024219864
0.305000000000000160,-11.405276995072213708
0.306000000000000161,-11.527607362378731182
0.307000000000000162,-11.644921355491629100
0.308000000000000163,-11.757306590826560821
0.309000000000000163,-11.864850933809286460
0.310000000000000164,-11.967642404447143889
0.311000000000000165,-12.065769084692057334
0.312000000000000166,-12.159319027919838874
0.313000000000000167,-12.248380170813819134
0.314000000000000168,-12.333040247906136955
0.315000000000000169,-12.413386708996972274
0.316000000000000170,-12.489506639640662655
0.317000000000000171,-12.561486684857939622
0.318000000000000171,-12.629412976205703245
0.319000000000000172,-12.693371062309845243
0.320000000000000173,-12.753445842941928845
0.321000000000000174,-12.809721506698043214
0.322000000000000175,-12.862281472317175002
0.323000000000000176,-12.911208333656890801
0.324000000000000177,-12.956583808326456619
0.325000000000000178,-12.998488689960970177
0.326000000000000179,-13.037002804105735976
0.327000000000000179,-13.072204967666028352
0.328000000000000180,-13.104172951865782792
0.329000000000000181,-13.132983448647982172
0.330000000000000182,-13.158712040439388247
0.331000000000000183,-13.181433173194653463
0.332000000000000184,-13.201220132626749759
0.333000000000000185,-13.218145023524916937
0.334000000000000186,-13.232278752055666615
0.335000000000000187,-13.243691010938073660
0.336000000000000187,-13.252450267381181703
0.337000000000000188,-13.258623753668000944
0.338000000000000189,-13.262277460269260132
0.339000000000000190,-13.263476131368108213
0.340000000000000191,-13.262283262676271889
0.341000000000000192,-13.258761101422342321
0.342000000000000193,-13.252970648392537356
0.343000000000000194,-13.244971661905761806
0.344000000000000195,-13.234822663605234183
0.345000000000000195,-13.222580945951367681
0.346000000000000196,-13.208302581301662570
0.347000000000000197,-13.192042432466299928
0.348000000000000198,-13.173854164630199648
0.349000000000000199,-13.153790258535114077
0.350000000000000200,-13.131902024818458585
0.351000000000000201,-13.108239619408362131
0.352000000000000202,-13.082852059877859929
0.353000000000000203,-13.055787242664512959
0.354000000000000203,-13.027091961065176307
0.355000000000000204,-12.996811923918954790
0.356000000000000205,-12.964991774895301191
0.357000000000000206,-12.931675112307706499
0.358000000000000207,-12.896904509376728498
0.359000000000000208,-12.860721534870242166
0.360000000000000209,-12.823166774052145556
0.361000000000000210,-12.784279849874106816
0.362000000000000210,-12.744099444349007655
0.363000000000000211,-12.702663320047662410
0.364000000000000212,-12.660008341664305220
0.365000000000000213,-12.616170497599245692
0.366000000000000214,-12.571184921510834442
0.367000000000000215,-12.525085913791611958
0.368000000000000216,-12.477906962927125534
0.369000000000000217,-12.429680766698451677
0.370000000000000218,-12.380439253192824012
0.371000000000000218,-12.330213601589166572
0.372000000000000219,-12.279034262688529822
0.373000000000000220,-12.226930979161672042
0.374000000000000221,-12.173932805488853148
0.375000000000000222,-12.120068127568989880
0.376000000000000223,-12.065364681978159922
0.377000000000000224,-12.009849574859099874
0.378000000000000225,-11.953549300425905244
0.379000000000000226,-11.896489759069822867
0.380000000000000226,-11.838696275054324758
0.381000000000000227,-11.780193613788942031
0.382000000000000228,-11.721005998673660997
0.383000000000000229,-11.661157127506829312
0.384000000000000230,-11.600670188451157827
0.385000000000000231,-11.539567875554213927
0.386000000000000232,-11.477872403820457592
0.387000000000000233,-11.415605523833862733
0.388000000000000234,-11.352788535930724123
0.389000000000000234,-11.289442303923891586
0.390000000000000235,-11.225587268380213146
0.391000000000000236,-11.161243459454288640
0.392000000000000237,-11.096430509282200205
0.393000000000000238,-11.031167663940033563
0.394000000000000239,-10.965473794972311339
0.395000000000000240,-10.899367410496529018
0.396000000000000241,-10.832866665890369617
0.397000000000000242,-10.765989374068666962
0.398000000000000242,-10.698753015358009932
0.399000000000000243,-10.631174746976869372
0.400000000000000244,-10.563271412129809690
0.401000000000000245,-10.495059548724736231
0.402000000000000246,-10.426555397722143681
0.403000000000000247,-10.357774911125812167
0.404000000000000248,-10.288733759624552278
0.405000000000000249,-10.219447339894816906
0.406000000000000250,-10.149930781573898386
0.407000000000000250,-10.080198953913972915
0.408000000000000251,-10.010266472126806647
0.409000000000000252,-9.940147703429474291
0.410000000000000253,-9.869856772801025357
0.411000000000000254,-9.799407568460377860
0.412000000000000255,-9.728813747075410134
0.413000000000000256,-9.658088738713358268
0.414000000000000257,-9.587245751542376127
0.415000000000000258,-9.516297776294274868
0.416000000000000258,-9.445257590497977418
0.417000000000000259,-9.374137762493498727
0.418000000000000260,-9.302950655235770583
0.419000000000000261,-9.231708429897729218
0.420000000000000262,-9.160423049281751773
0.421000000000000263,-9.089106281048497493
0.422000000000000264,-9.017769700771822272
0.423000000000000265,-8.946424694828406743
0.424000000000000266,-8.875082463130613775
0.425000000000000266,-8.803754021710515687
0.426000000000000267,-8.732450205163306833
0.427000000000000268,-8.661181668957663504
0.428000000000000269,-8.589958891620701920
0.429000000000000270,-8.518792176804879546
0.430000000000000271,-8.447691655243719566
0.431000000000000272,-8.376667286603531437
0.432000000000000273,-8.305728861237451355
0.433000000000000274,-8.234886001848503057
0.434000000000000274,-8.164148165067576457
0.435000000000000275,-8.093524642952530712
0.436000000000000276,-8.023024564414047433
0.437000000000000277,-7.952656896573680356
0.438000000000000278,-7.882430446059535356
0.439000000000000279,-7.812353860244600767
0.440000000000000280,-7.742435628432524197
0.441000000000000281,-7.672684082995582244
0.442000000000000282,-7.603107400469282240
0.443000000000000282,-7.533713602607730486
0.444000000000000283,-7.464510557403968960
0.445000000000000284,-7.395505980078993957
0.446000000000000285,-7.326707434043124856
0.447000000000000286,-7.258122331833338770
0.448000000000000287,-7.189757936029577579
0.449000000000000288,-7.121621360153457481
0.450000000000000289,-7.053719569552015400
0.451000000000000290,-6.986059382269448115
0.452000000000000290,-6.918647469909410930
0.453000000000000291,-6.851490358490202937
0.454000000000000292,-6.784594429295315976
0.455000000000000293,-6.717965919721274659
0.456000000000000294,-6.651610924124921276
0.457000000000000295,-6.585535394671945042
0.458000000000000296,-6.519745142188304143
0.459000000000000297,-6.454245837016264531
0.460000000000000298,-6.389043009876361978
0.461000000000000298,-6.324142052736767994
0.462000000000000299,-6.259548219691208004
0.463000000000000300,-6.195266627846512719
0.464000000000000301,-6.131302258220903134
0.465000000000000302,-6.067659956653882247
0.466000000000000303,-6.004344434728450253
0.467000000000000304,-5.941360270706477209
0.468000000000000305,-5.878711910477817604
0.469000000000000306,-5.816403668523615345
0.470000000000000306,-5.754439728894461759
0.471000000000000307,-5.692824146203493640
0.472000000000000308,-5.631560846635038864
0.473000000000000309,-5.570653628968813109
0.474000000000000310,-5.510106165619971463
0.475000000000000311,-5.449922003694998018
0.476000000000000312,-5.390104566063725677
0.477000000000000313,-5.330657152447102476
0.478000000000000314,-5.271582940520975313
0.479000000000000314,-5.212884987035659279
0.480000000000000315,-5.154566228951043882
0.481000000000000316,-5.096629484587234415
0.482000000000000317,-5.039077454790283461
0.483000000000000318,-4.981912724112892654
0.484000000000000319,-4.925137762009653031
0.485000000000000320,-4.868754924046591270
0.486000000000000321,-4.812766453124541322
0.487000000000000322,-4.757174480716033216
0.488000000000000322,-4.701981028115113759
0.489000000000000323,-4.647188007699911694
0.490000000000000324,-4.592797224207204820
0.491000000000000325,-4.538810376018667547
0.492000000000000326,-4.485229056458179819
0.493000000000000327,-4.432054755099807508
0.494000000000000328,-4.379288859085767704
0.495000000000000329,-4.326932654453972127
0.496000000000000330,-4.274987327474447873
0.497000000000000330,-4.223453965994226955
0.498000000000000331,-4.172333560789934559
0.499000000000000332,-4.121627006927750969
0.500000000000000333,-4.071335105129920251
0.501000000000000334,-4.021458563147345622
0.502000000000000335,-3.971997997137665326
0.503000000000000336,-3.922953933048241915
0.504000000000000337,-3.874326808003399236
0.505000000000000338,-3.826116971695414204
0.506000000000000338,-3.778324687778626068
0.507000000000000339,-3.730950135266069445
0.508000000000000340,-3.683993409928092433
0.509000000000000341,-3.637454525692405127
0.510000000000000342,-3.591333416044903970
0.511000000000000343,-3.545629935430809176
0.512000000000000344,-3.500343860655492190
0.513000000000000345,-3.455474892284490007
0.514000000000000346,-3.411022656042175250
0.515000000000000346,-3.366986704208492220
0.516000000000000347,-3.323366517013288668
0.517000000000000348,-3.280161504027788055
0.518000000000000349,-3.237371005552525105
0.519000000000000350,-3.194994294001471502
0.520000000000000351,-3.153030575281701609
0.521000000000000352,-3.111478990168238035
0.522000000000000353,-3.070338615673567695
0.523000000000000353,-3.029608466411350509
0.524000000000000354,-2.989287495954010332
0.525000000000000355,-2.949374598183625018
0.526000000000000356,-2.909868608635810094
0.527000000000000357,-2.870768305836214118
0.528000000000000358,-2.832072412629078606
0.529000000000000359,-2.793779597497748401
0.530000000000000360,-2.755888475876492105
0.531000000000000361,-2.718397611453504670
0.532000000000000361,-2.681305517464597443
0.533000000000000362,-2.644610657977366053
0.534000000000000363,-2.608311449165429785
0.535000000000000364,-2.572406260572501768
0.536000000000000365,-2.536893416365964882
0.537000000000000366,-2.501771196579714918
0.538000000000000367,-2.467037838345918832
0.539000000000000368,-2.432691537115591274
0.540000000000000369,-2.398730447867533755
0.541000000000000369,-2.365152686305630247
0.542000000000000370,-2.331956330044097747
0.543000000000000371,-2.299139419780577676
0.544000000000000372,-2.266699960456867391
0.545000000000000373,-2.234635922407085751
0.546000000000000374,-2.202945242493073330
0.547000000000000375,-2.171625825226912276
0.548000000000000376,-2.140675543880413478
0.549000000000000377,-2.110092241581383199
0.550000000000000377,-2.079873732396541719
0.551000000000000378,-2.050017802401032263
0.552000000000000379,-2.020522210734331470
0.553000000000000380,-1.991384690642513888
0.554000000000000381,-1.962602950506719068
0.555000000000000382,-1.934174674857832343
0.556000000000000383,-1.906097525377158819
0.557000000000000384,-1.878369141883200033
0.558000000000000385,-1.850987143304295257
0.559000000000000385,-1.823949128637237349
0.560000000000000386,-1.797252677891701511
0.561000000000000387,-1.770895353020526475
0.562000000000000388,-1.744874698835785720
0.563000000000000389,-1.719188243910652059
0.564000000000000390,-1.693833501467025826
0.565000000000000391,-1.668807970248941119
0.566000000000000392,-1.644109135381729869
0.567000000000000393,-1.619734469217004147
0.568000000000000393,-1.595681432163394531
0.569000000000000394,-1.571947473503134907
0.570000000000000395,-1.548530032194513018
0.571000000000000396,-1.525426537660167670
0.572000000000000397,-1.502634410561374256
0.573000000000000398,-1.480151063558237334
0.574000000000000399,-1.457973902055983872
0.575000000000000400,-1.436100324937273687
0.576000000000000401,-1.414527725280690262
0.577000000000000401,-1.393253491065467919
0.578000000000000402,-1.372275005862456654
0.579000000000000403,-1.351589649511464319
0.580000000000000404,-1.331194798785074518
0.581000000000000405,-1.311087828038942193
0.582000000000000406,-1.291266109848735244
0.583000000000000407,-1.271727015633773883
0.584000000000000408,-1.252467916267465231
0.585000000000000409,-1.233486182674655485
0.586000000000000409,-1.214779186415965384
0.587000000000000410,-1.196344300259259308
0.588000000000000411,-1.178178898738302838
0.589000000000000412,-1.160280358698785985
0.590000000000000413,-1.142646059831748273
0.591000000000000414,-1.125273385194586639
0.592000000000000415,-1.108159721719751412
0.593000000000000416,-1.091302460711208511
0.594000000000000417,-1.074698998328833310
0.595000000000000417,-1.058346736060897575
0.596000000000000418,-1.042243081184634601
0.597000000000000419,-1.026385447215212299
0.598000000000000420,-1.010771254343048486
0.599000000000000421,-0.995397929859753838
0.600000000000000422,-0.980262908572725467
0.601000000000000423,-0.965363633208604410
0.602000000000000424,-0.950697554805672973
0.603000000000000425,-0.936262133095371540
0.604000000000000425,-0.922054836873045458
0.605000000000000426,-0.908073144358055417
0.606000000000000427,-0.894314543543461737
0.607000000000000428,-0.880776532535245238
0.608000000000000429,-0.867456619881485480
0.609000000000000430,-0.854352324891296866
0.610000000000000431,-0.841461177943992666
