# CNT15-COO--3_CS-730-AC
# h[nm],U(h)[kJ/mol]
0.200000000000000011,61.829698126831523552
0.201000000000000012,60.218139260629598652
0.202000000000000013,58.830297392184583316
0.203000000000000014,57.568180341635752484
0.204000000000000015,56.366423060504402542
0.205000000000000016,55.184287924506818968
0.206000000000000016,53.998989439010721014
0.207000000000000017,52.800296165897727008
0.208000000000000018,51.586293442144736332
0.209000000000000019,50.360157048847760564
0.210000000000000020,49.127777907695268311
0.211000000000000021,47.896082315310351873
0.212000000000000022,46.671905057985554777
0.213000000000000023,45.461289824727813880
0.214000000000000024,44.269109911079304709
0.215000000000000024,43.098920539342856273
0.216000000000000025,41.952971175236420720
0.217000000000000026,40.832321442765376673
0.218000000000000027,39.737017398585422256
0.219000000000000028,38.666296004752624071
0.220000000000000029,37.618794744147258768
0.221000000000000030,36.592750638603902757
0.222000000000000031,35.586178673089754909
0.223000000000000032,34.597024026610668557
0.224000000000000032,33.623285781508926107
0.225000000000000033,32.663112130662462107
0.226000000000000034,31.714868708554366350
0.227000000000000035,30.777182695569756277
0.228000000000000036,29.848965920046719447
0.229000000000000037,28.929420422213532049
0.230000000000000038,28.018029940564947111
0.231000000000000039,27.114540608873017646
0.232000000000000040,26.218933869710081552
0.233000000000000040,25.331394263640419240
0.234000000000000041,24.452274376585705795
0.235000000000000042,23.582058846645860939
0.236000000000000043,22.721328963838438142
0.237000000000000044,21.870729053913386508
0.238000000000000045,21.030935528115367816
0.239000000000000046,20.202629208498869673
0.240000000000000047,19.386471304504649282
0.241000000000000048,18.583083220431849014
0.242000000000000048,17.793030213296226805
0.243000000000000049,17.016808793588467097
0.244000000000000050,16.254837664356792004
0.245000000000000051,15.507451923292745022
0.246000000000000052,14.774900204521788538
0.247000000000000053,14.057344408094389010
0.248000000000000054,13.354861652447088005
0.249000000000000055,12.667448085320199169
0.250000000000000056,11.995024199039056256
0.251000000000000056,11.337441314262997949
0.252000000000000057,10.694488920168190305
0.253000000000000058,10.065902586749485792
0.254000000000000059,9.451372194980342201
0.255000000000000060,8.850550261704357879
0.256000000000000061,8.263060167328976746
0.257000000000000062,7.688504124850446431
0.258000000000000063,7.126470757842878534
0.259000000000000064,6.576542182341711396
0.260000000000000064,6.038300512727074576
0.261000000000000065,5.511333734569485721
0.262000000000000066,4.995240907832932287
0.263000000000000067,4.489636681818497621
0.264000000000000068,3.994155118809173732
0.265000000000000069,3.508452836629975646
0.266000000000000070,3.032211491388978164
0.267000000000000071,2.565139630658881842
0.268000000000000071,2.106973954461585752
0.269000000000000072,1.657480026801193107
0.270000000000000073,1.216452484333147455
0.271000000000000074,0.783714791234904617
0.272000000000000075,0.359118590628972778
0.273000000000000076,-0.057457296831128879
0.274000000000000077,-0.466108177212870456
0.275000000000000078,-0.866905041730953285
0.276000000000000079,-1.259896332610189296
0.277000000000000079,-1.645109872042776145
0.278000000000000080,-2.022554912650115444
0.279000000000000081,-2.392224270874177883
0.280000000000000082,-2.754096507911113711
0.281000000000000083,-3.108138126087751196
0.282000000000000084,-3.454305751903446797
0.283000000000000085,-3.792548280261338611
0.284000000000000086,-4.122808957649192863
0.285000000000000087,-4.445027385161094635
0.286000000000000087,-4.759141425249728385
0.287000000000000088,-5.065088998939460296
0.288000000000000089,-5.362809762896157295
0.289000000000000090,-5.652246658228881948
0.290000000000000091,-5.933347325181918208
0.291000000000000092,-6.206065379961924755
0.292000000000000093,-6.470361551830828617
0.293000000000000094,-6.726204680285226445
0.294000000000000095,-6.973572573640555383
0.295000000000000095,-7.212452731651220361
0.296000000000000096,-7.442842935932290516
0.297000000000000097,-7.664751712915585991
0.298000000000000098,-7.878198674881373265
0.299000000000000099,-8.083214745268135104
0.300000000000000100,-8.279842274986975781
0.301000000000000101,-8.468135056866541888
0.302000000000000102,-8.648158245638049024
0.303000000000000103,-8.819988191051512771
0.304000000000000103,-8.983712191801384250
0.305000000000000104,-9.139428177945259080
0.306000000000000105,-9.287244329431533885
0.307000000000000106,-9.427278638220213836
0.308000000000000107,-9.559658421295447184
0.309000000000000108,-9.684519791635153751
0.310000000000000109,-9.802007093932294524
0.311000000000000110,-9.912272311558288251
0.312000000000000111,-10.015474450931264983
0.313000000000000111,-10.111778909103412261
0.314000000000000112,-10.201356830020046118
0.315000000000000113,-10.284384454531849684
0.316000000000000114,-10.361042468866191513
0.317000000000000115,-10.431515355886132213
0.318000000000000116,-10.495990753091810177
0.319000000000000117,-10.554658820949342157
0.320000000000000118,-10.607711624771321013
0.321000000000000119,-10.655342533021723739
0.322000000000000119,-10.697745634578474494
0.323000000000000120,-10.735115177160595934
0.324000000000000121,-10.767645028815378438
0.325000000000000122,-10.795528164064466026
0.326000000000000123,-10.818956176027452187
0.327000000000000124,-10.838118815577789888
0.328000000000000125,-10.853203558339099999
0.329000000000000126,-10.864395200099545846
0.330000000000000127,-10.871875481009036335
0.331000000000000127,-10.875822738727531913
0.332000000000000128,-10.876411590512500283
0.333000000000000129,-10.873812644069650091
0.334000000000000130,-10.868192236842585174
0.335000000000000131,-10.859712203283553578
0.336000000000000132,-10.848529669528415909
0.337000000000000133,-10.834796874793820365
0.338000000000000134,-10.818661018722600886
0.339000000000000135,-10.800264133823681334
0.340000000000000135,-10.779742982085249281
0.341000000000000136,-10.757228974782995223
0.342000000000000137,-10.732848114459082822
0.343000000000000138,-10.706720958010651046
0.344000000000000139,-10.678962599799014299
0.345000000000000140,-10.649682673671339472
0.346000000000000141,-10.618985372774563558
0.347000000000000142,-10.586969486036533539
0.348000000000000143,-10.553728450190973831
0.349000000000000143,-10.519350416229809042
0.350000000000000144,-10.483918329179008566
0.351000000000000145,-10.447510020111005602
0.352000000000000146,-10.410198309327910238
0.353000000000000147,-10.372051119674360109
0.354000000000000148,-10.333131598966904363
0.355000000000000149,-10.293498250557071572
0.356000000000000150,-10.253205071078530963
0.357000000000000151,-10.212301694463151946
0.358000000000000151,-10.170833541347374052
0.359000000000000152,-10.128841973027700618
0.360000000000000153,-10.086364449162802615
0.361000000000000154,-10.043434688458633630
0.362000000000000155,-10.000082831612775891
0.363000000000000156,-9.956335605833718461
0.364000000000000157,-9.912216490290482795
0.365000000000000158,-9.867745881887639570
0.366000000000000159,-9.822941260799435526
0.367000000000000159,-9.777817355235479013
0.368000000000000160,-9.732386304948118294
0.369000000000000161,-9.686657823028584247
0.370000000000000162,-9.640639355574968761
0.371000000000000163,-9.594336238850365461
0.372000000000000164,-9.547751853583093862
0.373000000000000165,-9.500887776094204540
0.374000000000000166,-9.453743925968716155
0.375000000000000167,-9.406318710017652407
0.376000000000000167,-9.358609162307075735
0.377000000000000168,-9.310611080058153632
0.378000000000000169,-9.262319155248754043
0.379000000000000170,-9.213727101772686723
0.380000000000000171,-9.164827778036160666
0.381000000000000172,-9.115613304894269575
0.382000000000000173,-9.066075178851139782
0.383000000000000174,-9.016204380468048285
0.384000000000000175,-8.965991477942280241
0.385000000000000175,-8.915426725837352961
0.386000000000000176,-8.864500158961721610
0.387000000000000177,-8.813201681408211030
0.388000000000000178,-8.761521150780884781
0.389000000000000179,-8.709448457648793607
0.390000000000000180,-8.656973600278391245
0.391000000000000181,-8.604086754707179097
0.392000000000000182,-8.550778340231316221
0.393000000000000183,-8.497039080388917753
0.394000000000000183,-8.442860059528937811
0.395000000000000184,-8.388232775062984814
0.396000000000000185,-8.333149185503703649
0.397000000000000186,-8.277601754399253053
0.398000000000000187,-8.221583490278298711
0.399000000000000188,-8.165087982724196891
0.400000000000000189,-8.108109434700706331
0.401000000000000190,-8.050642691254456196
0.402000000000000191,-7.992683264721991421
0.403000000000000191,-7.934227356570727530
0.404000000000000192,-7.875271876004829252
0.405000000000000193,-7.815814455467598343
0.406000000000000194,-7.755853463172472928
0.407000000000000195,-7.695388012794791344
0.408000000000000196,-7.634417970455830371
0.409000000000000197,-7.572943959130091329
0.410000000000000198,-7.510967360605685705
0.411000000000000199,-7.448490315126122141
0.412000000000000199,-7.385515718840285793
0.413000000000000200,-7.322047219185540357
0.414000000000000201,-7.258089208326582664
0.415000000000000202,-7.193646814770376707
0.416000000000000203,-7.128725893275246861
0.417000000000000204,-7.063333013169076580
0.418000000000000205,-6.997475445189186516
0.419000000000000206,-6.931161146953360053
0.420000000000000207,-6.864398747168282355
0.421000000000000207,-6.797197528678990963
0.422000000000000208,-6.729567410459175392
0.423000000000000209,-6.661518928639454273
0.424000000000000210,-6.593063216667138349
0.425000000000000211,-6.524211984687694255
0.426000000000000212,-6.454977498235015432
0.427000000000000213,-6.385372556313910763
0.428000000000000214,-6.315410468955235501
0.429000000000000214,-6.245105034320454607
0.430000000000000215,-6.174470515429259621
0.431000000000000216,-6.103521616580652065
0.432000000000000217,-6.032273459534373217
0.433000000000000218,-5.960741559516660182
0.434000000000000219,-5.888941801110915364
0.435000000000000220,-5.816890414090893913
0.436000000000000221,-5.744603949250865149
0.437000000000000222,-5.672099254284189485
0.438000000000000222,-5.599393449758968799
0.439000000000000223,-5.526503905236347158
0.440000000000000224,-5.453448215574386637
0.441000000000000225,-5.380244177457592869
0.442000000000000226,-5.306909766189739308
0.443000000000000227,-5.233463112784694893
0.444000000000000228,-5.159922481387838822
0.445000000000000229,-5.086306247057970964
0.446000000000000230,-5.012632873937340250
0.447000000000000230,-4.938920893835266668
0.448000000000000231,-4.865188885248475259
0.449000000000000232,-4.791455452839213258
0.450000000000000233,-4.717739207390347467
0.451000000000000234,-4.644058746254384751
0.452000000000000235,-4.570432634311845987
0.453000000000000236,-4.496879385452293043
0.454000000000000237,-4.423417444589920144
0.455000000000000238,-4.350065170223666122
0.456000000000000238,-4.276840817550554341
0.457000000000000239,-4.203762522139150803
0.458000000000000240,-4.130848284169010398
0.459000000000000241,-4.058115953240115203
0.460000000000000242,-3.985583213755635512
0.461000000000000243,-3.913267570879568780
0.462000000000000244,-3.841186337070134904
0.463000000000000245,-3.769356619188278135
0.464000000000000246,-3.697795306180078789
0.465000000000000246,-3.626519057330546580
0.466000000000000247,-3.555544291085536379
0.467000000000000248,-3.484887174437622637
0.468000000000000249,-3.414563612871149623
0.469000000000000250,-3.344589240860610602
0.470000000000000251,-3.274979412916227517
0.471000000000000252,-3.205749195169576460
0.472000000000000253,-3.136913357491912357
0.473000000000000254,-3.068486366136961685
0.474000000000000254,-3.000482376899685555
0.475000000000000255,-2.932915228781983075
0.476000000000000256,-2.865798438155875427
0.477000000000000257,-2.799145193414463773
0.478000000000000258,-2.732968350100385635
0.479000000000000259,-2.667280426501500212
0.480000000000000260,-2.602093599703041438
0.481000000000000261,-2.537419702085291995
0.482000000000000262,-2.473270218255781305
0.483000000000000262,-2.409656282404642802
0.484000000000000263,-2.346588676071747148
0.485000000000000264,-2.284077826314096171
0.486000000000000265,-2.222133804261878343
0.487000000000000266,-2.160766324051485832
0.488000000000000267,-2.099984742123791381
0.489000000000000268,-2.039798056876020116
0.490000000000000269,-1.980214908655375083
0.491000000000000270,-1.921243580082867108
0.492000000000000270,-1.862891996695525076
0.493000000000000271,-1.805167727895538921
0.494000000000000272,-1.748077988194714605
0.495000000000000273,-1.691629638742776720
0.496000000000000274,-1.635829189128308769
0.497000000000000275,-1.580682799440936481
0.498000000000000276,-1.526196282583772046
0.499000000000000277,-1.472375106825131841
0.500000000000000222,-1.419224398578645019
0.501000000000000334,-1.366748945401174531
0.502000000000000224,-1.314953199198046541
0.503000000000000336,-1.263841279625135927
0.504000000000000226,-1.213416977677902908
0.505000000000000338,-1.163683759457087907
0.506000000000000227,-1.114644770101697047
0.507000000000000339,-1.066302837879259835
0.508000000000000229,-1.018660478424395111
0.509000000000000341,-0.971719899116139318
0.510000000000000231,-0.925483003585459096
0.511000000000000343,-0.879951396343771952
0.512000000000000233,-0.835126387524312008
0.513000000000000345,-0.791008997727683405
0.514000000000000234,-0.747599962963827025
0.515000000000000346,-0.704899739682085746
0.516000000000000236,-0.662908509882110364
0.517000000000000348,-0.621626186297777439
0.518000000000000238,-0.581052417647147212
0.519000000000000350,-0.541186593941173411
0.520000000000000240,-0.502027851844577655
0.521000000000000352,-0.463575080082086699
0.522000000000000242,-0.425826924883785984
0.523000000000000353,-0.388781795463257585
0.524000000000000243,-0.352437869522685354
0.525000000000000355,-0.316793098778989646
0.526000000000000245,-0.281845214505613839
0.527000000000000357,-0.247591733084367827
0.528000000000000247,-0.214029961562436810
0.529000000000000359,-0.181157003209313855
0.530000000000000249,-0.148969763069121436
0.531000000000000361,-0.117464953503540873
0.532000000000000250,-0.086639099721154980
0.533000000000000362,-0.056488545288772271
0.534000000000000252,-0.027009457620921846
0.535000000000000364,0.001802166556508417
0.536000000000000254,0.029950495772006820
0.537000000000000366,0.057439858407241730
0.538000000000000256,0.084274737332031682
0.539000000000000368,0.110459764578917000
0.540000000000000258,0.135999716060081488
0.541000000000000369,0.160899506329749947
0.542000000000000259,0.185164183394497778
0.543000000000000371,0.208798923574262885
0.544000000000000261,0.231809026416296554
0.545000000000000373,0.254199909664436008
0.546000000000000263,0.275977104285729968
0.547000000000000375,0.297146249556548558
0.548000000000000265,0.317713088209847727
0.549000000000000377,0.337683461645551908
0.550000000000000266,0.357063305205477410
0.551000000000000378,0.375858643514417001
0.552000000000000268,0.394075585888696511
0.553000000000000380,0.411720321813530465
0.554000000000000270,0.428799116490253929
0.555000000000000382,0.445318306454593027
0.556000000000000272,0.461284295266800926
0.557000000000000384,0.476703549274652361
0.558000000000000274,0.491582593449900795
0.559000000000000385,0.505928007299029980
0.560000000000000275,0.519746420848714585
0.561000000000000387,0.533044510706619179
0.562000000000000277,0.545828996197860628
0.563000000000000389,0.558106635577511279
0.564000000000000279,0.569884222319357758
0.565000000000000391,0.581168581481139035
0.566000000000000281,0.591966566146356010
0.567000000000000393,0.602285053942699600
0.568000000000000282,0.612130943637053337
0.569000000000000394,0.621511151807055517
0.570000000000000284,0.630432609588996717
0.571000000000000396,0.638902259501928804
0.572000000000000286,0.646927052347655573
0.573000000000000398,0.654513944186404850
0.574000000000000288,0.661669893387740737
0.575000000000000400,0.668401857756335205
0.576000000000000290,0.674716791732213661
0.577000000000000401,0.680621643664911402
0.578000000000000291,0.686123353161056104
0.579000000000000403,0.691228848504833016
0.580000000000000293,0.695945044150683478
0.581000000000000405,0.700278838287638927
0.582000000000000295,0.704237110474627781
0.583000000000000407,0.707826719346041355
0.584000000000000297,0.711054500386859356
0.585000000000000409,0.713927263776559462
0.586000000000000298,0.716451792301078472
0.587000000000000410,0.718634839331976139
0.588000000000000300,0.720483126872039192
0.589000000000000412,0.722003343666451580
0.590000000000000302,0.723202143378707363
0.591000000000000414,0.724086142830330570
0.592000000000000304,0.724661920303629303
0.593000000000000416,0.724936013906463894
0.594000000000000306,0.724914919998188800
0.595000000000000417,0.724605091675811996
0.596000000000000307,0.724012937319486793
0.597000000000000419,0.723144819196307242
0.598000000000000309,0.722007052121520831
0.599000000000000421,0.720605902176214563
0.600000000000000311,0.718947585480439355
0.601000000000000423,0.717038267020870923
0.602000000000000313,0.714884059531998850
0.603000000000000425,0.712491022429909360
0.604000000000000314,0.709865160797617412
0.605000000000000426,0.707012424421049501
0.606000000000000316,0.703938706874640885
0.607000000000000428,0.700649844655610865
0.608000000000000318,0.697151616365907612
0.609000000000000430,0.693449741940865616
0.610000000000000320,0.689549881923628094
0.611000000000000432,0.685457636784300273
0.612000000000000322,0.681178546282967701
0.613000000000000433,0.676718088875521318
0.614000000000000323,0.672081681161414646
0.615000000000000435,0.667274677372345915
0.616000000000000325,0.662302368900983041
0.617000000000000437,0.657169983868733931
0.618000000000000327,0.651882686731684924
0.619000000000000439,0.646445577923760784
0.620000000000000329,0.640863693536204315
0.621000000000000441,0.635142005032456769
0.622000000000000330,0.629285418997571622
0.623000000000000442,0.623298776921235254
0.624000000000000332,0.617186855013575952
0.625000000000000444,0.610954364052803234
0.626000000000000334,0.604605949263939513
0.627000000000000446,0.598146190227665353
0.628000000000000336,0.591579600818555540
0.629000000000000448,0.584910629171796703
0.630000000000000338,0.578143657677624767
0.631000000000000449,0.571283003002622691
0.632000000000000339,0.564332916137153084
0.633000000000000451,0.557297582468062158
0.634000000000000341,0.550181121875966350
0.635000000000000453,0.542987588856254977
0.636000000000000343,0.535720972663210393
0.637000000000000455,0.528385197476312518
0.638000000000000345,0.520984122588203258
0.639000000000000457,0.513521542613425641
0.640000000000000346,0.506001187717363465
0.641000000000000458,0.498426723864580812
0.642000000000000348,0.490801753085992665
0.643000000000000460,0.483129813764082428
0.644000000000000350,0.475414380935624603
0.645000000000000462,0.467658866611152135
0.646000000000000352,0.459866620110662094
0.647000000000000464,0.452040928414806420
0.648000000000000353,0.444185016531084831
0.649000000000000465,0.436302047874323473
0.650000000000000355,0.428395124660968574
0.651000000000000467,0.420467288316517251
0.652000000000000357,0.412521519895603261
0.653000000000000469,0.404560740514127659
0.654000000000000359,0.396587811792935230
0.655000000000000471,0.388605536312487732
0.656000000000000361,0.380616658078029357
0.657000000000000473,0.372623862994705235
0.658000000000000362,0.364629779352195205
0.659000000000000474,0.356636978318327358
0.660000000000000364,0.348647974441227082
0.661000000000000476,0.340665226159506784
0.662000000000000366,0.332691136320113157
0.663000000000000478,0.324728052703285031
0.664000000000000368,0.316778268554314235
0.665000000000000480,0.308844023121562727
