# CNT15-COO--3_CS-693-AC
# h[nm],U(h)[kJ/mol]
0.149999999999999994,110.505682890729460155
0.150999999999999995,107.650813883067982601
0.151999999999999996,106.331689198248483308
0.152999999999999997,105.333599848338252514
0.153999999999999998,104.210369188709208288
0.154999999999999999,102.877648728505207032
0.156000000000000000,101.393184133485860343
0.157000000000000001,99.847148365832367745
0.158000000000000002,98.314603095777258090
0.159000000000000002,96.840939531549039998
0.160000000000000003,95.443147915185690522
0.161000000000000004,94.117276746703439017
0.162000000000000005,92.847028579000678405
0.163000000000000006,91.611145842098110847
0.164000000000000007,90.388762974101297232
0.165000000000000008,89.162696496815740943
0.166000000000000009,87.921007671112576531
0.167000000000000010,86.657290346272546344
0.168000000000000010,85.370125732226341597
0.169000000000000011,84.062075834166634536
0.170000000000000012,82.738498237584934714
0.171000000000000013,81.406378238650972889
0.172000000000000014,80.073300069158307224
0.173000000000000015,78.746620640702914784
0.174000000000000016,77.432866677252405907
0.175000000000000017,76.137347386899349999
0.176000000000000018,74.863957329529640106
0.177000000000000018,73.615135193007432690
0.178000000000000019,72.391941379233230691
0.179000000000000020,71.194218599586633900
0.180000000000000021,70.020803487240812046
0.181000000000000022,68.869762349100255960
0.182000000000000023,67.738629743423558693
0.183000000000000024,66.624634001899920577
0.184000000000000025,65.524898757560990248
0.185000000000000026,64.436613797086948807
0.186000000000000026,63.357172050185866397
0.187000000000000027,62.284272262392846642
0.188000000000000028,61.215988924543353278
0.189000000000000029,60.150812435236488795
0.190000000000000030,59.087663348148680598
0.191000000000000031,58.025885002899727283
0.192000000000000032,56.965218950457298774
0.193000000000000033,55.905767446956971867
0.194000000000000034,54.847946977286497372
0.195000000000000034,53.792436343842766178
0.196000000000000035,52.740122366791368336
0.197000000000000036,51.692045729314656910
0.198000000000000037,50.649348994391672818
0.199000000000000038,49.613228339913391096
0.200000000000000039,48.584890120721880180
0.201000000000000040,47.565512978108102971
0.202000000000000041,46.556215883583526249
0.203000000000000042,45.558032225107680802
0.204000000000000042,44.571889818652486781
0.205000000000000043,43.598596552522849379
0.206000000000000044,42.638831241599646660
0.207000000000000045,41.693139178375297149
0.208000000000000046,40.761931811795960812
0.209000000000000047,39.845489958031144795
0.210000000000000048,38.943969944116339832
0.211000000000000049,38.057412101091365741
0.212000000000000050,37.185751053377956055
0.213000000000000050,36.328827291814164369
0.214000000000000051,35.486399565610085460
0.215000000000000052,34.658157680653317811
0.216000000000000053,33.843735345699613504
0.217000000000000054,33.042722762112752832
0.218000000000000055,32.254678705457806132
0.219000000000000056,31.479141897254056204
0.220000000000000057,30.715641511721734958
0.221000000000000058,29.963706704852615559
0.222000000000000058,29.222875091252653590
0.223000000000000059,28.492700127802784493
0.224000000000000060,27.772757392252970021
0.225000000000000061,27.062649769525894072
0.226000000000000062,26.362011578961801916
0.227000000000000063,25.670511692257178993
0.228000000000000064,24.987855704749687646
0.229000000000000065,24.313787232320088094
0.230000000000000066,23.648088412873939035
0.231000000000000066,22.990579695482292522
0.232000000000000067,22.341119002152204587
0.233000000000000068,21.699600347192880889
0.234000000000000069,21.065951997557192499
0.235000000000000070,20.440134254659636071
0.236000000000000071,19.822136934266985975
0.237000000000000072,19.211976616364001558
0.238000000000000073,18.609693731629150193
0.239000000000000073,18.015349545500633610
0.240000000000000074,17.429023094931409332
0.241000000000000075,16.850808126966246192
0.242000000000000076,16.280810082337843880
0.243000000000000077,15.719143161469498082
0.244000000000000078,15.165927504668882619
0.245000000000000079,14.621286512959750681
0.246000000000000080,14.085344330975612337
0.247000000000000081,13.558223508661447099
0.248000000000000081,13.040042854222573254
0.249000000000000082,12.530915486833773542
0.250000000000000111,12.030947094081218651
0.251000000000000112,11.540234395953763880
0.252000000000000113,11.058863814417103200
0.253000000000000114,10.586910345186065996
0.254000000000000115,10.124436626234846415
0.255000000000000115,9.671492195838059303
0.256000000000000116,9.228112931492830739
0.257000000000000117,8.794320659912470362
0.258000000000000118,8.370122927383357947
0.259000000000000119,7.955512919113177261
0.260000000000000120,7.550469515748831739
0.261000000000000121,7.154957474983808297
0.262000000000000122,6.768927726083785679
0.263000000000000123,6.392317765216958492
0.264000000000000123,6.025052139660100892
0.265000000000000124,5.667043009245366747
0.266000000000000125,5.318190773798173510
0.267000000000000126,4.978384755777170767
0.268000000000000127,4.647503927848280370
0.269000000000000128,4.325417675693410402
0.270000000000000129,4.011986586957474010
0.271000000000000130,3.707063257864204875
0.272000000000000131,3.410493109673208956
0.273000000000000131,3.122115207797355296
0.274000000000000132,2.841763077045516450
0.275000000000000133,2.569265507092759471
0.276000000000000134,2.304447342903772178
0.277000000000000135,2.047130255441437896
0.278000000000000136,1.797133488575278104
0.279000000000000137,1.554274578663470852
0.280000000000000138,1.318370043813316794
0.281000000000000139,1.089236040326388988
0.282000000000000139,0.866688984306341892
0.283000000000000140,0.650546136847015122
0.284000000000000141,0.440626151626889340
0.285000000000000142,0.236749584112312617
0.286000000000000143,0.038739361916993162
0.287000000000000144,-0.153578783820410514
0.288000000000000145,-0.340375925895318621
0.289000000000000146,-0.521819586931981383
0.290000000000000147,-0.698073423087090972
0.291000000000000147,-0.869296944734871291
0.292000000000000148,-1.035645273132341337
0.293000000000000149,-1.197268931912786494
0.294000000000000150,-1.354313672128207413
0.295000000000000151,-1.506920329455120999
0.296000000000000152,-1.655224712091551087
0.297000000000000153,-1.799357517804923035
0.298000000000000154,-1.939444278539300015
0.299000000000000155,-2.075605330954625849
0.300000000000000155,-2.207955811248987210
0.301000000000000156,-2.336605672605987394
0.302000000000000157,-2.461659723612239947
0.303000000000000158,-2.583217686002678981
0.304000000000000159,-2.701374270113872988
0.305000000000000160,-2.816219266455511239
0.306000000000000161,-2.927837651847647216
0.307000000000000162,-3.036309708614694181
0.308000000000000163,-3.141711155375485287
0.309000000000000163,-3.244113288021706065
0.310000000000000164,-3.343583129533428178
0.311000000000000165,-3.440183587339517235
0.312000000000000166,-3.533973616992325706
0.313000000000000167,-3.625008390988825546
0.314000000000000168,-3.713339471634484745
0.315000000000000169,-3.799014986910596470
0.316000000000000170,-3.882079808370548335
0.317000000000000171,-3.962575730154605402
0.318000000000000171,-4.040541648276502862
0.319000000000000172,-4.116013739397962112
0.320000000000000173,-4.189025638368375937
0.321000000000000174,-4.259608613866996407
0.322000000000000175,-4.327791741543274284
0.323000000000000176,-4.393602074107227473
0.324000000000000177,-4.457064807876326640
0.325000000000000178,-4.518203445337381829
0.326000000000000179,-4.577039953332532107
0.327000000000000179,-4.633594916525709984
0.328000000000000180,-4.687887685851890751
0.329000000000000181,-4.739936521694622762
0.330000000000000182,-4.789758731577909323
0.331000000000000183,-4.837370802197460407
0.332000000000000184,-4.882788525652159706
0.333000000000000185,-4.926027119770692408
0.334000000000000186,-4.967101342459853797
0.335000000000000187,-5.006025600030450384
0.336000000000000187,-5.042814049484101169
0.337000000000000188,-5.077480694769065828
0.338000000000000189,-5.110039477036788291
0.339000000000000190,-5.140504358951697661
0.340000000000000191,-5.168889403126021520
0.341000000000000192,-5.195208844769114265
0.342000000000000193,-5.219477158656131266
0.343000000000000194,-5.241709120535293920
0.344000000000000195,-5.261919863104997930
0.345000000000000195,-5.280124926703531507
0.346000000000000196,-5.296340304863200288
0.347000000000000197,-5.310582484889178723
0.348000000000000198,-5.322868483630275094
0.349000000000000199,-5.333215878614467442
0.350000000000000200,-5.341642834726897604
0.351000000000000201,-5.348168126611449580
0.352000000000000202,-5.352811156979798035
0.353000000000000203,-5.355591971013581087
0.354000000000000203,-5.356531267046319655
0.355000000000000204,-5.355650403711678997
0.356000000000000205,-5.352971403744476220
0.357000000000000206,-5.348516954619526587
0.358000000000000207,-5.342310406211489671
0.359000000000000208,-5.334375765657037860
0.360000000000000209,-5.324737689597570878
0.361000000000000210,-5.313421473977697040
0.362000000000000210,-5.300453041571167034
0.363000000000000211,-5.285858927401966056
0.364000000000000212,-5.269666262224320441
0.365000000000000213,-5.251902754220648006
0.366000000000000214,-5.232596669072163920
0.367000000000000215,-5.211776808551744189
0.368000000000000216,-5.189472487783971744
0.369000000000000217,-5.165713511311890827
0.370000000000000218,-5.140530148105135311
0.371000000000000218,-5.113953105638485042
0.372000000000000219,-5.086013503164999783
0.373000000000000220,-5.056742844302258177
0.374000000000000221,-5.026172989045091910
0.375000000000000222,-4.994336125312745622
0.376000000000000223,-4.961264740133386475
0.377000000000000224,-4.926991590563390311
0.378000000000000225,-4.891549674433836259
0.379000000000000226,-4.854972201011525712
0.380000000000000226,-4.817292561656939753
0.381000000000000227,-4.778544300556391455
0.382000000000000228,-4.738761085601209011
0.383000000000000229,-4.697976679481832285
0.384000000000000230,-4.656224911060150795
0.385000000000000231,-4.613539647079248240
0.386000000000000232,-4.569954764265014013
0.387000000000000233,-4.525504121870284280
0.388000000000000234,-4.480221534707789388
0.389000000000000234,-4.434140746714654746
0.390000000000000235,-4.387295405087064282
0.391000000000000236,-4.339719035020405791
0.392000000000000237,-4.291445015086450709
0.393000000000000238,-4.242506553276080616
0.394000000000000239,-4.192936663732553804
0.395000000000000240,-4.142768144197536806
0.396000000000000241,-4.092033554189066891
0.397000000000000242,-4.040765193927742693
0.398000000000000242,-3.988995084025086069
0.399000000000000243,-3.936754945945167172
0.400000000000000244,-3.884076183248391878
0.401000000000000245,-3.830989863624155056
0.402000000000000246,-3.777526701716729551
0.403000000000000247,-3.723717042746911510
0.404000000000000248,-3.669590846930038452
0.405000000000000249,-3.615177674689190379
0.406000000000000250,-3.560506672660692651
0.407000000000000250,-3.505606560487612544
0.408000000000000251,-3.450505618395335539
0.409000000000000252,-3.395231675542121685
0.410000000000000253,-3.339812099136181267
0.411000000000000254,-3.284273784309714728
0.412000000000000255,-3.228643144739312909
0.413000000000000256,-3.172946104001137080
0.414000000000000257,-3.117208087648326575
0.415000000000000258,-3.061454015997493450
0.416000000000000258,-3.005708297610163005
0.417000000000000259,-2.949994823454596293
0.418000000000000260,-2.894336961732724145
0.419000000000000261,-2.838757553356425767
0.420000000000000262,-2.783278908056975975
0.421000000000000263,-2.727922801111061890
0.422000000000000264,-2.672710470666445293
0.423000000000000265,-2.617662615650002245
0.424000000000000266,-2.562799394240887985
0.425000000000000266,-2.508140422890981824
0.426000000000000267,-2.453704775875108268
0.427000000000000268,-2.399510985353031423
0.428000000000000269,-2.345577041925451134
0.429000000000000270,-2.291920395666153798
0.430000000000000271,-2.238557957612326454
0.431000000000000272,-2.185506101695412262
0.432000000000000273,-2.132780667094696714
0.433000000000000274,-2.080396960996125699
0.434000000000000274,-2.028369761738836541
0.435000000000000275,-1.976713322332259493
0.436000000000000276,-1.925441374326664512
0.437000000000000277,-1.874567132020291238
0.438000000000000278,-1.824103296986516742
0.439000000000000279,-1.774062062904693704
0.440000000000000280,-1.724455120678527020
0.441000000000000281,-1.675293663826236124
0.442000000000000282,-1.626588394127030712
0.443000000000000282,-1.578349527508587924
0.444000000000000283,-1.530586800160808059
0.445000000000000284,-1.483309474861201460
0.446000000000000285,-1.436526347497647738
0.447000000000000286,-1.390245753774851822
0.448000000000000287,-1.344475576090706115
0.449000000000000288,-1.299223250569634835
0.450000000000000289,-1.254495774239901440
0.451000000000000290,-1.210299712342547851
0.452000000000000290,-1.166641205759819666
0.453000000000000291,-1.123525978551309645
0.454000000000000292,-1.080959345586502085
0.455000000000000293,-1.038946220262622511
0.456000000000000294,-0.997491122297199384
0.457000000000000295,-0.956598185585006311
0.458000000000000296,-0.916271166109412283
0.459000000000000297,-0.876513449898612018
0.460000000000000298,-0.837328061017400538
0.461000000000000298,-0.798717669585696122
0.462000000000000299,-0.760684599815177775
0.463000000000000300,-0.723230838055820890
0.464000000000000301,-0.686358040844500250
0.465000000000000302,-0.650067542948082111
0.466000000000000303,-0.614360365393701091
0.467000000000000304,-0.579237223479396435
0.468000000000000305,-0.544698534758474850
0.469000000000000306,-0.510744426991231348
0.470000000000000306,-0.477374746058162103
0.471000000000000307,-0.444589063828784492
0.472000000000000308,-0.412386685980812129
0.473000000000000309,-0.380766659764402715
0.474000000000000310,-0.349727781706722474
0.475000000000000311,-0.319268605252092330
0.476000000000000312,-0.289387448333567554
0.477000000000000313,-0.260082400871622599
0.478000000000000314,-0.231351332196282067
0.479000000000000314,-0.203191898389041198
0.480000000000000315,-0.175601549541140101
0.481000000000000316,-0.148577536925161541
0.482000000000000317,-0.122116920076919835
0.483000000000000318,-0.096216573785004547
0.484000000000000319,-0.070873194985410434
0.485000000000000320,-0.046083309559017502
0.486000000000000321,-0.021843279029735662
0.487000000000000322,0.001850692838559775
0.488000000000000322,0.025002553548121392
0.489000000000000323,0.047616395477905769
0.490000000000000324,0.069696449600174265
0.491000000000000325,0.091247079304262582
0.492000000000000326,0.112272774328692607
0.493000000000000327,0.132778144802484871
0.494000000000000328,0.152767915396531256
0.495000000000000329,0.172246919585667568
0.496000000000000330,0.191220094021977260
0.497000000000000330,0.209692473019705339
0.498000000000000331,0.227669183152132554
0.499000000000000332,0.245155437960467681
0.500000000000000333,0.262156532774895756
0.501000000000000334,0.278677839647726022
0.502000000000000335,0.294724802398431074
0.503000000000000336,0.310302931770375490
0.504000000000000337,0.325417800698889814
0.505000000000000338,0.340075039690243774
0.506000000000000338,0.354280332311012303
0.507000000000000339,0.368039410787273980
0.508000000000000340,0.381358051712953450
0.509000000000000341,0.394242071866558630
0.510000000000000342,0.406697324135568306
0.511000000000000343,0.418729693547566229
0.512000000000000344,0.430345093407224710
0.513000000000000345,0.441549461538151555
0.514000000000000346,0.452348756628573767
0.515000000000000346,0.462748954679811919
0.516000000000000347,0.472756045556405990
0.517000000000000348,0.482376029636700732
0.518000000000000349,0.491614914562786054
0.519000000000000350,0.500478712088453959
0.520000000000000351,0.508973435023974630
0.521000000000000352,0.517105094276366417
0.522000000000000353,0.524879695983836103
0.523000000000000353,0.532303238743068063
0.524000000000000354,0.539381710927937297
0.525000000000000355,0.546121088098308505
0.526000000000000356,0.552527330497488034
0.527000000000000357,0.558606380636870847
0.528000000000000358,0.564364160966437711
0.529000000000000359,0.569806571629507652
0.530000000000000360,0.574939488300438728
0.531000000000000361,0.579768760103675840
0.532000000000000361,0.584300207612772904
0.533000000000000362,0.588539620927812535
0.534000000000000363,0.592492757829834904
0.535000000000000364,0.596165342010713806
0.536000000000000365,0.599563061377034190
0.537000000000000366,0.602691566426465597
0.538000000000000367,0.605556468695189309
0.539000000000000368,0.608163339274813031
0.540000000000000369,0.610517707397420062
0.541000000000000369,0.612625059087166357
0.542000000000000370,0.614490835877050889
0.543000000000000371,0.616120433589367855
0.544000000000000372,0.617519201178384991
0.545000000000000373,0.618692439633844349
0.546000000000000374,0.619645400943852120
0.547000000000000375,0.620383287115730986
0.548000000000000376,0.620911249253434994
0.549000000000000377,0.621234386690162177
0.550000000000000377,0.621357746174779790
0.551000000000000378,0.621286321110671835
0.552000000000000379,0.621025050845724458
0.553000000000000380,0.620578820012049115
0.554000000000000381,0.619952457914194510
0.555000000000000382,0.619150737964484277
0.556000000000000383,0.618178377164265047
0.557000000000000384,0.617040035629725536
0.558000000000000385,0.615740316161113022
0.559000000000000385,0.614283763854044595
0.560000000000000386,0.612674865751764330
0.561000000000000387,0.610918050537094692
0.562000000000000388,0.609017688262949219
0.563000000000000389,0.606978090120205760
0.564000000000000390,0.604803508241842258
0.565000000000000391,0.602498135542172242
0.566000000000000392,0.600066105590114196
0.567000000000000393,0.597511492515366505
0.568000000000000393,0.594838310946470550
0.569000000000000394,0.592050515979667513
0.570000000000000395,0.589152003177563111
0.571000000000000396,0.586146608596564311
0.572000000000000397,0.583038108842083735
0.573000000000000398,0.579830221150606895
0.574000000000000399,0.576526603497563461
0.575000000000000400,0.573130854730189321
0.576000000000000401,0.569646514724366115
0.577000000000000401,0.566077064564582844
0.578000000000000402,0.562425926746146665
0.579000000000000403,0.558696465398789366
0.580000000000000404,0.554891986530777759
0.581000000000000405,0.551015738292779389
0.582000000000000406,0.547070911260619464
0.583000000000000407,0.543060638736166168
0.584000000000000408,0.538987997065585533
0.585000000000000409,0.534856005974193582
0.586000000000000409,0.530667628917177558
0.587000000000000410,0.526425773445477030
0.588000000000000411,0.522133291586126980
0.589000000000000412,0.517792980236352784
0.590000000000000413,0.513407581570800908
0.591000000000000414,0.508979783461204205
0.592000000000000415,0.504512219907879089
0.593000000000000416,0.500007471482431187
0.594000000000000417,0.495468065781067224
0.595000000000000417,0.490896477887911575
0.596000000000000418,0.486295130847798851
0.597000000000000419,0.481666396147932552
0.598000000000000420,0.477012594207915086
0.599000000000000421,0.472335994877600196
0.600000000000000422,0.467638817942259588
0.601000000000000423,0.462923233634576881
0.602000000000000424,0.458191363152976705
0.603000000000000425,0.453445279185811123
0.604000000000000425,0.448687006440977920
0.605000000000000426,0.443918522180507924
0.606000000000000427,0.439141756759662383
0.607000000000000428,0.434358594170231704
0.608000000000000429,0.429570872587443364
0.609000000000000430,0.424780384920339205
0.610000000000000431,0.419988879364982470
0.611000000000000432,0.415198059960320331
0.612000000000000433,0.410409587146281507
0.613000000000000433,0.405625078323711752
0.614000000000000434,0.400846108415910396
0.615000000000000435,0.396074210431391349
0.616000000000000436,0.391310876027558818
