# CNT15-COO--3_CS-16629-AC
# h[nm],U(h)[kJ/mol]
0.200000000000000011,71.149132666627991739
0.201000000000000012,70.923612032631666580
0.202000000000000013,69.708941147261882065
0.203000000000000014,68.071567597982920006
0.204000000000000015,66.325342173825191594
0.205000000000000016,64.625535582618255148
0.206000000000000016,63.032415735527159484
0.207000000000000017,61.553231409323565515
0.208000000000000018,60.169084353692326772
0.209000000000000019,58.851400014308396180
0.210000000000000020,57.571386062323462340
0.211000000000000021,56.304889218299749132
0.212000000000000022,55.034340899345053799
0.213000000000000023,53.748956951571507545
0.214000000000000024,52.443977197057485284
0.215000000000000024,51.119459431302729513
0.216000000000000025,49.778951555043917665
0.217000000000000026,48.428233333130272342
0.218000000000000027,47.074229768831528986
0.219000000000000028,45.724139246693873417
0.220000000000000029,44.384782503010413279
0.221000000000000030,43.062156546614495767
0.222000000000000031,41.761166061159002538
0.223000000000000032,40.485500090939197548
0.224000000000000032,39.237621457173396777
0.225000000000000033,38.018838619447272720
0.226000000000000034,36.829433379559077366
0.227000000000000035,35.668822109950767185
0.228000000000000036,34.535732549377634371
0.229000000000000037,33.428382320560487528
0.230000000000000038,32.344649006242505607
0.231000000000000039,31.282224786221785706
0.232000000000000040,30.238751267647142384
0.233000000000000040,29.211932253925805725
0.234000000000000041,28.199623837798174719
0.235000000000000042,27.199902427727657539
0.236000000000000043,26.211112184572264994
0.237000000000000044,25.231893917865598098
0.238000000000000045,24.261197824545440938
0.239000000000000046,23.298282598747917405
0.240000000000000047,22.342703444092904874
0.241000000000000048,21.394291417954054424
0.242000000000000048,20.453126362410834815
0.243000000000000049,19.519505454935234923
0.244000000000000050,18.593909164115618893
0.245000000000000051,17.676966137979306382
0.246000000000000052,16.769418296927291578
0.247000000000000053,15.872087158782752780
0.248000000000000054,14.985842196104517399
0.249000000000000055,14.111571819633383029
0.250000000000000056,13.250157398679565546
0.251000000000000056,12.402450570223759740
0.252000000000000057,11.569253953268940904
0.253000000000000058,10.751305272580609085
0.254000000000000059,9.949264804902089310
0.255000000000000060,9.163705989217032055
0.256000000000000061,8.395108988644683023
0.257000000000000062,7.643856953017239775
0.258000000000000063,6.910234706030509599
0.259000000000000064,6.194429567080258714
0.260000000000000064,5.496534013613514347
0.261000000000000065,4.816549893298081031
0.262000000000000066,4.154393904963479933
0.263000000000000067,3.509904081687652333
0.264000000000000068,2.882847027352877234
0.265000000000000069,2.272925678398464377
0.266000000000000070,1.679787384441820519
0.267000000000000071,1.103032124149837312
0.268000000000000071,0.542220695587038337
0.269000000000000072,-0.003117257271404472
0.270000000000000073,-0.533475498499112577
0.271000000000000074,-1.049363830711114831
0.272000000000000075,-1.551301178900349464
0.273000000000000076,-2.039809186660154872
0.274000000000000077,-2.515406367646181529
0.275000000000000078,-2.978602840567343701
0.276000000000000079,-3.429895663061586220
0.277000000000000079,-3.869764768482176098
0.278000000000000080,-4.298669499836210051
0.279000000000000081,-4.717045726809405259
0.280000000000000082,-5.125303524887341311
0.281000000000000083,-5.523825389947453424
0.282000000000000084,-5.912964957240857800
0.283000000000000085,-6.293046190302009180
0.284000000000000086,-6.664363002908918254
0.285000000000000087,-7.027179275657791990
0.286000000000000087,-7.381729227913657709
0.287000000000000088,-7.728218105750346290
0.288000000000000089,-8.066823146907275088
0.289000000000000090,-8.397694784679321955
0.290000000000000091,-8.720958053937039267
0.291000000000000092,-9.036714164076428801
0.292000000000000093,-9.345042205549566106
0.293000000000000094,-9.646000958671582026
0.294000000000000095,-9.939630775580047484
0.295000000000000095,-10.225955508493784762
0.296000000000000096,-10.504984459734846070
0.297000000000000097,-10.776714331307209349
0.298000000000000098,-11.041131154134500747
0.299000000000000099,-11.298212179323382287
0.300000000000000100,-11.547927716015079724
0.301000000000000101,-11.790242902499944222
0.302000000000000102,-12.025119399281845034
0.303000000000000103,-12.252516994683716689
0.304000000000000103,-12.472395115370781937
0.305000000000000104,-12.684714235832171170
0.306000000000000105,-12.889437182399939630
0.307000000000000106,-13.086530328795792144
0.308000000000000107,-13.275964681481834617
0.309000000000000108,-13.457716854252785410
0.310000000000000109,-13.631769932548332136
0.311000000000000110,-13.798114228886754873
0.312000000000000111,-13.956747931633756821
0.313000000000000111,-14.107677650023862981
0.314000000000000112,-14.250918858956046265
0.315000000000000113,-14.386496247593800746
0.316000000000000114,-14.514443976220221089
0.317000000000000115,-14.634805846136544005
0.318000000000000116,-14.747635387655165573
0.319000000000000117,-14.852995871431044606
0.320000000000000118,-14.950960248505001715
0.321000000000000119,-15.041611024505609606
0.322000000000000119,-15.125040073477411084
0.323000000000000120,-15.201348396778893601
0.324000000000000121,-15.270645832429659450
0.325000000000000122,-15.333050720185719129
0.326000000000000123,-15.388689527491791864
0.327000000000000124,-15.437696441302687589
0.328000000000000125,-15.480212930587725850
0.329000000000000126,-15.516387284134873781
0.330000000000000127,-15.546374128060387321
0.331000000000000127,-15.570333927206785773
0.332000000000000128,-15.588432474380690351
0.333000000000000129,-15.600840371145206831
0.334000000000000130,-15.607732503640653121
0.335000000000000131,-15.609287516666231710
0.336000000000000132,-15.605687289013479457
0.337000000000000133,-15.597116412804052032
0.338000000000000134,-15.583761679349052542
0.339000000000000135,-15.565811573817086355
0.340000000000000135,-15.543455780774763753
0.341000000000000136,-15.516884702445997490
0.342000000000000137,-15.486288991328072129
0.343000000000000138,-15.451859098601369524
0.344000000000000139,-15.413784839578514863
0.345000000000000140,-15.372254977256147868
0.346000000000000141,-15.327456824859808648
0.347000000000000142,-15.279575868109329662
0.348000000000000143,-15.228795407779330162
0.349000000000000143,-15.175296222985338090
0.350000000000000144,-15.119256255493075614
0.351000000000000145,-15.060850315223962781
0.352000000000000146,-15.000249807015572756
0.353000000000000147,-14.937622478590341757
0.354000000000000148,-14.873132189589487240
0.355000000000000149,-14.806938701441458406
0.356000000000000150,-14.739197487754960747
0.357000000000000151,-14.670059564855284506
0.358000000000000151,-14.599671342019428621
0.359000000000000152,-14.528174490908828176
0.360000000000000153,-14.455705833649949099
0.361000000000000154,-14.382397248969869707
0.362000000000000155,-14.308375595757926391
0.363000000000000156,-14.233762653394009590
0.364000000000000157,-14.158675078158799110
0.365000000000000158,-14.083224375021973884
0.366000000000000159,-14.007516884088630604
0.367000000000000159,-13.931653780973974222
0.368000000000000160,-13.855731090369747704
0.369000000000000161,-13.779839712062681656
0.370000000000000162,-13.704065458666388366
0.371000000000000163,-13.628489104331524828
0.372000000000000164,-13.553186443705772746
0.373000000000000165,-13.478228360424537868
0.374000000000000166,-13.403680904424524201
0.375000000000000167,-13.329605377386013032
0.376000000000000167,-13.256058425625132813
0.377000000000000168,-13.183092139774226226
0.378000000000000169,-13.110754160606779450
0.379000000000000170,-13.039087790383083743
0.380000000000000171,-12.968132109113060579
0.381000000000000172,-12.897922095154262578
0.382000000000000173,-12.828488749584858297
0.383000000000000174,-12.759859223814213891
0.384000000000000175,-12.692056949916247888
0.385000000000000175,-12.625101773194195687
0.386000000000000176,-12.559010086508482829
0.387000000000000177,-12.493794965922793594
0.388000000000000178,-12.429466307246732626
0.389000000000000179,-12.366030963076356741
0.390000000000000180,-12.303492879956943185
0.391000000000000181,-12.241853235314641424
0.392000000000000182,-12.181110573826021692
0.393000000000000183,-12.121260942916100234
0.394000000000000183,-12.062298027096748143
0.395000000000000184,-12.004213280878165193
0.396000000000000185,-11.946996060006132012
0.397000000000000186,-11.890633750797439561
0.398000000000000187,-11.835111897364857469
0.399000000000000188,-11.780414326541309933
0.400000000000000189,-11.726523270330536874
0.401000000000000190,-11.673419485728668832
0.402000000000000191,-11.621082371777383457
0.403000000000000191,-11.569490083724947027
0.404000000000000192,-11.518619644186474105
0.405000000000000193,-11.468447051209036402
0.406000000000000194,-11.418947383160718445
0.407000000000000195,-11.370094900375899982
0.408000000000000196,-11.321863143501062154
0.409000000000000197,-11.274225028497111722
0.410000000000000198,-11.227152938265390958
0.411000000000000199,-11.180618810874358715
0.412000000000000199,-11.134594224374243510
0.413000000000000200,-11.089050478195645155
0.414000000000000201,-11.043958671136756777
0.415000000000000202,-10.999289775951721637
0.416000000000000203,-10.955014710560194047
0.417000000000000204,-10.911104405904792358
0.418000000000000205,-10.867529870489697430
0.419000000000000206,-10.824262251639286347
0.420000000000000207,-10.781272893521105516
0.421000000000000207,-10.738533391982542753
0.422000000000000208,-10.696015646254554810
0.423000000000000209,-10.653691907580448373
0.424000000000000210,-10.611534824830721746
0.425000000000000211,-10.569517487168557324
0.426000000000000212,-10.527613463833393581
0.427000000000000213,-10.485796841112231093
0.428000000000000214,-10.444042256570909899
0.429000000000000214,-10.402324930619062826
0.430000000000000215,-10.360620695484243470
0.431000000000000216,-10.318906021671988782
0.432000000000000217,-10.277158041989409298
0.433000000000000218,-10.235354573210830864
0.434000000000000219,-10.193474135464537511
0.435000000000000220,-10.151495969419862320
0.436000000000000221,-10.109400051354004546
0.437000000000000222,-10.067167106177949520
0.438000000000000222,-10.024778618500517879
0.439000000000000223,-9.982216841809144370
0.440000000000000224,-9.939464805845423356
0.441000000000000225,-9.896506322252729859
0.442000000000000226,-9.853325988572418481
0.443000000000000227,-9.809909190663978151
0.444000000000000228,-9.766242103623691051
0.445000000000000229,-9.722311691274914125
0.446000000000000230,-9.678105704302016221
0.447000000000000230,-9.633612677098566834
0.448000000000000231,-9.588821923399088121
0.449000000000000232,-9.543723530761926810
0.450000000000000233,-9.498308353969703077
0.451000000000000234,-9.452568007411766615
0.452000000000000235,-9.406494856511859126
0.453000000000000236,-9.360082008262184061
0.454000000000000237,-9.313323300923809001
0.455000000000000238,-9.266213292951146485
0.456000000000000238,-9.218747251197065395
0.457000000000000239,-9.170921138452916566
0.458000000000000240,-9.122731600376607020
0.459000000000000241,-9.074175951859491107
0.460000000000000242,-9.025252162881695739
0.461000000000000243,-8.975958843903336870
0.462000000000000244,-8.926295230837698824
0.463000000000000245,-8.876261169650284444
0.464000000000000246,-8.825857100626601337
0.465000000000000246,-8.775084042349204694
0.466000000000000247,-8.723943575423358965
0.467000000000000248,-8.672437825988685844
0.468000000000000249,-8.620569449052904787
0.469000000000000250,-8.568341611681844938
0.470000000000000251,-8.515757976078603519
0.471000000000000252,-8.462822682583027500
0.472000000000000253,-8.409540332621407543
0.473000000000000254,-8.355915971634519934
0.474000000000000254,-8.301955072011004688
0.475000000000000255,-8.247663516051465749
0.476000000000000256,-8.193047578987423307
0.477000000000000257,-8.138113912077937329
0.478000000000000258,-8.082869525805241651
0.479000000000000259,-8.027321773189783016
0.480000000000000260,-7.971478333243537051
0.481000000000000261,-7.915347194579426926
0.482000000000000262,-7.858936639193554008
0.483000000000000262,-7.802255226435771185
0.484000000000000263,-7.745311777182988244
0.485000000000000264,-7.688115358228768237
0.486000000000000265,-7.630675266901539189
0.487000000000000266,-7.573001015922848467
0.488000000000000267,-7.515102318516253099
0.489000000000000268,-7.456989073776417065
0.490000000000000269,-7.398671352307095717
0.491000000000000270,-7.340159382136043575
0.492000000000000270,-7.281463534913783064
0.493000000000000271,-7.222594312402731198
0.494000000000000272,-7.163562333262191828
0.495000000000000273,-7.104378320134083324
0.496000000000000274,-7.045053087033738670
0.497000000000000275,-6.985597527049220545
0.498000000000000276,-6.926022600352199632
0.499000000000000277,-6.866339322522742705
0.500000000000000222,-6.806558753189801969
0.501000000000000334,-6.746691984988748558
0.502000000000000224,-6.686750132836701610
0.503000000000000336,-6.626744323525886493
0.504000000000000226,-6.566685685635077263
0.505000000000000338,-6.506585339758229836
0.506000000000000227,-6.446454389049707245
0.507000000000000339,-6.386303910084333957
0.508000000000000229,-6.326144944030935413
0.509000000000000341,-6.265988488136921220
0.510000000000000231,-6.205845487521985504
0.511000000000000343,-6.145726827277735893
0.512000000000000233,-6.085643324870790849
0.513000000000000345,-6.025605722845712720
0.514000000000000234,-5.965624681824765574
0.515000000000000346,-5.905710773800305624
0.516000000000000236,-5.845874475716502872
0.517000000000000348,-5.786126163335788775
0.518000000000000238,-5.726476105386260507
0.519000000000000350,-5.666934457985249196
0.520000000000000240,-5.607511259334800435
0.521000000000000352,-5.548216424684242476
0.522000000000000242,-5.489059741555134764
0.523000000000000353,-5.430050865223575940
0.524000000000000243,-5.371199314455088469
0.525000000000000355,-5.312514467486775693
0.526000000000000245,-5.254005558251878760
0.527000000000000357,-5.195681672841204524
0.528000000000000247,-5.137551746196558966
0.529000000000000359,-5.079624559030543551
0.530000000000000249,-5.021908734967677645
0.531000000000000361,-4.964412737901263029
0.532000000000000250,-4.907144869560903011
0.533000000000000362,-4.850113267285006913
0.534000000000000252,-4.793325901993221727
0.535000000000000364,-4.736790576353155480
0.536000000000000254,-4.680514923136367855
0.537000000000000366,-4.624506403757872697
0.538000000000000256,-4.568772306994418386
0.539000000000000368,-4.513319747875669918
0.540000000000000258,-4.458155666743667922
0.541000000000000369,-4.403286828474790582
0.542000000000000259,-4.348719821859647894
0.543000000000000371,-4.294461059135302960
0.544000000000000261,-4.240516775665183147
0.545000000000000373,-4.186893029761405316
0.546000000000000263,-4.133595702644892178
0.547000000000000375,-4.080630498537969331
0.548000000000000265,-4.028002944885296088
0.549000000000000377,-3.975718392697680237
0.550000000000000266,-3.923782017014776358
0.551000000000000378,-3.872198817481590449
0.552000000000000268,-3.820973619034616409
0.553000000000000380,-3.770111072692959198
0.554000000000000270,-3.719615656450285801
0.555000000000000382,-3.669491676263082702
0.556000000000000272,-3.619743267131355857
0.557000000000000384,-3.570374394267275875
0.558000000000000274,-3.521388854348158848
0.559000000000000385,-3.472790276849401003
0.560000000000000275,-3.424582125453941472
0.561000000000000387,-3.376767699534077849
0.562000000000000277,-3.329350135702258573
0.563000000000000389,-3.282332409426999220
0.564000000000000279,-3.235717336710595582
0.565000000000000391,-3.189507575825019536
0.566000000000000281,-3.143705629102790944
0.567000000000000393,-3.098313844779399862
0.568000000000000282,-3.053334418884287693
0.569000000000000394,-3.008769397176993987
0.570000000000000284,-2.964620677125814563
0.571000000000000396,-2.920890009925613651
0.572000000000000286,-2.877579002552358656
0.573000000000000398,-2.834689119851165007
0.574000000000000288,-2.792221686655532498
0.575000000000000400,-2.750177889934875441
0.576000000000000290,-2.708558780967984081
0.577000000000000401,-2.667365277539798463
0.578000000000000291,-2.626598166159267222
0.579000000000000403,-2.586258104295794613
0.580000000000000293,-2.546345622632247174
0.581000000000000405,-2.506861127332081995
0.582000000000000295,-2.467804902318835314
0.583000000000000407,-2.429177111565585356
0.584000000000000297,-2.390977801392758284
0.585000000000000409,-2.353206902772124298
0.586000000000000298,-2.315864233635417602
0.587000000000000410,-2.278949501185542736
0.588000000000000300,-2.242462304208987511
0.589000000000000412,-2.206402135387517394
0.590000000000000302,-2.170768383607840413
0.591000000000000414,-2.135560336267574577
0.592000000000000304,-2.100777181576186869
0.593000000000000416,-2.066418010849392584
0.594000000000000306,-2.032481820795874583
0.595000000000000417,-1.998967515794852545
0.596000000000000307,-1.965873910163454585
0.597000000000000419,-1.933199730412610950
0.598000000000000309,-1.900943617490467918
0.599000000000000421,-1.869104129012146176
0.600000000000000311,-1.837679741474983697
0.601000000000000423,-1.806668852458117369
0.602000000000000313,-1.776069782805753672
0.603000000000000425,-1.745880778792912480
0.604000000000000314,-1.716100014273255425
0.605000000000000426,-1.686725592807768903
0.606000000000000316,-1.657755549773991977
0.607000000000000428,-1.629187854454738682
0.608000000000000318,-1.601020412105973234
0.609000000000000430,-1.573251066002951060
0.610000000000000320,-1.545877599464310581
0.611000000000000432,-1.518897737853337704
0.612000000000000322,-1.492309150556132780
0.613000000000000433,-1.466109452936007473
0.614000000000000323,-1.440296208263857292
0.615000000000000435,-1.414866929623975089
0.616000000000000325,-1.389819081795043321
0.617000000000000437,-1.365150083105881595
0.618000000000000327,-1.340857307265740817
0.619000000000000439,-1.316938085168744665
0.620000000000000329,-1.293389706672364081
0.621000000000000441,-1.270209422349597883
0.622000000000000330,-1.247394445214731862
0.623000000000000442,-1.224941952422428537
0.624000000000000332,-1.202849086940118717
0.625000000000000444,-1.181112959193435952
0.626000000000000334,-1.159730648684713206
0.627000000000000446,-1.138699205584364771
0.628000000000000336,-1.118015652295175189
0.629000000000000448,-1.097676984989381932
0.630000000000000338,-1.077680175118636452
0.631000000000000449,-1.058022170896692593
0.632000000000000339,-1.038699898755001350
0.633000000000000451,-1.019710264771120256
0.634000000000000341,-1.001050156070077524
0.635000000000000453,-0.982716442198680040
0.636000000000000343,-0.964705976472914672
0.637000000000000455,-0.947015597298482725
0.638000000000000345,-0.929642129464646194
0.639000000000000457,-0.912582385411389807
0.640000000000000346,-0.895833166470198172
0.641000000000000458,-0.879391264078421608
0.642000000000000348,-0.863253460967540187
0.643000000000000460,-0.847416532325359961
0.644000000000000350,-0.831877246932460346
0.645000000000000462,-0.816632368272930398
0.646000000000000352,-0.801678655619742386
0.647000000000000464,-0.787012865094808722
0.648000000000000353,-0.772631750704132036
0.649000000000000465,-0.758532065348036744
0.650000000000000355,-0.744710561806957161
0.651000000000000467,-0.731163993702793058
0.652000000000000357,-0.717889116436258856
0.653000000000000469,-0.704882688100332944
0.654000000000000359,-0.692141470370185252
0.655000000000000471,-0.679662229369708326
0.656000000000000361,-0.667441736515068440
0.657000000000000473,-0.655476769335381126
0.658000000000000362,-0.643764112270947764
0.659000000000000474,-0.632300557449173906
0.660000000000000364,-0.621082905438600896
