# CNT15-COO--3_CS-12814-AC
# h[nm],U(h)[kJ/mol]
0.149999999999999994,154.404622644041552348
0.150999999999999995,152.603905096825826604
0.151999999999999996,150.474120356835101120
0.152999999999999997,148.267825837622211793
0.153999999999999998,146.083891212602679843
0.154999999999999999,143.947709963617000994
0.156000000000000000,141.854597590678281449
0.157000000000000001,139.791580400965045783
0.158000000000000002,137.747015015297535001
0.159000000000000002,135.713754249086122172
0.160000000000000003,133.689207098601258394
0.161000000000000004,131.674165205709982729
0.162000000000000005,129.671372448571048608
0.163000000000000006,127.684289016680509121
0.164000000000000007,125.716208090910043893
0.165000000000000008,123.769731665651846697
0.166000000000000009,121.846543974043854064
0.167000000000000010,119.947399721728103827
0.168000000000000010,118.072247324098412946
0.169000000000000011,116.220421145874865942
0.170000000000000012,114.390853749149371765
0.171000000000000013,112.582275373430917398
0.172000000000000014,110.793381484190561537
0.173000000000000015,109.022959674902153893
0.174000000000000016,107.269974604677400976
0.175000000000000017,105.533614430332448819
0.176000000000000018,103.813304888585975050
0.177000000000000018,102.108698335967616799
0.178000000000000019,100.419645133133329296
0.179000000000000020,98.746154153781404261
0.180000000000000021,97.088348205773513655
0.181000000000000022,95.446418992957916316
0.182000000000000023,93.820585072511988756
0.183000000000000024,92.211055172066039631
0.184000000000000025,90.617998279655623151
0.185000000000000026,89.041521133551185585
0.186000000000000026,87.481653122988575433
0.187000000000000027,85.938338155738023261
0.188000000000000028,84.411432737046808938
0.189000000000000029,82.900709315401016397
0.190000000000000030,81.405863861157214956
0.191000000000000031,79.926526632459896859
0.192000000000000032,78.462275128920936140
0.193000000000000033,77.012648319736797475
0.194000000000000034,75.577161344491145201
0.195000000000000034,74.155320009836117379
0.196000000000000035,72.746634534182334164
0.197000000000000036,71.350632118413045646
0.198000000000000037,69.966868038455615419
0.199000000000000038,68.594935061975206736
0.200000000000000039,67.234471084567829280
0.201000000000000040,65.885164959769852544
0.202000000000000041,64.546760561950392798
0.203000000000000042,63.219059172293995630
0.204000000000000042,61.901920316611004580
0.205000000000000043,60.595261210899977300
0.206000000000000044,59.299054987826636420
0.207000000000000045,58.013327886039256498
0.208000000000000046,56.738155585935956537
0.209000000000000047,55.473658871495672429
0.210000000000000048,54.219998789336365519
0.211000000000000049,52.977371464399404033
0.212000000000000050,51.746002717566241813
0.213000000000000050,50.526142614952462395
0.214000000000000051,49.318060062305917768
0.215000000000000052,48.122037541456144538
0.216000000000000053,46.938366069592348140
0.217000000000000054,45.767340446653875574
0.218000000000000055,44.609254841574184525
0.219000000000000056,43.464398754721351281
0.220000000000000057,42.333053381742189458
0.221000000000000058,41.215488393220255148
0.222000000000000058,40.111959135104164886
0.223000000000000059,39.022704246748766366
0.224000000000000060,37.947943686576586231
0.225000000000000061,36.887877149749876082
0.226000000000000062,35.842682857753636938
0.227000000000000063,34.812516696335940480
0.228000000000000064,33.797511675729694502
0.229000000000000065,32.797777685386947155
0.230000000000000066,31.813401514493172328
0.231000000000000066,30.844447109190532785
0.232000000000000067,29.890956037636083664
0.233000000000000068,28.952948134660637436
0.234000000000000069,28.030422298796800362
0.235000000000000070,27.123357415734620446
0.236000000000000071,26.231713383773914927
0.237000000000000072,25.355432218511332110
0.238000000000000073,24.494439215778438523
0.239000000000000073,23.648644153686849023
0.240000000000000074,22.817942516496295013
0.241000000000000075,22.002216724874731568
0.242000000000000076,21.201337358932224930
0.243000000000000077,20.415164362164315293
0.244000000000000078,19.643548216117409311
0.245000000000000079,18.886331077173899473
0.246000000000000080,18.143347868341386686
0.247000000000000081,17.414427320307321878
0.248000000000000081,16.699392957289017403
0.249000000000000082,15.998064024364117230
0.250000000000000111,15.310256354009698754
0.251000000000000112,14.635783170512286944
0.252000000000000113,13.974455831736801059
0.253000000000000114,13.326084508469083545
0.254000000000000115,12.690478802172680872
0.255000000000000115,12.067448302538291927
0.256000000000000116,11.456803086654772983
0.257000000000000117,10.858354162003044152
0.258000000000000118,10.271913855774817748
0.259000000000000119,9.697296153251638628
0.260000000000000120,9.134316988153795336
0.261000000000000121,8.582794487990522470
0.262000000000000122,8.042549177515155634
0.263000000000000123,7.513404143421555048
0.264000000000000123,6.995185163411987261
0.265000000000000124,6.487720802730942538
0.266000000000000125,5.990842481195371327
0.267000000000000126,5.504384513666273904
0.268000000000000127,5.028184126801299669
0.269000000000000128,4.562081454809165493
0.270000000000000129,4.105919516794984681
0.271000000000000130,3.659544178145085702
0.272000000000000131,3.222804098254217653
0.273000000000000131,2.795550666747069979
0.274000000000000132,2.377637930194518301
0.275000000000000133,1.968922511172298773
0.276000000000000134,1.569263521359063773
0.277000000000000135,1.178522470223366536
0.278000000000000136,0.796563170703944889
0.279000000000000137,0.423251643148640444
0.280000000000000138,0.058456018643515142
0.281000000000000139,-0.297953557265058844
0.282000000000000139,-0.646105019573431694
0.283000000000000140,-0.986124476782270443
0.284000000000000141,-1.318136301157666335
0.285000000000000142,-1.642263215733662518
0.286000000000000143,-1.958626377591826895
0.287000000000000144,-2.267345457039712908
0.288000000000000145,-2.568538712390558310
0.289000000000000146,-2.862323060118229900
0.290000000000000147,-3.148814140228964220
0.291000000000000147,-3.428126376750289861
0.292000000000000148,-3.700373033292289726
0.293000000000000149,-3.965666263683451653
0.294000000000000150,-4.224117157726638538
0.295000000000000151,-4.475835782157458809
0.296000000000000152,-4.720931216920064344
0.297000000000000153,-4.959511586902908498
0.298000000000000154,-5.191684089300895089
0.299000000000000155,-5.417555016789697753
0.300000000000000155,-5.637229776714250740
0.301000000000000156,-5.850812906505685973
0.302000000000000157,-6.058408085551190148
0.303000000000000158,-6.260118143747403607
0.304000000000000159,-6.456045066972865065
0.305000000000000160,-6.646289999716701757
0.306000000000000161,-6.830953245101007099
0.307000000000000162,-7.010134262532693228
0.308000000000000163,-7.183931663217130392
0.309000000000000163,-7.352443203761292345
0.310000000000000164,-7.515765778088495885
0.311000000000000165,-7.673995407879641739
0.312000000000000166,-7.827227231748520531
0.313000000000000167,-7.975555493350116265
0.314000000000000168,-8.119073528612007706
0.315000000000000169,-8.257873752269519585
0.316000000000000170,-8.392047643875777396
0.317000000000000171,-8.521685733447521116
0.318000000000000171,-8.646877586897700141
0.319000000000000172,-8.767711791395907284
0.320000000000000173,-8.884275940787203396
0.321000000000000174,-8.996656621190201264
0.322000000000000175,-9.104939396885338709
0.323000000000000176,-9.209208796594532842
0.324000000000000177,-9.309548300244127716
0.325000000000000178,-9.406040326293590326
0.326000000000000179,-9.498766219703972169
0.327000000000000179,-9.587806240611280728
0.328000000000000180,-9.673239553761799669
0.329000000000000181,-9.755144218758786678
0.330000000000000182,-9.833597181162096135
0.331000000000000183,-9.908674264475838100
0.332000000000000184,-9.980450163051832746
0.333000000000000185,-10.048998435930830198
0.334000000000000186,-10.114391501637388870
0.335000000000000187,-10.176700633938711604
0.336000000000000187,-10.235995958572942754
0.337000000000000188,-10.292346450947082559
0.338000000000000189,-10.345819934800926987
0.339000000000000190,-10.396483081829156703
0.340000000000000191,-10.444401412249629146
0.341000000000000192,-10.489639296303346683
0.342000000000000193,-10.532259956667811451
0.343000000000000194,-10.572325471763306837
0.344000000000000195,-10.609896779928622124
0.345000000000000195,-10.645033684441377986
0.346000000000000196,-10.677794859355385526
0.347000000000000197,-10.708237856126473275
0.348000000000000198,-10.736419110996546777
0.349000000000000199,-10.762393953104435695
0.350000000000000200,-10.786216613291458088
0.351000000000000201,-10.807940233568396948
0.352000000000000202,-10.827616877210441970
0.353000000000000203,-10.845297539446047352
0.354000000000000203,-10.861032158705526740
0.355000000000000204,-10.874869628394899124
0.356000000000000205,-10.886857809160888522
0.357000000000000206,-10.897043541613024686
0.358000000000000207,-10.905472659468767205
0.359000000000000208,-10.912190003088586110
0.360000000000000209,-10.917239433367862844
0.361000000000000210,-10.920663845953399118
0.362000000000000210,-10.922505185752754642
0.363000000000000211,-10.922804461705453605
0.364000000000000212,-10.921601761785961315
0.365000000000000213,-10.918936268208911500
0.366000000000000214,-10.914846272808203409
0.367000000000000215,-10.909369192562254014
0.368000000000000216,-10.902541585238894939
0.369000000000000217,-10.894399165134089458
0.370000000000000218,-10.884976818879879445
0.371000000000000218,-10.874308621297684496
0.372000000000000219,-10.862427851274423674
0.373000000000000220,-10.849367007639695970
0.374000000000000221,-10.835157825023371103
0.375000000000000222,-10.819831289673757624
0.376000000000000223,-10.803417655218037652
0.377000000000000224,-10.785946458346995058
0.378000000000000225,-10.767446534407508096
0.379000000000000226,-10.747946032887073287
0.380000000000000226,-10.727472432775710942
0.381000000000000227,-10.706052557791286617
0.382000000000000228,-10.683712591455552854
0.383000000000000229,-10.660478092008833784
0.384000000000000230,-10.636374007152195276
0.385000000000000231,-10.611424688607081990
0.386000000000000232,-10.585653906482697550
0.387000000000000233,-10.559084863442786073
0.388000000000000234,-10.531740208663721958
0.389000000000000234,-10.503642051577109839
0.390000000000000235,-10.474811975390238672
0.391000000000000236,-10.445271050378909905
0.392000000000000237,-10.415039846947568236
0.393000000000000238,-10.384138448452421954
0.394000000000000239,-10.352586463783699955
0.395000000000000240,-10.320403039704027393
0.396000000000000241,-10.287606872940244784
0.397000000000000242,-10.254216222026549588
0.398000000000000242,-10.220248918897585355
0.399000000000000243,-10.185722380230162187
0.400000000000000244,-10.150653618533166167
0.401000000000000245,-10.115059252985421523
0.402000000000000246,-10.078955520021668946
0.403000000000000247,-10.042358283667297769
0.404000000000000248,-10.005283045622798355
0.405000000000000249,-9.967744955099240300
0.406000000000000250,-9.929758818406286380
0.407000000000000250,-9.891339108294790350
0.408000000000000251,-9.852499973056016103
0.409000000000000252,-9.813255245380023695
0.410000000000000253,-9.773618450975780192
0.411000000000000254,-9.733602816955938763
0.412000000000000255,-9.693221279989298722
0.413000000000000256,-9.652486494224334024
0.414000000000000257,-9.611410838986952143
0.415000000000000258,-9.570006426256359333
0.416000000000000258,-9.528285107922471298
0.417000000000000259,-9.486258482828823446
0.418000000000000260,-9.443937903604854966
0.419000000000000261,-9.401334483291609700
0.420000000000000262,-9.358459101764845300
0.421000000000000263,-9.315322411959916948
0.422000000000000264,-9.271934845902372047
0.423000000000000265,-9.228306620548710981
0.424000000000000266,-9.184447743441610967
0.425000000000000266,-9.140368018183755439
0.426000000000000267,-9.096077049734841324
0.427000000000000268,-9.051584249535899573
0.428000000000000269,-9.006898840465382250
0.429000000000000270,-8.962029861631389593
0.430000000000000271,-8.916986173004222138
0.431000000000000272,-8.871776459893684574
0.432000000000000273,-8.826409237275370856
0.433000000000000274,-8.780892853970170719
0.434000000000000274,-8.735235496681212908
0.435000000000000275,-8.689445193892392894
0.436000000000000276,-8.643529819632664868
0.437000000000000277,-8.597497097110039732
0.438000000000000278,-8.551354602219451095
0.439000000000000279,-8.505109766928342196
0.440000000000000280,-8.458769882543910157
0.441000000000000281,-8.412342102865784099
0.442000000000000282,-8.365833447228052222
0.443000000000000282,-8.319250803434112385
0.444000000000000283,-8.272600930588183132
0.445000000000000284,-8.225890461826917743
0.446000000000000285,-8.179125906954554992
0.447000000000000286,-8.132313654985265927
0.448000000000000287,-8.085459976595638310
0.449000000000000288,-8.038571026490972216
0.450000000000000289,-7.991652845688248519
0.451000000000000290,-7.944711363719028085
0.452000000000000290,-7.897752400755325475
0.453000000000000291,-7.850781669661280660
0.454000000000000292,-7.803804777973684104
0.455000000000000293,-7.756827229813955782
0.456000000000000294,-7.709854427734443405
0.457000000000000295,-7.662891674501642214
0.458000000000000296,-7.615944174818842782
0.459000000000000297,-7.569017036990807412
0.460000000000000298,-7.522115274532756857
0.461000000000000298,-7.475243807726187129
0.462000000000000299,-7.428407465123575193
0.463000000000000300,-7.381610985004347647
0.464000000000000301,-7.334859016784131214
0.465000000000000302,-7.288156122379431778
0.466000000000000303,-7.241506777529610694
0.467000000000000304,-7.194915373078186960
0.468000000000000305,-7.148386216215266487
0.469000000000000306,-7.101923531682857060
0.470000000000000306,-7.055531462944925281
0.471000000000000307,-7.009214073323617455
0.472000000000000308,-6.962975347103517620
0.473000000000000309,-6.916819190605259848
0.474000000000000310,-6.870749433230105119
0.475000000000000311,-6.824769828476815015
0.476000000000000312,-6.778884054932319714
0.477000000000000313,-6.733095717237318922
0.478000000000000314,-6.687408347028172884
0.479000000000000314,-6.641825403856353560
0.480000000000000315,-6.596350276086407227
0.481000000000000316,-6.550986281773790942
0.482000000000000317,-6.505736669523403570
0.483000000000000318,-6.460604619329989973
0.484000000000000319,-6.415593243401292334
0.485000000000000320,-6.370705586964925615
0.486000000000000321,-6.325944629059813806
0.487000000000000322,-6.281313283313069817
0.488000000000000322,-6.236814398703015350
0.489000000000000323,-6.192450760309289315
0.490000000000000324,-6.148225090050574160
0.491000000000000325,-6.104140047410742120
0.492000000000000326,-6.060198230153994281
0.493000000000000327,-6.016402175029714527
0.494000000000000328,-5.972754358467502911
0.495000000000000329,-5.929257197263062551
0.496000000000000330,-5.885913049255317553
0.497000000000000330,-5.842724213995455607
0.498000000000000331,-5.799692933408084450
0.499000000000000332,-5.756821392445287344
0.500000000000000333,-5.714111719733682371
0.501000000000000334,-5.671565988215020226
0.502000000000000335,-5.629186215780672242
0.503000000000000336,-5.586974365900363892
0.504000000000000337,-5.544932348245407816
0.505000000000000338,-5.503062019306792507
0.506000000000000338,-5.461365183008403790
0.507000000000000339,-5.419843591315594011
0.508000000000000340,-5.378498944839352980
0.509000000000000341,-5.337332893436402159
0.510000000000000342,-5.296347036805218345
0.511000000000000343,-5.255542925078371397
0.512000000000000344,-5.214922059411226662
0.513000000000000345,-5.174485892567212808
0.514000000000000346,-5.134235829499852244
0.515000000000000346,-5.094173227931564796
0.516000000000000347,-5.054299398929451570
0.517000000000000348,-5.014615607478214443
0.518000000000000349,-4.975123073050132128
0.519000000000000350,-4.935822970172398350
0.520000000000000351,-4.896716428991678249
0.521000000000000352,-4.857804535836169890
0.522000000000000353,-4.819088333775046529
0.523000000000000353,-4.780568823175377347
0.524000000000000354,-4.742246962256682963
0.525000000000000355,-4.704123667642964968
0.526000000000000356,-4.666199814912362243
0.527000000000000357,-4.628476239144481141
0.528000000000000358,-4.590953735465239660
0.529000000000000359,-4.553633059589481391
0.530000000000000360,-4.516514928361106129
0.531000000000000361,-4.479600020290930296
0.532000000000000361,-4.442888976092108422
0.533000000000000362,-4.406382399213208956
0.534000000000000363,-4.370080856368863564
0.535000000000000364,-4.333984878068018354
0.536000000000000365,-4.298094959139708848
0.537000000000000366,-4.262411559256412019
0.538000000000000367,-4.226935103454814602
0.539000000000000368,-4.191665982654170008
0.540000000000000369,-4.156604554171951627
0.541000000000000369,-4.121751142237035204
0.542000000000000370,-4.087106038500142979
0.543000000000000371,-4.052669502541652591
0.544000000000000372,-4.018441762376692594
0.545000000000000373,-3.984423014957462872
0.546000000000000374,-3.950613426672748396
0.547000000000000375,-3.917013133844583272
0.548000000000000376,-3.883622243222043746
0.549000000000000377,-3.850440832472108443
0.550000000000000377,-3.817468950667489480
0.551000000000000378,-3.784706618771488174
0.552000000000000379,-3.752153830119772771
0.553000000000000380,-3.719810550899020907
0.554000000000000381,-3.687676720622390825
0.555000000000000382,-3.655752252601861763
0.556000000000000383,-3.624037034417201486
0.557000000000000384,-3.592530928381779010
0.558000000000000385,-3.561233772004920528
0.559000000000000385,-3.530145378450964877
0.560000000000000386,-3.499265536994870196
0.561000000000000387,-3.468594013474374460
0.562000000000000388,-3.438130550738617952
0.563000000000000389,-3.407874869093290293
0.564000000000000390,-3.377826666742142603
0.565000000000000391,-3.347985620224915859
0.566000000000000392,-3.318351384851607300
0.567000000000000393,-3.288923595133081079
0.568000000000000393,-3.259701865207926375
0.569000000000000394,-3.230685789265561603
0.570000000000000395,-3.201874941965631827
0.571000000000000396,-3.173268878853483521
0.572000000000000397,-3.144867136771914762
0.573000000000000398,-3.116669234268973465
0.574000000000000399,-3.088674672001941790
0.575000000000000400,-3.060882933137331285
0.576000000000000401,-3.033293483746988706
0.577000000000000401,-3.005905773200260089
0.578000000000000402,-2.978719234552132722
0.579000000000000403,-2.951733284927382517
0.580000000000000404,-2.924947325900769890
0.581000000000000405,-2.898360743873126921
0.582000000000000406,-2.871972910443466365
0.583000000000000407,-2.845783182776973508
0.584000000000000408,-2.819790903968994122
0.585000000000000409,-2.793995403404895939
0.586000000000000409,-2.768395997115852047
0.587000000000000410,-2.742991988130562664
0.588000000000000411,-2.717782666822813553
0.589000000000000412,-2.692767311255006568
0.590000000000000413,-2.667945187517505978
0.591000000000000414,-2.643315550063905839
0.592000000000000415,-2.618877642042219733
0.593000000000000416,-2.594630695621887639
0.594000000000000417,-2.570573932316687404
0.595000000000000417,-2.546706563303634319
0.596000000000000418,-2.523027789737593896
0.597000000000000419,-2.499536803061989776
0.598000000000000420,-2.476232785315255036
0.599000000000000421,-2.453114909433309343
0.600000000000000422,-2.430182339547898529
0.601000000000000423,-2.407434231280878745
0.602000000000000424,-2.384869732034450962
0.603000000000000425,-2.362487981277341387
0.604000000000000425,-2.340288110826942436
0.605000000000000426,-2.318269245127425826
0.606000000000000427,-2.296430501523915257
0.607000000000000428,-2.274770990532508641
0.608000000000000429,-2.253289816106552212
0.609000000000000430,-2.231986075898713118
0.610000000000000431,-2.210858861519324314
0.611000000000000432,-2.189907258790673161
