# CNT15-COO--3_BSAI19
# h[nm],U(h)[kJ/mol]
0.149999999999999994,116.827120807694839755
0.150999999999999995,116.746985619220779995
0.151999999999999996,114.183271345660500629
0.152999999999999997,111.161502951602415123
0.153999999999999998,108.412964655286913285
0.154999999999999999,106.064886558656922944
0.156000000000000000,104.011452344386228219
0.157000000000000001,102.097503768603530716
0.158000000000000002,100.196979895891246315
0.159000000000000002,98.235842013925889660
0.160000000000000003,96.188653544326399469
0.161000000000000004,94.065125855491373841
0.162000000000000005,91.895112879810611162
0.163000000000000006,89.715934664073500926
0.164000000000000007,87.563334653422217002
0.165000000000000008,85.466042589598458790
0.166000000000000009,83.443317562773401619
0.167000000000000010,81.504662885060071176
0.168000000000000010,79.650937506106728847
0.169000000000000011,77.876218868583492849
0.170000000000000012,76.169931591668159854
0.171000000000000013,74.518909229486425261
0.172000000000000014,72.909185958205611655
0.173000000000000015,71.327416003697706515
0.174000000000000016,69.761891636094603086
0.175000000000000017,68.203179280555701780
0.176000000000000018,66.644422456499995633
0.177000000000000018,65.081374624753124181
0.178000000000000019,63.512228859308741846
0.179000000000000020,61.937308114632152467
0.180000000000000021,60.358672518058014589
0.181000000000000022,58.779690662902211784
0.182000000000000023,57.204611789647493936
0.183000000000000024,55.638166006419282894
0.184000000000000025,54.085210920190590400
0.185000000000000026,52.550435546156109012
0.186000000000000026,51.038126250853757426
0.187000000000000027,49.551994743905794394
0.188000000000000028,48.095064656279667759
0.189000000000000029,46.669610873885488900
0.190000000000000030,45.277144357191296820
0.191000000000000031,43.918434491124379804
0.192000000000000032,42.593560905509406211
0.193000000000000033,41.301987032460019122
0.194000000000000034,40.042648292021354450
0.195000000000000034,38.814048611296982472
0.196000000000000035,37.614359896862865185
0.197000000000000036,36.441520026622363559
0.198000000000000037,35.293325853898373623
0.199000000000000038,34.167518586877555720
0.200000000000000039,33.061859696285814891
0.201000000000000040,31.974196199167700172
0.202000000000000041,30.902514760501965441
0.203000000000000042,29.844984546718968943
0.204000000000000042,28.799989159933126359
0.205000000000000043,27.766148285809851615
0.206000000000000044,26.742329910284091454
0.207000000000000045,25.727654110707039337
0.208000000000000046,24.721489515645068025
0.209000000000000047,23.723443564582815668
0.210000000000000048,22.733347693790783239
0.211000000000000049,21.751238536479483798
0.212000000000000050,20.777336162065314085
0.213000000000000050,19.812020297972232186
0.214000000000000051,18.855805383956333543
0.215000000000000052,17.909315208607353043
0.216000000000000053,16.973257774688402577
0.217000000000000054,16.048400937738030336
0.218000000000000055,15.135549263548593757
0.219000000000000056,14.235522456768052280
0.220000000000000057,13.349135626386038567
0.221000000000000058,12.477181575226651944
0.222000000000000058,11.620415230315995103
0.223000000000000059,10.779540269351979731
0.224000000000000060,9.955197945415442007
0.225000000000000061,9.147958067270653970
0.226000000000000062,8.358312055691126119
0.227000000000000063,7.586667966682367314
0.228000000000000064,6.833347349652792779
0.229000000000000065,6.098583791852947300
0.230000000000000066,5.382522989097635602
0.231000000000000066,4.685224176230025961
0.232000000000000067,4.006662748335889646
0.233000000000000068,3.346733904742481336
0.234000000000000069,2.705257151758380552
0.235000000000000070,2.081981506384901426
0.236000000000000071,1.476591251364360646
0.237000000000000072,0.888712101477537764
0.238000000000000073,0.317917651570505166
0.239000000000000073,-0.236264011969664040
0.240000000000000074,-0.774343642962738388
0.241000000000000075,-1.296864205353897015
0.242000000000000076,-1.804394364628252756
0.243000000000000077,-2.297522172703788890
0.244000000000000078,-2.776849007364527999
0.245000000000000079,-3.242983816911306327
0.246000000000000080,-3.696537710942188859
0.247000000000000081,-4.138118929092374110
0.248000000000000081,-4.568328211200196165
0.249000000000000082,-4.987754584746197040
0.250000000000000111,-5.396971578541593928
0.251000000000000112,-5.796533865513305628
0.252000000000000113,-6.186974332030954926
0.253000000000000114,-6.568801566515936941
0.254000000000000115,-6.942497756039365697
0.255000000000000115,-7.308516976209366689
0.256000000000000116,-7.667283856834602673
0.257000000000000117,-8.019192603583176648
0.258000000000000118,-8.364606354090810214
0.259000000000000119,-8.703856845665942643
0.260000000000000120,-9.037244370846336139
0.261000000000000121,-9.365037996538257303
0.262000000000000122,-9.687476022274967846
0.263000000000000123,-10.004766653223432726
0.264000000000000123,-10.317088863910948149
0.265000000000000124,-10.624593429198766259
0.266000000000000125,-10.927404099765968937
0.267000000000000126,-11.225618900251165044
0.268000000000000127,-11.519311529205518596
0.269000000000000128,-11.808532841109537159
0.270000000000000129,-12.093312391877018896
0.271000000000000130,-12.373660030490219341
0.272000000000000131,-12.649567520661150866
0.273000000000000131,-12.921010177680255282
0.274000000000000132,-13.187948506878743871
0.275000000000000133,-13.450329831384138402
0.276000000000000134,-13.708089898077787439
0.277000000000000135,-13.961154451859147940
0.278000000000000136,-14.209440769478709043
0.279000000000000137,-14.452859145311066413
0.280000000000000138,-14.691314322497920131
0.281000000000000139,-14.924706863895286446
0.282000000000000139,-15.152934458204271095
0.283000000000000140,-15.375893157551606905
0.284000000000000141,-15.593478543612036447
0.285000000000000142,-15.805586820129528647
0.286000000000000143,-16.012115830399196170
0.287000000000000144,-16.212965998916452293
0.288000000000000145,-16.408041196987309007
0.289000000000000146,-16.597249532622868173
0.290000000000000147,-16.780504065517398260
0.291000000000000147,-16.957723448331499583
0.292000000000000148,-17.128832495875492725
0.293000000000000149,-17.293762684112664374
0.294000000000000150,-17.452452581183390379
0.295000000000000151,-17.604848212888725811
0.296000000000000152,-17.750903365271465617
0.297000000000000153,-17.890579827094732934
0.298000000000000154,-18.023847575146312749
0.299000000000000155,-18.150684905394140145
0.300000000000000155,-18.271078513086543182
0.301000000000000156,-18.385023524932652350
0.302000000000000157,-18.492523486517342235
0.303000000000000158,-18.593590308101472175
0.304000000000000159,-18.688244171936435833
0.305000000000000160,-18.776513404182431088
0.306000000000000161,-18.858434314466059334
0.307000000000000162,-18.934051006045173438
0.308000000000000163,-19.003415159470243623
0.309000000000000163,-19.066585792543012445
0.310000000000000164,-19.123628999276931495
0.311000000000000165,-19.174617670459920049
0.312000000000000166,-19.219631198311866171
0.313000000000000167,-19.258755167615944970
0.314000000000000168,-19.292081035586697624
0.315000000000000169,-19.319705802619996149
0.316000000000000170,-19.341731675950235569
0.317000000000000171,-19.358265728120670701
0.318000000000000171,-19.369419552053095401
0.319000000000000172,-19.375308914385136916
0.320000000000000173,-19.376053408626280117
0.321000000000000174,-19.371776109569267987
0.322000000000000175,-19.362603230281330013
0.323000000000000176,-19.348663782890501039
0.324000000000000177,-19.330089244276496885
0.325000000000000178,-19.307013227672577216
0.326000000000000179,-19.279571161087130093
0.327000000000000179,-19.247899973357696979
0.328000000000000180,-19.212137788560209373
0.329000000000000181,-19.172423629409340862
0.330000000000000182,-19.128897130203135646
0.331000000000000183,-19.081698259787305716
0.332000000000000184,-19.030967054940127525
0.333000000000000185,-18.976843364509495160
0.334000000000000186,-18.919466604567809043
0.335000000000000187,-18.858975524789023837
0.336000000000000187,-18.795507986194845529
0.337000000000000188,-18.729200750363236949
0.338000000000000189,-18.660189280143264057
0.339000000000000190,-18.588607551874218871
0.340000000000000191,-18.514587879064414722
0.341000000000000192,-18.438260747447046128
0.342000000000000193,-18.359754661294314104
0.343000000000000194,-18.279196000839647240
0.344000000000000195,-18.196708890628023880
0.345000000000000195,-18.112415078589240380
0.346000000000000196,-18.026433825604716077
0.347000000000000197,-17.938881805318690255
0.348000000000000198,-17.849873013926046639
0.349000000000000199,-17.759518689653475576
0.350000000000000200,-17.667927241637432445
0.351000000000000201,-17.575204187890761887
0.352000000000000202,-17.481452102040726970
0.353000000000000203,-17.386770568513597368
0.354000000000000203,-17.291256145835426139
0.355000000000000204,-17.195002337714043961
0.356000000000000205,-17.098099571565352761
0.357000000000000206,-17.000635184145096446
0.358000000000000207,-16.902693413947531553
0.359000000000000208,-16.804355400033816892
0.360000000000000209,-16.705699186954749536
0.361000000000000210,-16.606799735435984644
0.362000000000000210,-16.507728938497816529
0.363000000000000211,-16.408555642686486920
0.364000000000000212,-16.309345674099624546
0.365000000000000213,-16.210161868894463311
0.366000000000000214,-16.111064107974463866
0.367000000000000215,-16.012109355556965795
0.368000000000000216,-15.913351701332491217
0.369000000000000217,-15.814842405933879022
0.370000000000000218,-15.716629949442445735
0.371000000000000218,-15.618760082666153011
0.372000000000000219,-15.521275880934279456
0.373000000000000220,-15.424217800161608594
0.374000000000000221,-15.327623734944427980
0.375000000000000222,-15.231529078459525195
0.376000000000000223,-15.135966783946983583
0.377000000000000224,-15.040967427566238612
0.378000000000000225,-14.946559272424456921
0.379000000000000226,-14.852768333585084193
0.380000000000000226,-14.759618443873804949
0.381000000000000227,-14.667131320307527531
0.382000000000000228,-14.575326630981521703
0.383000000000000229,-14.484222062257861907
0.384000000000000230,-14.393833386107209193
0.385000000000000231,-14.304174527464255107
0.386000000000000232,-14.215257631465192389
0.387000000000000233,-14.127093130443645563
0.388000000000000234,-14.039689810569161210
0.389000000000000234,-13.953054878020131113
0.390000000000000235,-13.867194024589911905
0.391000000000000236,-13.782111492632555638
0.392000000000000237,-13.697810139260983675
0.393000000000000238,-13.614291499717364076
0.394000000000000239,-13.531555849841700123
0.395000000000000240,-13.449602267570956116
0.396000000000000241,-13.368428693406880114
0.397000000000000242,-13.288031989796426302
0.398000000000000242,-13.208407999374196962
0.399000000000000243,-13.129551602021544809
0.400000000000000244,-13.051456770701872045
0.401000000000000245,-12.974116626036797939
0.402000000000000246,-12.897523489591943502
0.403000000000000247,-12.821668935845883297
0.404000000000000248,-12.746543842819626491
0.405000000000000249,-12.672138441348163695
0.406000000000000250,-12.598442362979096032
0.407000000000000250,-12.525444686487045232
0.408000000000000251,-12.453133982995812090
0.409000000000000252,-12.381498359703403622
0.410000000000000253,-12.310525502207855908
0.411000000000000254,-12.240202715434836733
0.412000000000000255,-12.170516963170207703
0.413000000000000256,-12.101454906203603201
0.414000000000000257,-12.033002939090831518
0.415000000000000258,-11.965147225545518239
0.416000000000000258,-11.897873732471941466
0.417000000000000259,-11.831168262653100953
0.418000000000000260,-11.765016486109544758
0.419000000000000261,-11.699403970146107667
0.420000000000000262,-11.634316208105094148
0.421000000000000263,-11.569738646845751262
0.422000000000000264,-11.505656712970857569
0.423000000000000265,-11.442055837822605824
0.424000000000000266,-11.378921481270671379
0.425000000000000266,-11.316239154316216187
0.426000000000000267,-11.253994440536420285
0.427000000000000268,-11.192173016394708185
0.428000000000000269,-11.130760670442388260
0.429000000000000270,-11.069743321437950812
0.430000000000000271,-11.009107035410622188
0.431000000000000272,-10.948838041695157841
0.432000000000000273,-10.888922747964969062
0.433000000000000274,-10.829347754291095640
0.434000000000000274,-10.770099866254428278
0.435000000000000275,-10.711166107138796022
0.436000000000000276,-10.652533729232525062
0.437000000000000277,-10.594190224265940259
0.438000000000000278,-10.536123333012351821
0.439000000000000279,-10.478321054079831498
0.440000000000000280,-10.420771651920874845
0.441000000000000281,-10.363463664086967952
0.442000000000000282,-10.306385907754753717
0.443000000000000282,-10.249527485550128603
0.444000000000000283,-10.192877790696492468
0.445000000000000284,-10.136426511512869553
0.446000000000000285,-10.080163635287211932
0.447000000000000286,-10.024079451550189646
0.448000000000000287,-9.968164554773714769
0.449000000000000288,-9.912409846518730916
0.450000000000000289,-9.856806537055803119
0.451000000000000290,-9.801346146481884958
0.452000000000000290,-9.746020505356145947
0.453000000000000291,-9.690821754877095628
0.454000000000000292,-9.635742346622995669
0.455000000000000293,-9.580775041876808729
0.456000000000000294,-9.525912910556652236
0.457000000000000295,-9.471149329772041270
0.458000000000000296,-9.416477982025792670
0.459000000000000297,-9.361892853080927779
0.460000000000000298,-9.307388229511344591
0.461000000000000298,-9.252958695954589530
0.462000000000000299,-9.198599132084508412
0.463000000000000300,-9.144304709320959290
0.464000000000000301,-9.090070887293432378
0.465000000000000302,-9.035893410074740117
0.466000000000000303,-8.981768302200514142
0.467000000000000304,-8.927691864489702311
0.468000000000000305,-8.873660669680866420
0.469000000000000306,-8.819671557898356440
0.470000000000000306,-8.765721631962282601
0.471000000000000307,-8.711808252555318433
0.472000000000000308,-8.657929033259334162
0.473000000000000309,-8.604081835473991191
0.474000000000000310,-8.550264763229238341
0.475000000000000311,-8.496476157903035897
0.476000000000000312,-8.442714592855399047
0.477000000000000313,-8.388978867989047572
0.478000000000000314,-8.335268004246920270
0.479000000000000314,-8.281581238056205052
0.480000000000000315,-8.227918015727984979
0.481000000000000316,-8.174277987821625402
0.482000000000000317,-8.120661003482023688
0.483000000000000318,-8.067067104758114837
0.484000000000000319,-8.013496520910091903
0.485000000000000320,-7.959949662712856089
0.486000000000000321,-7.906427116762562157
0.487000000000000322,-7.852929639792954220
0.488000000000000322,-7.799458153007722494
0.489000000000000323,-7.746013736434977481
0.490000000000000324,-7.692597623309382016
0.491000000000000325,-7.639211194487328882
0.492000000000000326,-7.585855972900186650
0.493000000000000327,-7.532533618050436530
0.494000000000000328,-7.479245920555056770
0.495000000000000329,-7.425994796740502224
0.496000000000000330,-7.372782283293055627
0.497000000000000330,-7.319610531968391065
0.498000000000000331,-7.266481804363593255
0.499000000000000332,-7.213398466755076122
0.500000000000000333,-7.160362985005133574
0.501000000000000334,-7.107377919539973554
0.502000000000000335,-7.054445920401763992
0.503000000000000336,-7.001569722377023020
0.504000000000000337,-6.948752140203426464
0.505000000000000338,-6.895996063856999925
0.506000000000000338,-6.843304453921467356
0.507000000000000339,-6.790680337041287373
0.508000000000000340,-6.738126801459765502
0.509000000000000341,-6.685646992643624387
0.510000000000000342,-6.633244108994904131
0.511000000000000343,-6.580921397651316340
0.512000000000000344,-6.528682150375724191
0.513000000000000345,-6.476529699535474194
0.514000000000000346,-6.424467414172139179
0.515000000000000346,-6.372498696161945198
0.516000000000000347,-6.320626976467302427
0.517000000000000348,-6.268855711479606185
0.518000000000000349,-6.217188379453228109
0.519000000000000350,-6.165628477030873356
0.520000000000000351,-6.114179515859998304
0.521000000000000352,-6.062845019300183047
0.522000000000000353,-6.011628519221066114
0.523000000000000353,-5.960533552890439957
0.524000000000000354,-5.909563659952199899
0.525000000000000355,-5.858722379493324972
0.526000000000000356,-5.808013247199521167
0.527000000000000357,-5.757439792598759709
0.528000000000000358,-5.707005536391871914
0.529000000000000359,-5.656713987869629534
0.530000000000000360,-5.606568642415205694
0.531000000000000361,-5.556572979091317421
0.532000000000000361,-5.506730458310977738
0.533000000000000362,-5.457044519590920295
0.534000000000000363,-5.407518579386668911
0.535000000000000364,-5.358156029008141807
0.536000000000000365,-5.308960232614750474
0.537000000000000366,-5.259934525288818108
0.538000000000000367,-5.211082211186117696
0.539000000000000368,-5.162406561762496793
0.540000000000000369,-5.113910814075145694
0.541000000000000369,-5.065598169157518704
0.542000000000000370,-5.017471790466468740
0.543000000000000371,-4.969534802400430884
0.544000000000000372,-4.921790288887359033
0.545000000000000373,-4.874241292041119777
0.546000000000000374,-4.826890810884991723
0.547000000000000375,-4.779741800141030339
0.548000000000000376,-4.732797169083974076
0.549000000000000377,-4.686059780458323942
0.550000000000000377,-4.639532449457266949
0.551000000000000378,-4.593217942762183092
0.552000000000000379,-4.547118977641360082
0.553000000000000380,-4.501238221106572013
0.554000000000000381,-4.455578289126210123
0.555000000000000382,-4.410141745893722209
0.556000000000000383,-4.364931103149849889
0.557000000000000384,-4.319948819557611230
0.558000000000000385,-4.275197300128462885
0.559000000000000385,-4.230678895698559039
0.560000000000000386,-4.186395902453678985
0.561000000000000387,-4.142350561501598527
0.562000000000000388,-4.098545058490648429
0.563000000000000389,-4.054981523273158750
0.564000000000000390,-4.011662029612589109
0.565000000000000391,-3.968588594933067704
0.566000000000000392,-3.925763180110150241
0.567000000000000393,-3.883187689301603740
0.568000000000000393,-3.840863969816960655
0.569000000000000394,-3.798793812024702898
0.570000000000000395,-3.756978949295981529
0.571000000000000396,-3.715421057983546937
0.572000000000000397,-3.674121757434978264
0.573000000000000398,-3.633082610038891769
0.574000000000000399,-3.592305121303203119
0.575000000000000400,-3.551790739964201471
0.576000000000000401,-3.511540858125490328
0.577000000000000401,-3.471556811425737354
0.578000000000000402,-3.431839879234087842
0.579000000000000403,-3.392391284872361634
0.580000000000000404,-3.353212195863002343
0.581000000000000405,-3.314303724201738355
0.582000000000000406,-3.275666926654079880
0.583000000000000407,-3.237302805074638634
0.584000000000000408,-3.199212306748421053
0.585000000000000409,-3.161396324753116716
0.586000000000000409,-3.123855698341528431
0.587000000000000410,-3.086591213343296669
0.588000000000000411,-3.049603602585003070
0.589000000000000412,-3.012893546327904737
0.590000000000000413,-2.976461672722388929
0.591000000000000414,-2.940308558278412754
0.592000000000000415,-2.904434728351177331
0.593000000000000416,-2.868840657641154035
0.594000000000000417,-2.833526770707819775
0.595000000000000417,-2.798493442496421846
0.596000000000000418,-2.763740998876825561
0.597000000000000419,-2.729269717194099165
0.598000000000000420,-2.695079826829819503
0.599000000000000421,-2.661171509773686328
0.600000000000000422,-2.627544901204661887
0.601000000000000423,-2.594200090081087762
0.602000000000000424,-2.561137119739115064
0.603000000000000425,-2.528355988498884876
0.604000000000000425,-2.495856650277876287
0.605000000000000426,-2.463639015210842054
0.606000000000000427,-2.431702950275855812
0.607000000000000428,-2.400048279925766970
0.608000000000000429,-2.368674786724822123
