# CNT15-COO--3_BSAI21
# h[nm],U(h)[kJ/mol]
0.149999999999999994,130.705749332427274112
0.150999999999999995,130.282885067947916014
0.151999999999999996,127.550864874907077251
0.152999999999999997,124.413122981356394803
0.153999999999999998,121.557282799988001898
0.154999999999999999,119.101409271971988346
0.156000000000000000,116.942632956882704320
0.157000000000000001,114.930596196797111475
0.158000000000000002,112.942083431466969046
0.159000000000000002,110.903278846888454723
0.160000000000000003,108.786978209580382781
0.161000000000000004,106.600106495708772059
0.162000000000000005,104.369578888580917919
0.163000000000000006,102.130224541398888505
0.164000000000000007,99.916063027367428617
0.165000000000000008,97.754955389389436959
0.166000000000000009,95.666074448903188454
0.167000000000000010,93.659453418937516744
0.168000000000000010,91.736892257165095543
0.169000000000000011,89.893615990962103979
0.170000000000000012,88.120224325259869147
0.171000000000000013,86.404612867757407457
0.172000000000000014,84.733667085103164140
0.173000000000000015,83.094625059247420040
0.174000000000000016,81.476074492855715903
0.175000000000000017,79.868596331177826642
0.176000000000000018,78.265096042238781138
0.177000000000000018,76.660878350130900571
0.178000000000000019,75.053525960318012267
0.179000000000000020,73.442640832661098216
0.180000000000000021,71.829500446657078783
0.181000000000000022,70.216673222884111283
0.182000000000000023,68.607628218567882072
0.183000000000000024,67.006365352465508067
0.184000000000000025,65.417084327799045695
0.185000000000000026,63.843903437216226848
0.186000000000000026,62.290633683730995074
0.187000000000000027,60.760609137601342411
0.188000000000000028,59.256571088039983408
0.189000000000000029,57.780601208667803803
0.190000000000000030,56.334097481906198368
0.191000000000000031,54.917785860292461564
0.192000000000000032,53.531760429073607099
0.193000000000000033,52.175545035489811596
0.194000000000000034,50.848169844837315168
0.195000000000000034,49.548256969818467610
0.196000000000000035,48.274110114928760140
0.197000000000000036,47.023804016464261224
0.198000000000000037,45.795270291738567892
0.199000000000000038,44.586377102543124806
0.200000000000000039,43.395000763506445196
0.201000000000000040,42.219088070906046539
0.202000000000000041,41.056708684175887925
0.203000000000000042,39.906097359039918615
0.204000000000000042,38.765686210295925207
0.205000000000000043,37.634127479147949202
0.206000000000000044,36.510307501941902331
0.207000000000000045,35.393352732631953472
0.208000000000000046,34.282628769211591191
0.209000000000000047,33.177733383608462248
0.210000000000000048,32.078484563761989534
0.211000000000000049,30.984904553790833859
0.212000000000000050,29.897200830601541099
0.213000000000000050,28.815744889473023704
0.214000000000000051,27.741049632703827399
0.215000000000000052,26.673746069140612747
0.216000000000000053,25.614559942318827268
0.217000000000000054,24.564288814308348208
0.218000000000000055,23.523780043755795788
0.219000000000000056,22.493910012044722180
0.220000000000000057,21.475564872410327411
0.221000000000000058,20.469623024270113376
0.222000000000000058,19.476939449579816710
0.223000000000000059,18.498331990024531990
0.224000000000000060,17.534569593353527495
0.225000000000000061,16.586362514025768888
0.226000000000000062,15.654354417248512732
0.227000000000000063,14.739116306048746452
0.228000000000000064,13.841142167723011980
0.229000000000000065,12.960846218315580813
0.230000000000000066,12.098561611111694702
0.231000000000000066,11.254540466914599861
0.232000000000000067,10.428955079536999406
0.233000000000000068,9.621900148923234752
0.234000000000000069,8.833395896107507639
0.235000000000000070,8.063391918316771267
0.236000000000000071,7.311771648497521703
0.237000000000000072,6.578357290972689952
0.238000000000000073,5.862915113458011085
0.239000000000000073,5.165160984960695423
0.240000000000000074,4.484766058862833304
0.241000000000000075,3.821362510519934030
0.242000000000000076,3.174549248769324983
0.243000000000000077,2.543897530672984963
0.244000000000000078,1.928956418474180312
0.245000000000000079,1.329258027011438914
0.246000000000000080,0.744322518621292062
0.247000000000000081,0.173662810803557388
0.248000000000000081,-0.383211030422317633
0.249000000000000082,-0.926787731506232171
0.250000000000000111,-1.457551100336476058
0.251000000000000112,-1.975976671056638212
0.252000000000000113,-2.482528707460648576
0.253000000000000114,-2.977657563166499877
0.254000000000000115,-3.461797392831937437
0.255000000000000115,-3.935364205294214823
0.256000000000000116,-4.398754246665535383
0.257000000000000117,-4.852342699057102138
0.258000000000000118,-5.296482678702270519
0.259000000000000119,-5.731504515767023022
0.260000000000000120,-6.157715297034668467
0.261000000000000121,-6.575398651893900492
0.262000000000000122,-6.984814761610803835
0.263000000000000123,-7.386200571687844274
0.264000000000000123,-7.779770187176135110
0.265000000000000124,-8.165715431076304043
0.266000000000000125,-8.544206546411000858
0.267000000000000126,-8.915393023148208584
0.268000000000000127,-9.279404531876007667
0.269000000000000128,-9.636351946949481828
0.270000000000000129,-9.986328442730378896
0.271000000000000130,-10.329410647499338793
0.272000000000000131,-10.665659840620580923
0.273000000000000131,-10.995123179566336447
0.274000000000000132,-11.317834944447220380
0.275000000000000133,-11.633817788735118626
0.276000000000000134,-11.943083985894798360
0.277000000000000135,-12.245636662651183002
0.278000000000000136,-12.541471010604524849
0.279000000000000137,-12.830575468857375654
0.280000000000000138,-13.112932871231103960
0.281000000000000139,-13.388521552522879787
0.282000000000000139,-13.657316409080745956
0.283000000000000140,-13.919289909755301338
0.284000000000000141,-14.174413054017557911
0.285000000000000142,-14.422656274715105695
0.286000000000000143,-14.663990283570607076
0.287000000000000144,-14.898386858109399000
0.288000000000000145,-15.125819569237222595
0.289000000000000146,-15.346264449174309874
0.290000000000000147,-15.559700599892352102
0.291000000000000147,-15.766110742594824146
0.292000000000000148,-15.965481709133268140
0.293000000000000149,-16.157804876561776553
0.294000000000000150,-16.343076546303848318
0.295000000000000151,-16.521298269639800083
0.296000000000000152,-16.692477121422761854
0.297000000000000153,-16.856625924098516123
0.298000000000000154,-17.013763424241368227
0.299000000000000155,-17.163914423927451480
0.300000000000000155,-17.307109869349904585
0.301000000000000156,-17.443386899139841972
0.302000000000000157,-17.572788854895353694
0.303000000000000158,-17.695365256438471135
0.304000000000000159,-17.811171744321281807
0.305000000000000160,-17.920269992086545585
0.306000000000000161,-18.022727590759313188
0.307000000000000162,-18.118617908003962214
0.308000000000000163,-18.208019924328294081
0.309000000000000163,-18.291018048654301253
0.310000000000000164,-18.367701915504802912
0.311000000000000165,-18.438166165978067568
0.312000000000000166,-18.502510214599904970
0.313000000000000167,-18.560838004055124628
0.314000000000000168,-18.613257749709614330
0.315000000000000169,-18.659881675740535911
0.316000000000000170,-18.700825744597104006
0.317000000000000171,-18.736209381417406661
0.318000000000000171,-18.766155194930384198
0.319000000000000172,-18.790788696275299685
0.320000000000000173,-18.810238017075000982
0.321000000000000174,-18.824633628004772135
0.322000000000000175,-18.834108059005593816
0.323000000000000176,-18.838795622199548063
0.324000000000000177,-18.838832138476622191
0.325000000000000178,-18.834354668635782559
0.326000000000000179,-18.825501249880609578
0.327000000000000179,-18.812410638388783468
0.328000000000000180,-18.795222058598255899
0.329000000000000181,-18.774074959779142091
0.330000000000000182,-18.749108780389342144
0.331000000000000183,-18.720462720645834054
0.332000000000000184,-18.688275523679159562
0.333000000000000185,-18.652685265578959672
0.334000000000000186,-18.613829154581729597
0.335000000000000187,-18.571843339598391509
0.336000000000000187,-18.526862728229772870
0.337000000000000188,-18.479020814371082793
0.338000000000000189,-18.428449515463331210
0.339000000000000190,-18.375279019409571646
0.340000000000000191,-18.319637641136036876
0.341000000000000192,-18.261651688744979793
0.342000000000000193,-18.201445339173773164
0.343000000000000194,-18.139140523247199610
0.344000000000000195,-18.074856819982706213
0.345000000000000195,-18.008711359986588008
0.346000000000000196,-17.940818737756508483
0.347000000000000197,-17.871290932688225439
0.348000000000000198,-17.800237238567483189
0.349000000000000199,-17.727764201313501502
0.350000000000000200,-17.653975564728359160
0.351000000000000201,-17.578972223995762647
0.352000000000000202,-17.502852186663858447
0.353000000000000203,-17.425710540839553175
0.354000000000000203,-17.347639430316096565
0.355000000000000204,-17.268728036351198796
0.356000000000000205,-17.189062565810253602
0.357000000000000206,-17.108726245387380516
0.358000000000000207,-17.027799321616051031
0.359000000000000208,-16.946359066381965874
0.360000000000000209,-16.864479787651930565
0.361000000000000210,-16.782232845134593902
0.362000000000000210,-16.699686670592207349
0.363000000000000211,-16.616906792526027203
0.364000000000000212,-16.533955864962557314
0.365000000000000213,-16.450893700072633408
0.366000000000000214,-16.367777304360902946
0.367000000000000215,-16.284660918169038268
0.368000000000000216,-16.201596058242607512
0.369000000000000217,-16.118631563117808980
0.370000000000000218,-16.035813641091543502
0.371000000000000218,-15.953185920545246645
0.372000000000000219,-15.870789502400464599
0.373000000000000220,-15.788663014491646663
0.374000000000000221,-15.706842667649279832
0.375000000000000222,-15.625362313294198557
0.376000000000000223,-15.544253502351903506
0.377000000000000224,-15.463545545303409412
0.378000000000000225,-15.383265573196913678
0.379000000000000226,-15.303438599452622526
0.380000000000000226,-15.224087582300644073
0.381000000000000227,-15.145233487699522712
0.382000000000000228,-15.066895352590790935
0.383000000000000229,-14.989090348352144488
0.384000000000000230,-14.911833844319360765
0.385000000000000231,-14.835139471254382926
0.386000000000000232,-14.759019184643804579
0.387000000000000233,-14.683483327719255129
0.388000000000000234,-14.608540694097575496
0.389000000000000234,-14.534198589945694025
0.390000000000000235,-14.460462895580970866
0.391000000000000236,-14.387338126424589646
0.392000000000000237,-14.314827493230961153
0.393000000000000238,-14.242932961522608792
0.394000000000000239,-14.171655310164883446
0.395000000000000240,-14.100994189021093916
0.396000000000000241,-14.030948175633090713
0.397000000000000242,-13.961514830877908011
0.398000000000000242,-13.892690753555777761
0.399000000000000243,-13.824471633869185538
0.400000000000000244,-13.756852305757471200
0.401000000000000245,-13.689826798055481305
0.402000000000000246,-13.623388384448825050
0.403000000000000247,-13.557529632202209413
0.404000000000000248,-13.492242449640992064
0.405000000000000249,-13.427518132369575810
0.406000000000000250,-13.363347408213488876
0.407000000000000250,-13.299720480875262041
0.408000000000000251,-13.236627072297071805
0.409000000000000252,-13.174056463725978716
0.410000000000000253,-13.111997535480123034
0.411000000000000254,-13.050438805416913368
0.412000000000000255,-12.989368466106219202
0.413000000000000256,-12.928774420714216120
0.414000000000000257,-12.868644317605056671
0.415000000000000258,-12.808965583669913002
0.416000000000000258,-12.749725456394255474
0.417000000000000259,-12.690911014676229840
0.418000000000000260,-12.632509208410237278
0.419000000000000261,-12.574506886851329668
0.420000000000000262,-12.516890825777320373
0.421000000000000263,-12.459647753466612130
0.422000000000000264,-12.402764375510734851
0.423000000000000265,-12.346227398481758541
0.424000000000000266,-12.290023552475457080
0.425000000000000266,-12.234139612551739873
0.426000000000000267,-12.178562419094919989
0.427000000000000268,-12.123278897116563257
0.428000000000000269,-12.068276074524504793
0.429000000000000270,-12.013541099381907173
0.430000000000000271,-11.959061256180618216
0.431000000000000272,-11.904823981153446866
0.432000000000000273,-11.850816876650208442
0.433000000000000274,-11.797027724602518362
0.434000000000000274,-11.743444499102484002
0.435000000000000275,-11.690055378120574048
0.436000000000000276,-11.636848754387855820
0.437000000000000277,-11.583813245467833752
0.438000000000000278,-11.530937703043067089
0.439000000000000279,-11.478211221441679157
0.440000000000000280,-11.425623145428529526
0.441000000000000281,-11.373163077285912692
0.442000000000000282,-11.320820883208325469
0.443000000000000282,-11.268586699035449072
0.444000000000000283,-11.216450935347513251
0.445000000000000284,-11.164404281946698205
0.446000000000000285,-11.112437711747912061
0.447000000000000286,-11.060542484102262151
0.448000000000000287,-11.008710147575548888
0.449000000000000288,-10.956932542204508962
0.450000000000000289,-10.905201801252484728
0.451000000000000290,-10.853510352486150481
0.452000000000000290,-10.801850918994489348
0.453000000000000291,-10.750216519570576779
0.454000000000000292,-10.698600468676598751
0.455000000000000293,-10.646996376011731655
0.456000000000000294,-10.595398145702446868
0.457000000000000295,-10.543799975134017899
0.458000000000000296,-10.492196353441695322
0.459000000000000297,-10.440582059679602622
0.460000000000000298,-10.388952160684784332
0.461000000000000298,-10.337302008653512786
0.462000000000000299,-10.285627238446464204
0.463000000000000300,-10.233923764638724663
0.464000000000000301,-10.182187778330511918
0.465000000000000302,-10.130415743733609091
0.466000000000000303,-10.078604394548293044
0.467000000000000304,-10.026750730145066015
0.468000000000000305,-9.974852011564943055
0.469000000000000306,-9.922905757351625056
0.470000000000000306,-9.870909739228673985
0.471000000000000307,-9.818861977633813964
0.472000000000000308,-9.766760737122783809
0.473000000000000309,-9.714604521654077729
0.474000000000000310,-9.662392069765887825
0.475000000000000311,-9.610122349655963347
0.476000000000000312,-9.557794554174899204
0.477000000000000313,-9.505408095742613028
0.478000000000000314,-9.452962601197706149
0.479000000000000314,-9.400457906588956192
0.480000000000000315,-9.347894051917574387
0.481000000000000316,-9.295271275838894454
0.482000000000000317,-9.242590010331346306
0.483000000000000318,-9.189850875340633607
0.484000000000000319,-9.137054673406350247
0.485000000000000320,-9.084202384278219355
0.486000000000000321,-9.031295159528532679
0.487000000000000322,-8.978334317167306011
0.488000000000000322,-8.925321336266089034
0.489000000000000323,-8.872257851596407008
0.490000000000000324,-8.819145648288147399
0.491000000000000325,-8.765986656513163666
0.492000000000000326,-8.712782946198961653
0.493000000000000327,-8.659536721777232771
0.494000000000000328,-8.606250316971443937
0.495000000000000329,-8.552926189627784836
0.496000000000000330,-8.499566916593197519
0.497000000000000330,-8.446175188644307497
0.498000000000000331,-8.392753805470409389
0.499000000000000332,-8.339305670714031393
0.500000000000000333,-8.285833787071755552
0.501000000000000334,-8.232341251458171527
0.502000000000000335,-8.178831250235552019
0.503000000000000336,-8.125307054511583971
0.504000000000000337,-8.071772015507317377
0.505000000000000338,-8.018229559997321232
0.506000000000000338,-7.964683185823970391
0.507000000000000339,-7.911136457487349283
0.508000000000000340,-7.857593001812380074
0.509000000000000341,-7.804056503694586588
0.510000000000000342,-7.750530701925461230
0.511000000000000343,-7.697019385098736066
0.512000000000000344,-7.643526387598255312
0.513000000000000345,-7.590055585668409321
0.514000000000000346,-7.536610893567697644
0.515000000000000346,-7.483196259805947825
0.516000000000000347,-7.429815663465644704
0.517000000000000348,-7.376473110607764561
0.518000000000000349,-7.323172630762092794
0.519000000000000350,-7.269918273502460337
0.520000000000000351,-7.216714105106611044
0.521000000000000352,-7.163564205300870569
0.522000000000000353,-7.110472664089321881
0.523000000000000353,-7.057443578667220052
0.524000000000000354,-7.004481050418563726
0.525000000000000355,-6.951589181997111844
0.526000000000000356,-6.898772074490644002
0.527000000000000357,-6.846033824667887124
0.528000000000000358,-6.793378522307387257
0.529000000000000359,-6.740810247607972094
0.530000000000000360,-6.688333068679793492
0.531000000000000361,-6.635951039115484562
0.532000000000000361,-6.583668195640458798
0.533000000000000362,-6.531488555841626464
0.534000000000000363,-6.479416115973596568
0.535000000000000364,-6.427454848841496649
0.536000000000000365,-6.375608701759441388
0.537000000000000366,-6.323881594583687260
0.538000000000000367,-6.272277417819397627
0.539000000000000368,-6.220800030800174518
0.540000000000000369,-6.169453259938987522
0.541000000000000369,-6.118240897049769700
0.542000000000000370,-6.067166697738283432
0.543000000000000371,-6.016234379861283621
0.544000000000000372,-5.965447622052836074
0.545000000000000373,-5.914810062316599115
0.546000000000000374,-5.864325296682886268
0.547000000000000375,-5.813996877929382023
0.548000000000000376,-5.763828314364334737
0.549000000000000377,-5.713823068670975225
0.550000000000000377,-5.663984556811985094
0.551000000000000378,-5.614316146992821999
0.552000000000000379,-5.564821158682731195
0.553000000000000380,-5.515502861692146652
0.554000000000000381,-5.466364475305311110
0.555000000000000382,-5.417409167467020836
0.556000000000000383,-5.368640054022018049
0.557000000000000384,-5.320060198006173025
0.558000000000000385,-5.271672608987926445
0.559000000000000385,-5.223480242459059397
0.560000000000000386,-5.175485999273436555
0.561000000000000387,-5.127692725132619422
0.562000000000000388,-5.080103210117130175
0.563000000000000389,-5.032720188262260308
0.564000000000000390,-4.985546337177193976
0.565000000000000391,-4.938584277706357106
0.566000000000000392,-4.891836573631819007
0.567000000000000393,-4.845305731415657569
0.568000000000000393,-4.798994199981138742
0.569000000000000394,-4.752904370531576106
0.570000000000000395,-4.707038576405940589
0.571000000000000396,-4.661399092969881863
0.572000000000000397,-4.615988137541365610
0.573000000000000398,-4.570807869349680530
0.574000000000000399,-4.525860389526902949
0.575000000000000400,-4.481147741130692808
0.576000000000000401,-4.436671909197505315
0.577000000000000401,-4.392434820825218189
0.578000000000000402,-4.348438345284094453
0.579000000000000403,-4.304684294155239677
0.580000000000000404,-4.261174421495575793
0.581000000000000405,-4.217910424028348260
0.582000000000000406,-4.174893941358325478
0.583000000000000407,-4.132126556210709012
0.584000000000000408,-4.089609794692970368
0.585000000000000409,-4.047345126578669294
0.586000000000000409,-4.005333965612410729
0.587000000000000410,-3.963577669835165018
0.588000000000000411,-3.922077541929043232
0.589000000000000412,-3.880834829580825041
0.590000000000000413,-3.839850725863339420
0.591000000000000414,-3.799126369634018285
0.592000000000000415,-3.758662845949870324
0.593000000000000416,-3.718461186498028148
0.594000000000000417,-3.678522370041249268
0.595000000000000417,-3.638847322877730051
0.596000000000000418,-3.599436919314237038
0.597000000000000419,-3.560291982152337997
0.598000000000000420,-3.521413283186615395
0.599000000000000421,-3.482801543714556747
0.600000000000000422,-3.444457435057297179
0.601000000000000423,-3.406381579090697276
0.602000000000000424,-3.368574548786099854
0.603000000000000425,-3.331036868760219871
0.604000000000000425,-3.293769015833578173
0.605000000000000426,-3.256771419596907968
0.606000000000000427,-3.220044462985093503
0.607000000000000428,-3.183588482857869995
0.608000000000000429,-3.147403770587148486
