# CNT15-COO--3_HID-AC
# h[nm],U(h)[kJ/mol]
0.149999999999999994,171.356188861387494171
0.150999999999999995,168.665940713398441630
0.151999999999999996,166.231409613779874235
0.152999999999999997,163.913161719008883210
0.153999999999999998,161.641697651751030662
0.154999999999999999,159.386225542524528009
0.156000000000000000,157.136204737230457340
0.157000000000000001,154.890790206403892171
0.158000000000000002,152.653060072758620436
0.159000000000000002,150.427060587144865167
0.160000000000000003,148.216451789002633177
0.161000000000000004,146.024017701179644746
0.162000000000000005,143.851608584926736967
0.163000000000000006,141.700271042479499783
0.164000000000000007,139.570435707597169994
0.165000000000000008,137.462099120516000994
0.166000000000000009,135.374973962964702423
0.167000000000000010,133.308601651241531272
0.168000000000000010,131.262430682626984435
0.169000000000000011,129.235867679071617431
0.170000000000000012,127.228308558720371479
0.171000000000000013,125.239156331823778601
0.172000000000000014,123.267830585602837346
0.173000000000000015,121.313772275049814198
0.174000000000000016,119.376446194876535856
0.175000000000000017,117.455342545646814756
0.176000000000000018,115.549978320626877348
0.177000000000000018,113.659898789314553369
0.178000000000000019,111.784679087322160740
0.179000000000000020,109.923925789506867545
0.180000000000000021,108.077278300106584652
0.181000000000000022,106.244409905265030147
0.182000000000000023,104.425028373811073834
0.183000000000000024,102.618876043472525339
0.184000000000000025,100.825729380241000399
0.185000000000000026,99.045398041661002253
0.186000000000000026,97.277723507239173273
0.187000000000000027,95.522577360206980757
0.188000000000000028,93.779859315300043932
0.189000000000000029,92.049495088657153019
0.190000000000000030,90.331434200379916888
0.191000000000000031,88.625647789765665152
0.192000000000000032,86.932126509616523435
0.193000000000000033,85.250878550943440359
0.194000000000000034,83.581927834135100852
0.195000000000000034,81.925312388223019866
0.196000000000000035,80.281082926928263532
0.197000000000000036,78.649301619152751641
0.198000000000000037,77.030041042676856478
0.199000000000000038,75.423383303089963192
0.200000000000000039,73.829419295318217564
0.201000000000000040,72.248248082343678789
0.202000000000000041,70.679976364598232408
0.203000000000000042,69.124718013797007643
0.204000000000000042,67.582593646374107266
0.205000000000000043,66.053730213935025972
0.206000000000000044,64.538260590989438015
0.207000000000000045,63.036323143458048435
0.208000000000000046,61.548061264859562414
0.209000000000000047,60.073622870516167893
0.210000000000000048,58.613159843436960728
0.211000000000000049,57.166827428649106935
0.212000000000000050,55.734783575562936164
0.213000000000000050,54.317188230442354779
0.214000000000000051,52.914202583163238103
0.215000000000000052,51.525988274177130677
0.216000000000000053,50.152706568954975808
0.217000000000000054,48.794517508180369703
0.218000000000000055,47.451579042617275661
0.219000000000000056,46.124046161924759701
0.220000000000000057,44.812070026757162111
0.221000000000000058,43.515797113322058465
0.222000000000000058,42.235368379187463006
0.223000000000000059,40.970918458590674049
0.224000000000000060,39.722574894821605085
0.225000000000000061,38.490457416477127595
0.226000000000000062,37.274677263534222504
0.227000000000000063,36.075336568297579731
0.228000000000000064,34.892527795367165311
0.229000000000000065,33.726333243859457411
0.230000000000000066,32.576824614227319898
0.231000000000000066,31.444062641164741478
0.232000000000000067,30.328096793273243037
0.233000000000000068,29.228965039409921189
0.234000000000000069,28.146693680943382532
0.235000000000000070,27.081297248516865039
0.236000000000000071,26.032778461360596367
0.237000000000000072,25.001128246707644109
0.238000000000000073,23.986325816451319781
0.239000000000000073,22.988338797836021854
0.240000000000000074,22.007123414689811369
0.241000000000000075,21.042624715491559328
0.242000000000000076,20.094776844406556648
0.243000000000000077,19.163503351321054424
0.244000000000000078,18.248717536854805132
0.245000000000000079,17.350322828323207602
0.246000000000000080,16.468213182657386540
0.247000000000000081,15.602273512359451146
0.248000000000000081,14.752380130674723091
0.249000000000000082,13.918401212292419444
0.250000000000000111,13.100197266038710708
0.251000000000000112,12.297621616198721739
0.252000000000000113,11.510520889288471835
0.253000000000000114,10.738735503298554974
0.254000000000000115,9.982100156634460930
0.255000000000000115,9.240444314191549324
0.256000000000000116,8.513592688215112503
0.257000000000000117,7.801365711809704173
0.258000000000000118,7.103580003174404744
0.259000000000000119,6.420048818847911676
0.260000000000000120,5.750582494449787418
0.261000000000000121,5.094988871601017877
0.262000000000000122,4.453073709894184162
0.263000000000000123,3.824641082964247207
0.264000000000000123,3.209493757880376386
0.265000000000000124,2.607433557240437239
0.266000000000000125,2.018261703499840465
0.267000000000000126,1.441779145206916635
0.268000000000000127,0.877786864945776513
0.269000000000000128,0.326086168907798624
0.270000000000000129,-0.213521041878612372
0.271000000000000130,-0.741232018532075765
0.272000000000000131,-1.257242929298278300
0.273000000000000131,-1.761748642229618911
0.274000000000000132,-2.254942525197112246
0.275000000000000133,-2.737016262806124534
0.276000000000000134,-3.208159689734332964
0.277000000000000135,-3.668560639964073111
0.278000000000000136,-4.118404811344330341
0.279000000000000137,-4.557875644885944766
0.280000000000000138,-4.987154218168486253
0.281000000000000139,-5.406419152219402946
0.282000000000000139,-5.815846531211851911
0.283000000000000140,-6.215609834319890226
0.284000000000000141,-6.605879879065549964
0.285000000000000142,-6.986824775492982198
0.286000000000000143,-7.358609890508816420
0.287000000000000144,-7.721397821734919731
0.288000000000000145,-8.075348380230987999
0.289000000000000146,-8.420618581455842744
0.290000000000000147,-8.757362643852941275
0.291000000000000147,-9.085731994461259120
0.292000000000000148,-9.405875280972622932
0.293000000000000149,-9.717938389675344624
0.294000000000000150,-10.022064468746066268
0.295000000000000151,-10.318393956373077103
0.296000000000000152,-10.607064613217335847
0.297000000000000153,-10.888211558740056972
0.298000000000000154,-11.161967310949499677
0.299000000000000155,-11.428461829142696260
0.300000000000000155,-11.687822559241471509
0.301000000000000156,-11.940174481344907775
0.302000000000000157,-12.185640159144250916
0.303000000000000158,-12.424339790867763966
0.304000000000000159,-12.656391261446094276
0.305000000000000160,-12.881910195609691527
0.306000000000000161,-13.101010011651178289
0.307000000000000162,-13.313801975605887407
0.308000000000000163,-13.520395255623181896
0.309000000000000163,-13.720896976320492655
0.310000000000000164,-13.915412272929804871
0.311000000000000165,-14.104044345064048471
0.312000000000000166,-14.286894509947183352
0.313000000000000167,-14.464062254967851473
0.314000000000000168,-14.635645289431064242
0.315000000000000169,-14.801739595397043203
0.316000000000000170,-14.962439477509622776
0.317000000000000171,-15.117837611728933922
0.318000000000000171,-15.268025092895328498
0.319000000000000172,-15.413091481062682675
0.320000000000000173,-15.553124846549058802
0.321000000000000174,-15.688211813662997329
0.322000000000000175,-15.818437603072212028
0.323000000000000176,-15.943886072790174779
0.324000000000000177,-16.064639757763352179
0.325000000000000178,-16.180779908049007787
0.326000000000000179,-16.292386525580404566
0.327000000000000179,-16.399538399521226495
0.328000000000000180,-16.502313140217250265
0.329000000000000181,-16.600787211757701556
0.330000000000000182,-16.695035963163029180
0.331000000000000183,-16.785133658220171782
0.332000000000000184,-16.871153503989219757
0.333000000000000185,-16.953167678008949082
0.334000000000000186,-17.031247354231165758
0.335000000000000187,-17.105462727715988080
0.336000000000000187,-17.175883038122652380
0.337000000000000188,-17.242576592031173988
0.338000000000000189,-17.305610784132703373
0.339000000000000190,-17.365052117326676751
0.340000000000000191,-17.420966221763908521
0.341000000000000192,-17.473417872875657508
0.342000000000000193,-17.522471008428784245
0.343000000000000194,-17.568188744647613930
0.344000000000000195,-17.610633391442686246
0.345000000000000195,-17.649866466787226926
0.346000000000000196,-17.685948710281046203
0.347000000000000197,-17.718940095941778878
0.348000000000000198,-17.748899844262613357
0.349000000000000199,-17.775886433575056600
0.350000000000000200,-17.799957610754585602
0.351000000000000201,-17.821170401306318354
0.352000000000000202,-17.839581118866668419
0.353000000000000203,-17.855245374156435645
0.354000000000000203,-17.868218083419701969
0.355000000000000204,-17.878553476381277676
0.356000000000000205,-17.886305103755397283
0.357000000000000206,-17.891525844336616302
0.358000000000000207,-17.894267911702581131
0.359000000000000208,-17.894582860557889603
0.360000000000000209,-17.892521592746561510
0.361000000000000210,-17.888134362959654311
0.362000000000000210,-17.881470784163507659
0.363000000000000211,-17.872579832772821362
0.364000000000000212,-17.861509853591751806
0.365000000000000213,-17.848308564545014576
0.366000000000000214,-17.833023061219897443
0.367000000000000215,-17.815699821238958123
0.368000000000000216,-17.796384708482335668
0.369000000000000217,-17.775122977177041150
0.370000000000000218,-17.751959275870348165
0.371000000000000218,-17.726937651302471011
0.372000000000000219,-17.700101552193618915
0.373000000000000220,-17.671493832959022541
0.374000000000000221,-17.641156757364864660
0.375000000000000222,-17.609132002136782091
0.376000000000000223,-17.575460660532577606
0.377000000000000224,-17.540183245888929520
0.378000000000000225,-17.503339695151822752
0.379000000000000226,-17.464969372399320235
0.380000000000000226,-17.425111072364892095
0.381000000000000227,-17.383803023968159351
0.382000000000000228,-17.341082893860164660
0.383000000000000229,-17.296987789988822470
0.384000000000000230,-17.251554265189930959
0.385000000000000231,-17.204818320808794141
0.386000000000000232,-17.156815410356347940
0.387000000000000233,-17.107580443203769249
0.388000000000000234,-17.057147788318623327
0.389000000000000234,-17.005551278045409447
0.390000000000000235,-16.952824211932711052
0.391000000000000236,-16.898999360608975451
0.392000000000000237,-16.844108969708241119
0.393000000000000238,-16.788184763847215919
0.394000000000000239,-16.731257950654132571
0.395000000000000240,-16.673359224850251792
0.396000000000000241,-16.614518772383927825
0.397000000000000242,-16.554766274617151112
0.398000000000000242,-16.494130912564376246
0.399000000000000243,-16.432641371182846513
0.400000000000000244,-16.370325843713679603
0.401000000000000245,-16.307212036072819217
0.402000000000000246,-16.243327171290378175
0.403000000000000247,-16.178697993997253946
0.404000000000000248,-16.113350774957446276
0.405000000000000249,-16.047311315644300578
0.406000000000000250,-15.980604952859106760
0.407000000000000250,-15.913256563389930776
0.408000000000000251,-15.845290568708950474
0.409000000000000252,-15.776730939705998935
0.410000000000000253,-15.707601201456364848
0.411000000000000254,-15.637924438020519347
0.412000000000000255,-15.567723297273596827
0.413000000000000256,-15.497019995762329359
0.414000000000000257,-15.425836323587038379
0.415000000000000258,-15.354193649306441927
0.416000000000000258,-15.282112924862834902
0.417000000000000259,-15.209614690525285141
0.418000000000000260,-15.136719079848484526
0.419000000000000261,-15.063445824644848159
0.420000000000000262,-14.989814259967507937
0.421000000000000263,-14.915843329101951653
0.422000000000000264,-14.841551588563728359
0.423000000000000265,-14.766957213100173618
0.424000000000000266,-14.692078000693816975
0.425000000000000266,-14.616931377565077099
0.426000000000000267,-14.541534403172272860
0.427000000000000268,-14.465903775206609083
0.428000000000000269,-14.390055834580062211
0.429000000000000270,-14.314006570404206542
0.430000000000000271,-14.237771624957691330
0.431000000000000272,-14.161366298640738037
0.432000000000000273,-14.084805554914385795
0.433000000000000274,-14.008104025222900546
0.434000000000000274,-13.931276013897289090
0.435000000000000275,-13.854335503038376132
0.436000000000000276,-13.777296157377595165
0.437000000000000277,-13.700171329113818075
0.438000000000000278,-13.622974062724811262
0.439000000000000279,-13.545717099751612977
0.440000000000000280,-13.468412883554430337
0.441000000000000281,-13.391073564038611821
0.442000000000000282,-13.313711002349435830
0.443000000000000282,-13.236336775534230270
0.444000000000000283,-13.158962181170830164
0.445000000000000284,-13.081598241960964657
0.446000000000000285,-13.004255710287527137
0.447000000000000286,-12.926945072734833175
0.448000000000000287,-12.849676554570493181
0.449000000000000288,-12.772460124188359742
0.450000000000000289,-12.695305497511270687
0.451000000000000290,-12.618222142353037185
0.452000000000000290,-12.541219282738717666
0.453000000000000291,-12.464305903182449242
0.454000000000000292,-12.387490752922264647
0.455000000000000293,-12.310782350111038497
0.456000000000000294,-12.234188985963200480
0.457000000000000295,-12.157718728856547585
0.458000000000000296,-12.081379428388597574
0.459000000000000297,-12.005178719387238573
0.460000000000000298,-11.929124025874983772
0.461000000000000298,-11.853222564986760190
0.462000000000000299,-11.777481350840686147
0.463000000000000300,-11.701907198361590545
0.464000000000000301,-11.626506727057156709
0.465000000000000302,-11.551286364746371049
0.466000000000000303,-11.476252351240066929
0.467000000000000304,-11.401410741973593943
0.468000000000000305,-11.326767411591315948
0.469000000000000306,-11.252328057483014234
0.470000000000000306,-11.178098203272174516
0.471000000000000307,-11.104083202255930374
0.472000000000000308,-11.030288240797046839
0.473000000000000309,-10.956718341667663452
0.474000000000000310,-10.883378367345095228
0.475000000000000311,-10.810273023259631131
0.476000000000000312,-10.737406860994756386
0.477000000000000313,-10.664784281439510849
0.478000000000000314,-10.592409537893567872
0.479000000000000314,-10.520286739125072728
0.480000000000000315,-10.448419852381370276
0.481000000000000316,-10.376812706353115701
0.482000000000000317,-10.305468994091746993
0.483000000000000318,-10.234392275880814793
0.484000000000000319,-10.163585982061343671
0.485000000000000320,-10.093053415811638729
0.486000000000000321,-10.022797755881757809
0.487000000000000322,-9.952822059283104039
0.488000000000000322,-9.883129263933323472
0.489000000000000323,-9.813722191257175709
0.490000000000000324,-9.744603548743409505
0.491000000000000325,-9.675775932458344997
0.492000000000000326,-9.607241829516285136
0.493000000000000327,-9.539003620507445547
0.494000000000000328,-9.471063581883619520
0.495000000000000329,-9.403423888302116396
0.496000000000000330,-9.336086614928321481
0.497000000000000330,-9.269053739697502792
0.498000000000000331,-9.202327145536019160
0.499000000000000332,-9.135908622542736168
0.500000000000000333,-9.069799870130861308
0.501000000000000334,-9.004002499130704607
0.502000000000000335,-8.938518033853963374
0.503000000000000336,-8.873347914119868562
0.504000000000000337,-8.808493497243754078
0.505000000000000338,-8.743956059988468255
0.506000000000000338,-8.679736800479192382
0.507000000000000339,-8.615836840082064185
0.508000000000000340,-8.552257225247103634
0.509000000000000341,-8.488998929316082354
0.510000000000000342,-8.426062854295555127
0.511000000000000343,-8.363449832595810207
0.512000000000000344,-8.301160628735994251
0.513000000000000345,-8.239195941016088653
0.514000000000000346,-8.177556403156145848
0.515000000000000346,-8.116242585903242102
0.516000000000000347,-8.055254998606629968
0.517000000000000348,-7.994594090761736993
0.518000000000000349,-7.934260253523177653
0.519000000000000350,-7.874253821187615188
0.520000000000000351,-7.814575072646620768
0.521000000000000352,-7.755224232810297380
0.522000000000000353,-7.696201474001908238
0.523000000000000353,-7.637506917324060396
0.524000000000000354,-7.579140633997020871
0.525000000000000355,-7.521102646669406866
0.526000000000000356,-7.463392930701862937
0.527000000000000357,-7.406011415424202937
0.528000000000000358,-7.348957985366254775
0.529000000000000359,-7.292232481463204685
0.530000000000000360,-7.235834702235473870
0.531000000000000361,-7.179764404943929534
0.532000000000000361,-7.124021306720611513
0.533000000000000362,-7.068605085675550015
0.534000000000000363,-7.013515381980018226
0.535000000000000364,-6.958751798926675391
0.536000000000000365,-6.904313903967003618
0.537000000000000366,-6.850201229726484264
0.538000000000000367,-6.796413274997791021
0.539000000000000368,-6.742949505712649838
0.540000000000000369,-6.689809355892431419
0.541000000000000369,-6.636992228578209918
0.542000000000000370,-6.584497496740368661
0.543000000000000371,-6.532324504168350643
0.544000000000000372,-6.480472566340810481
0.545000000000000373,-6.428940971276636773
0.546000000000000374,-6.377728980367040279
0.547000000000000375,-6.326835829189254135
0.548000000000000376,-6.276260728302137437
0.549000000000000377,-6.226002864023977956
0.550000000000000377,-6.176061399192873225
0.551000000000000378,-6.126435473910049723
0.552000000000000379,-6.077124206266470097
0.553000000000000380,-6.028126693052977991
0.554000000000000381,-5.979442010454346423
0.555000000000000382,-5.931069214727653360
0.556000000000000383,-5.883007342865044009
0.557000000000000384,-5.835255413241517530
0.558000000000000385,-5.787812426247715969
0.559000000000000385,-5.740677364908282065
0.560000000000000386,-5.693849195485910286
0.561000000000000387,-5.647326868071466777
0.562000000000000388,-5.601109317160392287
0.563000000000000389,-5.555195462215761992
0.564000000000000390,-5.509584208218198498
0.565000000000000391,-5.464274446202908031
0.566000000000000392,-5.419265053784179109
0.567000000000000393,-5.374554895667536414
0.568000000000000393,-5.330142824149819880
0.569000000000000394,-5.286027679607423480
0.570000000000000395,-5.242208290973050744
0.571000000000000396,-5.198683476201012787
0.572000000000000397,-5.155452042721575978
0.573000000000000398,-5.112512787884336163
0.574000000000000399,-5.069864499391065316
0.575000000000000400,-5.027505955718078567
0.576000000000000401,-4.985435926528447581
0.577000000000000401,-4.943653173074325835
0.578000000000000402,-4.902156448589397364
0.579000000000000403,-4.860944498671859293
0.580000000000000404,-4.820016061658107809
0.581000000000000405,-4.779369868987187076
0.582000000000000406,-4.739004645556410544
0.583000000000000407,-4.698919110068143112
0.584000000000000408,-4.659111975368110059
0.585000000000000409,-4.619581948775294045
0.586000000000000409,-4.580327732403641328
0.587000000000000410,-4.541348023475812568
0.588000000000000411,-4.502641514629023511
0.589000000000000412,-4.464206894213324617
0.590000000000000413,-4.426042846582284085
0.591000000000000414,-4.388148052376419805
0.592000000000000415,-4.350521188799460148
0.593000000000000416,-4.313160929887549067
0.594000000000000417,-4.276065946771617554
0.595000000000000417,-4.239234907933153274
0.596000000000000418,-4.202666479453208481
0.597000000000000419,-4.166359325255253765
0.598000000000000420,-4.130312107341552519
0.599000000000000421,-4.094523486023557979
0.600000000000000422,-4.058992120146243110
0.601000000000000423,-4.023716667306620920
0.602000000000000424,-3.988695784066528027
0.603000000000000425,-3.953928126159816259
0.604000000000000425,-3.919412348694079729
0.605000000000000426,-3.885147106347022650
0.606000000000000427,-3.851131053557691697
0.607000000000000428,-3.817362844712403280
0.608000000000000429,-3.783841134325961697
