# CNT15-COO--3_2HYDROXYACETALDEHYDE-AC
# h[nm],U(h)[kJ/mol]
0.149999999999999994,112.513138615916432173
0.150999999999999995,109.998477004223587983
0.151999999999999996,108.254025228148435644
0.152999999999999997,106.707784281603608179
0.153999999999999998,105.136177621589311570
0.154999999999999999,103.485688091268158928
0.156000000000000000,101.774079727534541462
0.157000000000000001,100.039342104052650484
0.158000000000000002,98.316205745815324235
0.159000000000000002,96.627764241678121948
0.160000000000000003,94.984713177394255013
0.161000000000000004,93.387879211527078382
0.162000000000000005,91.831679987605951965
0.163000000000000006,90.307344193352918182
0.164000000000000007,88.805411045164504458
0.165000000000000008,87.317405907644896956
0.166000000000000009,85.836775731282358493
0.167000000000000010,84.359243316870291096
0.168000000000000010,82.882752958427801104
0.169000000000000011,81.407162508632580966
0.170000000000000012,79.933806619366094992
0.171000000000000013,78.465023131165935411
0.172000000000000014,77.003704638734006949
0.173000000000000015,75.552912456934876673
0.174000000000000016,74.115571130323772309
0.175000000000000017,72.694247918356140303
0.176000000000000018,71.291012565019627800
0.177000000000000018,69.907367203597658545
0.178000000000000019,68.544233556337829327
0.179000000000000020,67.201983871753725452
0.180000000000000021,65.880502642952620818
0.181000000000000022,64.579267552957574594
0.182000000000000023,63.297439910425410403
0.183000000000000024,62.033956794562115533
0.184000000000000025,60.787619034212958979
0.185000000000000026,59.557170885924769266
0.186000000000000026,58.341368784728601327
0.187000000000000027,57.139037792912539260
0.188000000000000028,55.949115365686623136
0.189000000000000029,54.770682804779006858
0.190000000000000030,53.602985307905520074
0.191000000000000031,52.445441874775688973
0.192000000000000032,51.297646531106963153
0.193000000000000033,50.159362412133091880
0.194000000000000034,49.030510234817143100
0.195000000000000034,47.911152608493317473
0.196000000000000035,46.801475508310105056
0.197000000000000036,45.701768082230252332
0.198000000000000037,44.612401794533681709
0.199000000000000038,43.533809737654742378
0.200000000000000039,42.466466777857547754
0.201000000000000040,41.410871044439360844
0.202000000000000041,40.367527130614810460
0.203000000000000042,39.336931249162809365
0.204000000000000042,38.319558478257498280
0.205000000000000043,37.315852142671943170
0.206000000000000044,36.326215302058642465
0.207000000000000045,35.351004260134168078
0.208000000000000046,34.390523964872592444
0.209000000000000047,33.445025138631230277
0.210000000000000048,32.514702956813785306
0.211000000000000049,31.599697082561693406
0.212000000000000050,30.700092861462564997
0.213000000000000050,29.815923482906679709
0.214000000000000051,28.947172922159165154
0.215000000000000052,28.093779488262725863
0.216000000000000053,27.255639816499403594
0.217000000000000054,26.432613159431760153
0.218000000000000055,25.624525846767561177
0.219000000000000056,24.831175800835701750
0.220000000000000057,24.052337010826938979
0.221000000000000058,23.287763884767183953
0.222000000000000058,22.537195413151355439
0.223000000000000059,21.800359092078075207
0.224000000000000060,21.076974566443134051
0.225000000000000061,20.366756965197772900
0.226000000000000062,19.669419910824707642
0.227000000000000063,18.984678194035119247
0.228000000000000064,18.312250112283365411
0.229000000000000065,17.651859477087548100
0.230000000000000066,17.003237300414362210
0.231000000000000066,16.366123174616848956
0.232000000000000067,15.740266363701579166
0.233000000000000068,15.125426626141058151
0.234000000000000069,14.521374791135613691
0.235000000000000070,13.927893111261022696
0.236000000000000071,13.344775414905194921
0.237000000000000072,12.771827081883195376
0.238000000000000073,12.208864865207470274
0.239000000000000073,11.655716581251478914
0.240000000000000074,11.112220689544688668
0.241000000000000075,10.578225782239687902
0.242000000000000076,10.053590001946378862
0.243000000000000077,9.538180405182671961
0.244000000000000078,9.031872287186391901
0.245000000000000079,8.534548482301897110
0.246000000000000080,8.046098652628952408
0.247000000000000081,7.566418576120904405
0.248000000000000081,7.095409443867898069
0.249000000000000082,6.632977174911218299
0.250000000000000111,6.179031755619490696
0.251000000000000112,5.733486609426096337
0.252000000000000113,5.296258001583223241
0.253000000000000114,4.867264482539231274
0.254000000000000115,4.446426372588352827
0.255000000000000115,4.033665289580500968
0.256000000000000116,3.628903720708609448
0.257000000000000117,3.232064638710451021
0.258000000000000118,2.843071162228340221
0.259000000000000119,2.461846259556967453
0.260000000000000120,2.088312494574034339
0.261000000000000121,1.722391813284954720
0.262000000000000122,1.364005369114696942
0.263000000000000123,1.013073384843955260
0.264000000000000123,0.669515048905080956
0.265000000000000124,0.333248443622468415
0.266000000000000125,0.004190502895551562
0.267000000000000126,-0.317743003223798615
0.268000000000000127,-0.632637459619889264
0.269000000000000128,-0.940579375408991281
0.270000000000000129,-1.241656333939095136
0.271000000000000130,-1.535956925923827487
0.272000000000000131,-1.823570668055156885
0.273000000000000131,-2.104587909339737273
0.274000000000000132,-2.379099727291298372
0.275000000000000133,-2.647197815990514069
0.276000000000000134,-2.908974367895909019
0.277000000000000135,-3.164521951156525681
0.278000000000000136,-3.413933384043019714
0.279000000000000137,-3.657301607977971880
0.280000000000000138,-3.894719560511268774
0.281000000000000139,-4.126280049454283727
0.282000000000000139,-4.352075629256531464
0.283000000000000140,-4.572198480583359981
0.284000000000000141,-4.786740293932333579
0.285000000000000142,-4.995792158010877948
0.286000000000000143,-5.199444453488260010
0.287000000000000144,-5.397786752631571261
0.288000000000000145,-5.590907725239226522
0.289000000000000146,-5.778895051194308685
0.290000000000000147,-5.961835339877552542
0.291000000000000147,-6.139814056601952785
0.292000000000000148,-6.312915456161287686
0.293000000000000149,-6.481222523520218992
0.294000000000000150,-6.644816921616355287
0.295000000000000151,-6.803778946192700516
0.296000000000000152,-6.958187487533119331
0.297000000000000153,-7.108119998932896699
0.298000000000000154,-7.253652471701562021
0.299000000000000155,-7.394859416464835355
0.300000000000000155,-7.531813850507110608
0.301000000000000156,-7.664587290874671055
0.302000000000000157,-7.793249752943017583
0.303000000000000158,-7.917869754138036953
0.304000000000000159,-8.038514322491188580
0.305000000000000160,-8.155249009702007612
0.306000000000000161,-8.268137908377504175
0.307000000000000162,-8.377243673116984368
0.308000000000000163,-8.482627545111707690
0.309000000000000163,-8.584349379932350033
0.310000000000000164,-8.682467678182268500
0.311000000000000165,-8.777039618701262924
0.312000000000000166,-8.868121094012899164
0.313000000000000167,-8.955766747717795795
0.314000000000000168,-9.040030013545626630
0.315000000000000169,-9.120963155790153820
0.316000000000000170,-9.198617310863506091
0.317000000000000171,-9.273042529718503957
0.318000000000000171,-9.344287820900788688
0.319000000000000172,-9.412401194006115190
0.320000000000000173,-9.477429703331271327
0.321000000000000174,-9.539419491520902739
0.322000000000000175,-9.598415833026091804
0.323000000000000176,-9.654463177203920665
0.324000000000000177,-9.707605190900682857
0.325000000000000178,-9.757884800374295509
0.326000000000000179,-9.805344232424639372
0.327000000000000179,-9.850025054612611797
0.328000000000000180,-9.891968214461025255
0.329000000000000181,-9.931214077542268370
0.330000000000000182,-9.967802464368515913
0.331000000000000183,-10.001772686011664248
0.332000000000000184,-10.033163578389888926
0.333000000000000185,-10.062013535168011558
0.334000000000000186,-10.088360539227986479
0.335000000000000187,-10.112242192674653296
0.336000000000000187,-10.133695745350468798
0.337000000000000188,-10.152758121840223637
0.338000000000000189,-10.169465946954748148
0.339000000000000190,-10.183855569688976317
0.340000000000000191,-10.195963085656090996
0.341000000000000192,-10.205824358005653352
0.342000000000000193,-10.213475036838659094
0.343000000000000194,-10.218950577137736246
0.344000000000000195,-10.222286255234767083
0.345000000000000195,-10.223517183842988132
0.346000000000000196,-10.222678325683549616
0.347000000000000197,-10.219804505740365030
0.348000000000000198,-10.214930422179795855
0.349000000000000199,-10.208090655974228156
0.350000000000000200,-10.199319679271022565
0.351000000000000201,-10.188651862550047511
0.352000000000000202,-10.176121480614691350
0.353000000000000203,-10.161762717462618610
0.354000000000000203,-10.145609670083580056
0.355000000000000204,-10.127696351232241767
0.356000000000000205,-10.108056691224829748
0.357000000000000206,-10.086724538808660157
0.358000000000000207,-10.063733661153522192
0.359000000000000208,-10.039117743014283946
0.360000000000000209,-10.012910385113597656
0.361000000000000210,-9.985145101793232669
0.362000000000000210,-9.955855317982180708
0.363000000000000211,-9.925074365528921305
0.364000000000000212,-9.892835478944590477
0.365000000000000213,-9.859171790602772489
0.366000000000000214,-9.824116325440874320
0.367000000000000215,-9.787701995206750993
0.368000000000000216,-9.749961592293441726
0.369000000000000217,-9.710927783203308294
0.370000000000000218,-9.670633101682057031
0.371000000000000218,-9.629109941561404540
0.372000000000000219,-9.586390549348125845
0.373000000000000220,-9.542507016595786595
0.374000000000000221,-9.497491272094023884
0.375000000000000222,-9.451375073908760527
0.376000000000000223,-9.404190001305625657
0.377000000000000224,-9.355967446587095893
0.378000000000000225,-9.306738606872588804
0.379000000000000226,-9.256534475849353072
0.380000000000000226,-9.205385835520599969
0.381000000000000227,-9.153323247975716725
0.382000000000000228,-9.100377047206363201
0.383000000000000229,-9.046577330990599464
0.384000000000000230,-8.991953952865866739
0.385000000000000231,-8.936536514210647653
0.386000000000000232,-8.880354356452809128
0.387000000000000233,-8.823436553421917239
0.388000000000000234,-8.765811903861058241
0.389000000000000234,-8.707508924113053439
0.390000000000000235,-8.648555840994216481
0.391000000000000236,-8.588980584868149748
0.392000000000000237,-8.528810782930642986
0.393000000000000238,-8.468073752715962854
0.394000000000000239,-8.406796495833429361
0.395000000000000240,-8.345005691942654735
0.396000000000000241,-8.282727692974450662
0.397000000000000242,-8.219988517603702860
0.398000000000000242,-8.156813845979721478
0.399000000000000243,-8.093229014718477998
0.400000000000000244,-8.029259012160526510
0.401000000000000245,-7.964928473897764150
0.402000000000000246,-7.900261678571074420
0.403000000000000247,-7.835282543940587985
0.404000000000000248,-7.770014623229483774
0.405000000000000249,-7.704481101741619042
0.406000000000000250,-7.638704793752722821
0.407000000000000250,-7.572708139674370287
0.408000000000000251,-7.506513203489349806
0.409000000000000252,-7.440141670456672962
0.410000000000000253,-7.373614845083901415
0.411000000000000254,-7.306953649364086978
0.412000000000000255,-7.240178621274284687
0.413000000000000256,-7.173309913532165183
0.414000000000000257,-7.106367292606829089
0.415000000000000258,-7.039370137979891418
0.416000000000000258,-6.972337441652259216
0.417000000000000259,-6.905287807892072749
0.418000000000000260,-6.838239453218825759
0.419000000000000261,-6.771210206618586191
0.420000000000000262,-6.704217509984999879
0.421000000000000263,-6.637278418780615752
0.422000000000000264,-6.570409602912851810
0.423000000000000265,-6.503627347818822457
0.424000000000000266,-6.436947555753270933
0.425000000000000266,-6.370385747273426880
0.426000000000000267,-6.303957062914880893
0.427000000000000268,-6.237676265052265911
0.428000000000000269,-6.171557739938566378
0.429000000000000270,-6.105615499916931199
0.430000000000000271,-6.039863185798557410
0.431000000000000272,-5.974314069400604055
0.432000000000000273,-5.908981056237734286
0.433000000000000274,-5.843876688361131500
0.434000000000000274,-5.779013147338689649
0.435000000000000275,-5.714402257370299054
0.436000000000000276,-5.650055488532019332
0.437000000000000277,-5.585983960143015459
0.438000000000000278,-5.522198444249302618
0.439000000000000279,-5.458709369218316176
0.440000000000000280,-5.395526823438326680
0.441000000000000281,-5.332660559116983556
0.442000000000000282,-5.270119996173233901
0.443000000000000282,-5.207914226216900033
0.444000000000000283,-5.146052016610472180
0.445000000000000284,-5.084541814607622889
0.446000000000000285,-5.023391751562991558
0.447000000000000286,-4.962609647208258146
0.448000000000000287,-4.902203013989043789
0.449000000000000288,-4.842179061457932754
0.450000000000000289,-4.782544700718455388
0.451000000000000290,-4.723306548915397585
0.452000000000000290,-4.664470933766748928
0.453000000000000291,-4.606043898132646142
0.454000000000000292,-4.548031204617019263
0.455000000000000293,-4.490438340197481004
0.456000000000000294,-4.433270520879418086
0.457000000000000295,-4.376532696370124320
0.458000000000000296,-4.320229554769047908
0.459000000000000297,-4.264365527270387979
0.460000000000000298,-4.208944792874257601
0.461000000000000298,-4.153971283102924517
0.462000000000000299,-4.099448686718629276
0.463000000000000300,-4.045380454439619022
0.464000000000000301,-3.991769803651264770
0.465000000000000302,-3.938619723109110904
0.466000000000000303,-3.885932977630866425
0.467000000000000304,-3.833712112774495751
0.468000000000000305,-3.781959459499705467
0.469000000000000306,-3.730677138810067017
0.470000000000000306,-3.679867066373431417
0.471000000000000307,-3.629530957118006107
0.472000000000000308,-3.579670329801998285
0.473000000000000309,-3.530286511554446172
0.474000000000000310,-3.481380642385270896
0.475000000000000311,-3.432953679662409829
0.476000000000000312,-3.385006402554369576
0.477000000000000313,-3.337539416436077655
0.478000000000000314,-3.290553157256601136
0.479000000000000314,-3.244047895867017139
0.480000000000000315,-3.198023742306846273
0.481000000000000316,-3.152480650047785993
0.482000000000000317,-3.107418420193216235
0.483000000000000318,-3.062836705632359546
0.484000000000000319,-3.018735015147818945
0.485000000000000320,-2.975112717475491220
0.486000000000000321,-2.931969045315740985
0.487000000000000322,-2.889303099294974864
0.488000000000000322,-2.847113851876650337
0.489000000000000323,-2.805400151221054017
0.490000000000000324,-2.764160724992998475
0.491000000000000325,-2.723394184116846528
0.492000000000000326,-2.683099026478207527
0.493000000000000327,-2.643273640571860206
0.494000000000000328,-2.603916309095334114
0.495000000000000329,-2.565025212487808570
0.496000000000000330,-2.526598432413914797
0.497000000000000330,-2.488633955192196545
0.498000000000000331,-2.451129675167895261
0.499000000000000332,-2.414083398029982952
0.500000000000000333,-2.377492844072180311
0.501000000000000334,-2.341355651397889481
0.502000000000000335,-2.305669379069017921
0.503000000000000336,-2.270431510198649416
0.504000000000000337,-2.235639454987587094
0.505000000000000338,-2.201290553704834174
0.506000000000000338,-2.167382079612149237
0.507000000000000339,-2.133911241832769257
0.508000000000000340,-2.100875188164486040
0.509000000000000341,-2.068271007837360287
0.510000000000000342,-2.036095734216181619
0.511000000000000343,-2.004346347448072940
0.512000000000000344,-1.973019777055438961
0.513000000000000345,-1.942112904474663448
0.514000000000000346,-1.911622565540876950
0.515000000000000346,-1.881545552919150710
0.516000000000000347,-1.851878618482542205
0.517000000000000348,-1.822618475637461044
0.518000000000000349,-1.793761801596665206
0.519000000000000350,-1.765305239600516440
0.520000000000000351,-1.737245401086845220
0.521000000000000352,-1.709578867810006120
0.522000000000000353,-1.682302193909593457
0.523000000000000353,-1.655411907929339677
0.524000000000000354,-1.628904514786812641
0.525000000000000355,-1.602776497694362590
0.526000000000000356,-1.577024320031955806
0.527000000000000357,-1.551644427172503615
0.528000000000000358,-1.526633248260131914
0.529000000000000359,-1.501987197942205476
0.530000000000000360,-1.477702678055500485
0.531000000000000361,-1.453776079267300236
0.532000000000000361,-1.430203782671924273
0.533000000000000362,-1.406982161343406812
0.534000000000000363,-1.384107581844881363
0.535000000000000364,-1.361576405695356540
0.536000000000000365,-1.339384990794505237
0.537000000000000366,-1.317529692806123309
0.538000000000000367,-1.296006866500861943
0.539000000000000368,-1.274812867058977783
0.540000000000000369,-1.253944051333609533
0.541000000000000369,-1.233396779075386807
0.542000000000000370,-1.213167414118892173
0.543000000000000371,-1.193252325531700908
0.544000000000000372,-1.173647888726633948
0.545000000000000373,-1.154350486537871978
0.546000000000000374,-1.135356510261548824
0.547000000000000375,-1.116662360661517139
0.548000000000000376,-1.098264448940919236
0.549000000000000377,-1.080159197680179428
0.550000000000000377,-1.062343041742057181
0.551000000000000378,-1.044812429144435173
0.552000000000000379,-1.027563821901429364
0.553000000000000380,-1.010593696833477884
0.554000000000000381,-0.993898546346988043
0.555000000000000382,-0.977474879184241252
0.556000000000000383,-0.961319221144051439
0.557000000000000384,-0.945428115773916389
0.558000000000000385,-0.929798125034139944
0.559000000000000385,-0.914425829934626622
0.560000000000000386,-0.899307831144862346
0.561000000000000387,-0.884440749577720231
0.562000000000000388,-0.869821226947632753
0.563000000000000389,-0.855445926303736059
0.564000000000000390,-0.841311532538526641
0.565000000000000391,-0.827414752872608572
0.566000000000000392,-0.813752317316067675
0.567000000000000393,-0.800320979107058683
0.568000000000000393,-0.787117515128080703
0.569000000000000394,-0.774138726300541036
0.570000000000000395,-0.761381437958095431
0.571000000000000396,-0.748842500199280892
0.572000000000000397,-0.736518788220002163
0.573000000000000398,-0.724407202626289548
0.574000000000000399,-0.712504669727935469
0.575000000000000400,-0.700808141813388685
0.576000000000000401,-0.689314597406469276
0.577000000000000401,-0.678021041505372013
0.578000000000000402,-0.666924505804376122
0.579000000000000403,-0.656022048898757038
0.580000000000000404,-0.645310756473390312
0.581000000000000405,-0.634787741475413947
0.582000000000000406,-0.624450144271453511
0.583000000000000407,-0.614295132789815623
0.584000000000000408,-0.604319902648073670
0.585000000000000409,-0.594521677266471316
0.586000000000000409,-0.584897707967542368
0.587000000000000410,-0.575445274062373335
0.588000000000000411,-0.566161682923859821
0.589000000000000412,-0.557044270047405199
0.590000000000000413,-0.548090399099377512
0.591000000000000414,-0.539297461953748059
0.592000000000000415,-0.530662878717263586
0.593000000000000416,-0.522184097743494058
0.594000000000000417,-0.513858595636121018
0.595000000000000417,-0.505683877241856261
0.596000000000000418,-0.497657475633213608
0.597000000000000419,-0.489776952081618422
0.598000000000000420,-0.482039896021041414
0.599000000000000421,-0.474443925002569600
0.600000000000000422,-0.466986684640183669
0.601000000000000423,-0.459665848548051759
0.602000000000000424,-0.452479118269647707
0.603000000000000425,-0.445424223198985558
0.604000000000000425,-0.438498920494244770
0.605000000000000426,-0.431700994984069386
0.606000000000000427,-0.425028259066866365
0.607000000000000428,-0.418478552603222920
0.608000000000000429,-0.412049742801949281
0.609000000000000430,-0.405739724099707266
0.610000000000000431,-0.399546418034755435
0.611000000000000432,-0.393467773114856700
0.612000000000000433,-0.387501764679653804
