# Ag332_GLNSCA-JS
# h[nm],U(h)[kJ/mol]
0.149999999999999994,102.160310810508079271
0.150999999999999995,97.932678845524009148
0.151999999999999996,94.521337610790538974
0.152999999999999997,91.301541645197431762
0.153999999999999998,88.081150015411338927
0.154999999999999999,84.850513044575635035
0.156000000000000000,81.656780903403628713
0.157000000000000001,78.547783023614471176
0.158000000000000002,75.552580678800339342
0.159000000000000002,72.679614641869065395
0.160000000000000003,69.921889308474860059
0.161000000000000004,67.263747702772690218
0.162000000000000005,64.686751921447182667
0.163000000000000006,62.173811476466838144
0.164000000000000007,59.711527749984668390
0.165000000000000008,57.291083177953780137
0.166000000000000009,54.908108430716481507
0.167000000000000010,52.561936711950899337
0.168000000000000010,50.254575451600601355
0.169000000000000011,47.989633090381211389
0.170000000000000012,45.771353072421504748
0.171000000000000013,43.603837378855473617
0.172000000000000014,41.490490073553736750
0.173000000000000015,39.433676083907542420
0.174000000000000016,37.434568997878471919
0.175000000000000017,35.493150820234262710
0.176000000000000018,33.608323377481404748
0.177000000000000018,31.778092824297573316
0.178000000000000019,29.999793448951955099
0.179000000000000020,28.270323181866967133
0.180000000000000021,26.586369811547832853
0.181000000000000022,24.944613205148094437
0.182000000000000023,23.341894401499054368
0.183000000000000024,21.775347087096786680
0.184000000000000025,20.242490621926130245
0.185000000000000026,18.741286490383593843
0.186000000000000026,17.270161909324723837
0.187000000000000027,15.828005456609417934
0.188000000000000028,14.414140125596011544
0.189000000000000029,13.028279296749445848
0.190000000000000030,11.670470868419901223
0.191000000000000031,10.341034310717754252
0.192000000000000032,9.040494787572573188
0.193000000000000033,7.769517803382695043
0.194000000000000034,6.528847126720906502
0.195000000000000034,5.319248064445547541
0.196000000000000035,4.141457532981116074
0.197000000000000036,2.996141816935857349
0.198000000000000037,1.883862427901871639
0.199000000000000038,0.805050081214489177
0.200000000000000039,-0.240013506055209547
0.201000000000000040,-1.251206531504536201
0.202000000000000041,-2.228571444236862042
0.203000000000000042,-3.172313518406002508
0.204000000000000042,-4.082794538655018179
0.205000000000000043,-4.960522489059792761
0.206000000000000044,-5.806138119570780631
0.207000000000000045,-6.620399220085353420
0.208000000000000046,-7.404163369183899945
0.209000000000000047,-8.158369848343141939
0.210000000000000048,-8.884021328321043853
0.211000000000000049,-9.582165846725359870
0.212000000000000050,-10.253879508046493285
0.213000000000000050,-10.900250252398899775
0.214000000000000051,-11.522362958952793832
0.215000000000000052,-12.121286076024947675
0.216000000000000053,-12.698059903010136651
0.217000000000000054,-13.253686590324539551
0.218000000000000055,-13.789121872503747213
0.219000000000000056,-14.305268506479487556
0.220000000000000057,-14.802971351571994063
0.221000000000000058,-15.283013999430256291
0.222000000000000058,-15.746116840489268185
0.223000000000000059,-16.192936437857802900
0.224000000000000060,-16.624066069249757049
0.225000000000000061,-17.040037291948603837
0.226000000000000062,-17.441322384185056649
0.227000000000000063,-17.828337518073425372
0.228000000000000064,-18.201446523787875975
0.229000000000000065,-18.560965111410006045
0.230000000000000066,-18.907165425331506015
0.231000000000000066,-19.240280815798364245
0.232000000000000067,-19.560510722729734567
0.233000000000000068,-19.868025577987939556
0.234000000000000069,-20.162971643514520537
0.235000000000000070,-20.445475713930960637
0.236000000000000071,-20.715649623122544654
0.237000000000000072,-20.973594504816308159
0.238000000000000073,-21.219404767096101239
0.239000000000000073,-21.453171750074865543
0.240000000000000074,-21.674987044498571720
0.241000000000000075,-21.884945456842711309
0.242000000000000076,-22.083147613460674563
0.243000000000000077,-22.269702202550572423
0.244000000000000078,-22.444727858132615950
0.245000000000000079,-22.608354694897464299
0.246000000000000080,-22.760725506729578171
0.247000000000000081,-22.901996644969049299
0.248000000000000081,-23.032338595094536515
0.249000000000000082,-23.151936272539575867
0.250000000000000111,-23.260989059844668247
0.251000000000000112,-23.359710608349754324
0.252000000000000113,-23.448328428199776141
0.253000000000000114,-23.527083290616420896
0.254000000000000115,-23.596228466237317178
0.255000000000000115,-23.656028822879608953
0.256000000000000116,-23.706759805398235130
0.257000000000000117,-23.748706319418246835
0.258000000000000118,-23.782161539663874805
0.259000000000000119,-23.807425662421387358
0.260000000000000120,-23.824804620388803755
0.261000000000000121,-23.834608776810966901
0.262000000000000122,-23.837151614402170452
0.263000000000000123,-23.832748433138938537
0.264000000000000123,-23.821715069585977176
0.265000000000000124,-23.804366649013790180
0.266000000000000125,-23.781016380191978499
0.267000000000000126,-23.751974401410116400
0.268000000000000127,-23.717546684998506379
0.269000000000000128,-23.678034006401183831
0.270000000000000129,-23.633730982700889456
0.271000000000000130,-23.584925184413343402
0.272000000000000131,-23.531896323361110035
0.273000000000000131,-23.474915518505245160
0.274000000000000132,-23.414244640758987259
0.275000000000000133,-23.350135737030043970
0.276000000000000134,-23.282830533036182885
0.277000000000000135,-23.212560013811611270
0.278000000000000136,-23.139544080265775250
0.279000000000000137,-23.063991279669970424
0.280000000000000138,-22.986098607526823656
0.281000000000000139,-22.906051377920029211
0.282000000000000139,-22.824023159143283834
0.283000000000000140,-22.740175771163940510
0.284000000000000141,-22.654659341285242391
0.285000000000000142,-22.567612414226871920
0.286000000000000143,-22.479162112742887558
0.287000000000000144,-22.389424344835553882
0.288000000000000145,-22.298504053599625507
0.289000000000000146,-22.206495505738999441
0.290000000000000147,-22.113482614835838547
0.291000000000000147,-22.019539295514281463
0.292000000000000148,-21.924729844727231409
0.293000000000000149,-21.829109346499070199
0.294000000000000150,-21.732724096579261186
0.295000000000000151,-21.635612043597507892
0.296000000000000152,-21.537803243458430558
0.297000000000000153,-21.439320323870781237
0.298000000000000154,-21.340178956069529193
0.299000000000000155,-21.240388330959017793
0.300000000000000155,-21.139951637077746938
0.301000000000000156,-21.038866537960160485
0.302000000000000157,-20.937125646646006061
0.303000000000000158,-20.834716995262439809
0.304000000000000159,-20.731624497776703464
0.305000000000000160,-20.627828404186615785
0.306000000000000161,-20.523305744582735599
0.307000000000000162,-20.418030761677155027
0.308000000000000163,-20.311975330550588126
0.309000000000000163,-20.205109364520151161
0.310000000000000164,-20.097401206175270261
0.311000000000000165,-19.988818002767096971
0.312000000000000166,-19.879326065269044221
0.313000000000000167,-19.768891210550588511
0.314000000000000168,-19.657479086224462606
0.315000000000000169,-19.545055477838157998
0.316000000000000170,-19.431586598184647841
0.317000000000000171,-19.317039358603675936
0.318000000000000171,-19.201381622234901414
0.319000000000000172,-19.084582439267357756
0.320000000000000173,-18.966612264305563684
0.321000000000000174,-18.847443156042764656
0.322000000000000175,-18.727048959494887015
0.323000000000000176,-18.605405471106443827
0.324000000000000177,-18.482490587090843803
0.325000000000000178,-18.358284435413217750
0.326000000000000179,-18.232769491864964095
0.327000000000000179,-18.105930680713406389
0.328000000000000180,-17.977755460441407820
0.329000000000000181,-17.848233895117186165
0.330000000000000182,-17.717358711955558448
0.331000000000000183,-17.585125345650293838
0.332000000000000184,-17.451531970069833477
0.333000000000000185,-17.316579517919134190
0.334000000000000186,-17.180271688977189370
0.335000000000000187,-17.042614947523031077
0.336000000000000187,-16.903618509564413586
0.337000000000000188,-16.763294320480873978
0.338000000000000189,-16.621657023689632382
0.339000000000000190,-16.478723920935841818
0.340000000000000191,-16.334514924800433988
0.341000000000000192,-16.189052504009801225
0.342000000000000193,-16.042361622118423981
0.343000000000000194,-15.894469670124294680
0.344000000000000195,-15.745406393561461655
0.345000000000000195,-15.595203814599880587
0.346000000000000196,-15.443896149665889084
0.347000000000000197,-15.291519723080146065
0.348000000000000198,-15.138112877192293482
0.349000000000000199,-14.983715879473459509
0.350000000000000200,-14.828370827009425881
0.351000000000000201,-14.672121548818447323
0.352000000000000202,-14.515013506398815935
0.353000000000000203,-14.357093692892362924
0.354000000000000203,-14.198410531230809539
0.355000000000000204,-14.039013771612971482
0.356000000000000205,-13.878954388642103623
0.357000000000000206,-13.718284478433783846
0.358000000000000207,-13.557057155986125707
0.359000000000000208,-13.395326453086514817
0.360000000000000209,-13.233147217010474250
0.361000000000000210,-13.070575010251499037
0.362000000000000210,-12.907666011503096115
0.363000000000000211,-12.744476918098017748
0.364000000000000212,-12.581064850093431673
0.365000000000000213,-12.417487256174965182
0.366000000000000214,-12.253801821537651406
0.367000000000000215,-12.090066377886950377
0.368000000000000216,-11.926338815689113915
0.369000000000000217,-11.762676998786371740
0.370000000000000218,-11.599138681479686852
0.371000000000000218,-11.435781428169008223
0.372000000000000219,-11.272662535629379477
0.373000000000000220,-11.109838957989641273
0.374000000000000221,-10.947367234469767894
0.375000000000000222,-10.785303419922515289
0.376000000000000223,-10.623703018215390870
0.377000000000000224,-10.462620918479615284
0.378000000000000225,-10.302111334244196783
0.379000000000000226,-10.142227745464793998
0.380000000000000226,-9.983022843449717243
0.381000000000000227,-9.824548478677678887
0.382000000000000228,-9.666855611495659417
0.383000000000000229,-9.509994265678734848
0.384000000000000230,-9.354013484827632396
0.385000000000000231,-9.198961291574949684
0.386000000000000232,-9.044884649565354096
0.387000000000000233,-8.891829428170879623
0.388000000000000234,-8.739840369898013606
0.389000000000000234,-8.588961060439615380
0.390000000000000235,-8.439233901320957187
0.391000000000000236,-8.290700085086374571
0.392000000000000237,-8.143399572969773459
0.393000000000000238,-7.997371074990243578
0.394000000000000239,-7.852652032411294947
0.395000000000000240,-7.709278602500729605
0.396000000000000241,-7.567285645526288462
0.397000000000000242,-7.426706713920784964
0.398000000000000242,-7.287574043549521541
0.399000000000000243,-7.149918547011578696
0.400000000000000244,-7.013769808905840009
0.401000000000000245,-6.879156082992534671
0.402000000000000246,-6.746104291180192725
0.403000000000000247,-6.614640024268032548
0.404000000000000248,-6.484787544373912915
0.405000000000000249,-6.356569788978018387
0.406000000000000250,-6.230008376512720325
0.407000000000000250,-6.105123613429713103
0.408000000000000251,-5.981934502675861687
0.409000000000000252,-5.860458753510181751
0.410000000000000253,-5.740712792594804270
0.411000000000000254,-5.622711776294099018
0.412000000000000255,-5.506469604116746908
0.413000000000000256,-5.391998933236854086
0.414000000000000257,-5.279311194031210519
0.415000000000000258,-5.168416606571098804
0.416000000000000258,-5.059324198008248175
0.417000000000000259,-4.952041820795846760
0.418000000000000260,-4.846576171686977297
0.419000000000000261,-4.742932811454034336
0.420000000000000262,-4.641116185274423600
0.421000000000000263,-4.541129643728975651
0.422000000000000264,-4.442975464361237137
0.423000000000000265,-4.346654873747096914
0.424000000000000266,-4.252168070026015378
0.425000000000000266,-4.159514245846271940
0.426000000000000267,-4.068691611678476150
0.427000000000000268,-3.979697419453017915
0.428000000000000269,-3.892527986478595547
0.429000000000000270,-3.807178719600663008
0.430000000000000271,-3.723644139559934896
0.431000000000000272,-3.641917905512795706
0.432000000000000273,-3.561992839676838773
0.433000000000000274,-3.483860952066316852
0.434000000000000274,-3.407513465283654064
0.435000000000000275,-3.332940839334745498
0.436000000000000276,-3.260132796437132274
0.437000000000000277,-3.189078345791443336
0.438000000000000278,-3.119765808288109010
0.439000000000000279,-3.052182841122520696
0.440000000000000280,-2.986316462293150842
0.441000000000000281,-2.922153074958551588
0.442000000000000282,-2.859678491630380126
0.443000000000000282,-2.798877958180746361
0.444000000000000283,-2.739736177643593784
0.445000000000000284,-2.682237333790840061
0.446000000000000285,-2.626365114465140316
0.447000000000000286,-2.572102734652564671
0.448000000000000287,-2.519432959279067408
0.449000000000000288,-2.468338125716208253
0.450000000000000289,-2.418800165982247563
0.451000000000000290,-2.370800628625923778
0.452000000000000290,-2.324320700281115926
0.453000000000000291,-2.279341226881570481
0.454000000000000292,-2.235842734525784081
0.455000000000000293,-2.193805449982909828
0.456000000000000294,-2.153209320831604323
0.457000000000000295,-2.114034035224274355
0.458000000000000296,-2.076259041270264394
0.459000000000000297,-2.039863566032011910
0.460000000000000298,-2.004826634129122986
0.461000000000000298,-1.971127085945874713
0.462000000000000299,-1.938743595438471967
0.463000000000000300,-1.907654687538827387
0.464000000000000301,-1.877838755152457129
0.465000000000000302,-1.849274075748532864
0.466000000000000303,-1.821938827540738881
0.467000000000000304,-1.795811105258061646
0.468000000000000305,-1.770868935505326203
0.469000000000000306,-1.747090291713518484
0.470000000000000306,-1.724453108680605640
0.471000000000000307,-1.702935296703885104
0.472000000000000308,-1.682514755305418275
0.473000000000000309,-1.663169386552330264
0.474000000000000310,-1.644877107974312080
0.475000000000000311,-1.627615865080887403
0.476000000000000312,-1.611363643481426022
0.477000000000000313,-1.596098480611063408
0.478000000000000314,-1.581798477066143960
0.479000000000000314,-1.568441807552986678
0.480000000000000315,-1.556006731453982272
0.481000000000000316,-1.544471603015405758
0.482000000000000317,-1.533814881161408961
0.483000000000000318,-1.524015138938958902
0.484000000000000319,-1.515051072598592175
0.485000000000000320,-1.506901510316177806
0.486000000000000321,-1.499545420560834730
0.487000000000000322,-1.492961920114457497
0.488000000000000322,-1.487130281748395122
0.489000000000000323,-1.482029941562898578
0.490000000000000324,-1.477640505995132747
0.491000000000000325,-1.473941758501600363
0.492000000000000326,-1.470913665920891900
0.493000000000000327,-1.468536384522812543
0.494000000000000328,-1.466790265749959188
0.495000000000000329,-1.465655861657840564
0.496000000000000330,-1.465113930059778413
0.497000000000000330,-1.465145439382720571
0.498000000000000331,-1.465731573240296681
0.499000000000000332,-1.466853734729256731
0.500000000000000333,-1.468493550455650887
0.501000000000000334,-1.470632874296982306
0.502000000000000335,-1.473253790906554839
0.503000000000000336,-1.476338618966338334
0.504000000000000337,-1.479869914194509972
0.505000000000000338,-1.483830472113932375
0.506000000000000338,-1.488203330587726247
0.507000000000000339,-1.492971772128062868
0.508000000000000340,-1.498119325984335948
0.509000000000000341,-1.503629770016693179
0.510000000000000342,-1.509487132361022388
0.511000000000000343,-1.515675692891284676
0.512000000000000344,-1.522179984485136472
0.513000000000000345,-1.528984794098656064
0.514000000000000346,-1.536075163655988174
0.515000000000000346,-1.543436390759568511
0.516000000000000347,-1.551054029226603292
0.517000000000000348,-1.558913889457388624
0.518000000000000349,-1.567002038640916695
0.519000000000000350,-1.575304800803202010
0.520000000000000351,-1.583808756703736886
0.521000000000000352,-1.592500743585202994
0.522000000000000353,-1.601367854781736044
0.523000000000000353,-1.610397439190772717
0.524000000000000354,-1.619577100613498910
0.525000000000000355,-1.628894696968843148
0.526000000000000356,-1.638338339385805753
0.527000000000000357,-1.647896391178912623
0.528000000000000358,-1.657557466711448324
0.529000000000000359,-1.667310430150977352
0.530000000000000360,-1.677144394121726334
0.531000000000000361,-1.687048718258138180
0.532000000000000361,-1.697013007663939588
0.533000000000000362,-1.707027111280901677
0.534000000000000363,-1.717081120171452202
0.535000000000000364,-1.727165365719101731
0.536000000000000365,-1.737270417750699680
0.537000000000000366,-1.747387082584299645
0.538000000000000367,-1.757506401006440955
0.539000000000000368,-1.767619646182482018
0.540000000000000369,-1.777718321503589438
0.541000000000000369,-1.787794158373863684
0.542000000000000370,-1.797839113941021028
0.543000000000000371,-1.807845368773919104
0.544000000000000372,-1.817805324490216590
0.545000000000000373,-1.827711601337245639
0.546000000000000374,-1.837557035729222576
0.547000000000000375,-1.847334677743742715
0.548000000000000376,-1.857037788580482296
0.549000000000000377,-1.866659837984897097
0.550000000000000377,-1.876194501639675938
0.551000000000000378,-1.885635658526621183
0.552000000000000379,-1.894977388261486650
0.553000000000000380,-1.904213968404344870
0.554000000000000381,-1.913339871747844922
0.555000000000000382,-1.922349763585769367
0.556000000000000383,-1.931238498964129580
0.557000000000000384,-1.940001119917021288
0.558000000000000385,-1.948632852689384354
0.559000000000000385,-1.957129104948734266
0.560000000000000386,-1.965485462987816234
0.561000000000000387,-1.973697688920190263
0.562000000000000388,-1.981761717870546224
0.563000000000000389,-1.989673655161573906
0.564000000000000390,-1.997429773499112216
0.565000000000000391,-2.005026510157262187
0.566000000000000392,-2.012460464165072516
0.567000000000000393,-2.019728393496322827
0.568000000000000393,-2.026827212263929034
0.569000000000000394,-2.033753987920396078
0.570000000000000395,-2.040505938465681179
0.571000000000000396,-2.047080429663796775
0.572000000000000397,-2.053474972269444976
0.573000000000000398,-2.059687219265858182
0.574000000000000399,-2.065714963115040881
0.575000000000000400,-2.071556133021522417
0.576000000000000401,-2.077208792210670119
0.577000000000000401,-2.082671135222600167
0.578000000000000402,-2.087941485222649440
0.579000000000000403,-2.093018291329324931
0.580000000000000404,-2.097900125960616258
0.581000000000000405,-2.102585682199531014
0.582000000000000406,-2.107073771179594601
0.583000000000000407,-2.111363319491135204
0.584000000000000408,-2.115453366609021835
0.585000000000000409,-2.119343062342521566
0.586000000000000409,-2.123031664307981625
0.587000000000000410,-2.126518535424851031
0.588000000000000411,-2.129803141435666625
0.589000000000000412,-2.132885048450510190
0.590000000000000413,-2.135763920516431824
0.591000000000000414,-2.138439517212318286
0.592000000000000415,-2.140911691269616668
0.593000000000000416,-2.143180386219332156
0.594000000000000417,-2.145245634065674700
0.595000000000000417,-2.147107552986662782
0.596000000000000418,-2.148766345062051109
0.597000000000000419,-2.150222294028822478
0.598000000000000420,-2.151475763064530700
0.599000000000000421,-2.152527192598719274
0.600000000000000422,-2.153377098152637448
0.601000000000000423,-2.154026068207415712
0.602000000000000424,-2.154474762100893948
0.603000000000000425,-2.154723907953243867
0.604000000000000425,-2.154774300621457250
0.605000000000000426,-2.154626799682863858
0.606000000000000427,-2.154282327447733181
0.607000000000000428,-2.153741867000980470
0.608000000000000429,-2.153006460273107159
0.609000000000000430,-2.152077206140291743
