# Ag332_METSCA-JS
# h[nm],U(h)[kJ/mol]
0.149999999999999994,113.246133750905840998
0.150999999999999995,108.060796906554287489
0.151999999999999996,105.162315887617339172
0.152999999999999997,102.715087574867922626
0.153999999999999998,100.081818715665121999
0.154999999999999999,97.172869737937631385
0.156000000000000000,94.101182654627791635
0.157000000000000001,91.014781070101918203
0.158000000000000002,88.027820156255359052
0.159000000000000002,85.202701180838701589
0.160000000000000003,82.555724188218803761
0.161000000000000004,80.071117755242511294
0.162000000000000005,77.715736828837592043
0.163000000000000006,75.451045503744268217
0.164000000000000007,73.241379721646438838
0.165000000000000008,71.058682375067633075
0.166000000000000009,68.884411542815030316
0.167000000000000010,66.709449988327008896
0.168000000000000010,64.532779152944129919
0.169000000000000011,62.359534825750344567
0.170000000000000012,60.198896617911074713
0.171000000000000013,58.062111185160667048
0.172000000000000014,55.960823616228751121
0.173000000000000015,53.905796039582085655
0.174000000000000016,51.906025385961200413
0.175000000000000017,49.968229014451758019
0.176000000000000018,48.096642461322673512
0.177000000000000018,46.293062993010799744
0.178000000000000019,44.557071668237540507
0.179000000000000020,42.886371772274387126
0.180000000000000021,41.277190113673029259
0.181000000000000022,39.724697824555832426
0.182000000000000023,38.223417636790664176
0.183000000000000024,36.767594254676545518
0.184000000000000025,35.351512911843244069
0.185000000000000026,33.969758253594783071
0.186000000000000026,32.617411278134277097
0.187000000000000027,31.290186273654462923
0.188000000000000028,29.984512647554602438
0.189000000000000029,28.697568439606158108
0.190000000000000030,27.427273334509500557
0.191000000000000031,26.172249327374562000
0.192000000000000032,24.931757019029053168
0.193000000000000033,23.705614976345422917
0.194000000000000034,22.494108812192255442
0.195000000000000034,21.297895722916081240
0.196000000000000035,20.117909249195950139
0.197000000000000036,18.955268059671752212
0.198000000000000037,17.811191639824038191
0.199000000000000038,16.686924930747107254
0.200000000000000039,15.583673221631077155
0.201000000000000040,14.502547964681046011
0.202000000000000041,13.444523653580343847
0.203000000000000042,12.410405483043280839
0.204000000000000042,11.400807180527269935
0.205000000000000043,10.416138162530966582
0.206000000000000044,9.456599006557020459
0.207000000000000045,8.522184134745518946
0.208000000000000046,7.612690565450631830
0.209000000000000047,6.727731594211642019
0.210000000000000048,5.866754306018680865
0.211000000000000049,5.029059887814162799
0.212000000000000050,4.213825796160196369
0.213000000000000050,3.420128933380479630
0.214000000000000051,2.646969090719899498
0.215000000000000052,1.893292024625160108
0.216000000000000053,1.158011638504636176
0.217000000000000054,0.440030844463072057
0.218000000000000055,-0.261739224564530193
0.219000000000000056,-0.948361893603895778
0.220000000000000057,-1.620859677055862091
0.221000000000000058,-2.280201153928414382
0.222000000000000058,-2.927290016859750654
0.223000000000000059,-3.562956272822591863
0.224000000000000060,-4.187949530113999508
0.225000000000000061,-4.802934271230327568
0.226000000000000062,-5.408486983881760857
0.227000000000000063,-6.005095002020746975
0.228000000000000064,-6.593156894608330099
0.229000000000000065,-7.172984231179777126
0.230000000000000066,-7.744804549356603118
0.231000000000000066,-8.308765349582396098
0.232000000000000067,-8.864938945859131891
0.233000000000000068,-9.413328007509452533
0.234000000000000069,-9.953871635414383690
0.235000000000000070,-10.486451826261028231
0.236000000000000071,-11.010900189619157175
0.237000000000000072,-11.527004794748986427
0.238000000000000073,-12.034517036570445470
0.239000000000000073,-12.533158422901010454
0.240000000000000074,-13.022627197645846309
0.241000000000000075,-13.502604726889538611
0.242000000000000076,-13.972761586632193698
0.243000000000000077,-14.432763302102651792
0.244000000000000078,-14.882275699070465436
0.245000000000000079,-15.320969837299241334
0.246000000000000080,-15.748526505189900604
0.247000000000000081,-16.164640262735083809
0.248000000000000081,-16.569023027134669235
0.249000000000000082,-16.961407201821035784
0.250000000000000111,-17.341548355231726219
0.251000000000000112,-17.709227460476675731
0.252000000000000113,-18.064252711119344497
0.253000000000000114,-18.406460931664870628
0.254000000000000115,-18.735718604078893890
0.255000000000000115,-19.051922533791998404
0.256000000000000116,-19.355000180233453477
0.257000000000000117,-19.644909678033947387
0.258000000000000118,-19.921639575691170165
0.259000000000000119,-20.185208318756728829
0.260000000000000120,-20.435663504524278267
0.261000000000000121,-20.673080934822451127
0.262000000000000122,-20.897563492887638148
0.263000000000000123,-21.109239869448369831
0.264000000000000123,-21.308263162135222757
0.265000000000000124,-21.494809371169456114
0.266000000000000125,-21.669075813014117671
0.267000000000000126,-21.831279472318701806
0.268000000000000127,-21.981655311080444903
0.269000000000000128,-22.120454552502867074
0.270000000000000129,-22.247942955575656043
0.271000000000000130,-22.364399094947504665
0.272000000000000131,-22.470112659228483665
0.273000000000000131,-22.565382779455283924
0.274000000000000132,-22.650516398090374537
0.275000000000000133,-22.725826687615203525
0.276000000000000134,-22.791631526523424611
0.277000000000000135,-22.848252039329310037
0.278000000000000136,-22.896011206083098699
0.279000000000000137,-22.935232545831446771
0.280000000000000138,-22.966238877479177916
0.281000000000000139,-22.989351160599738932
0.282000000000000139,-23.004887417905031555
0.283000000000000140,-23.013161740320708049
0.284000000000000141,-23.014483374918718539
0.285000000000000142,-23.009155895333513797
0.286000000000000143,-22.997476453728666002
0.287000000000000144,-22.979735112885119719
0.288000000000000145,-22.956214256547571750
0.289000000000000146,-22.927188075787444888
0.290000000000000147,-22.892922128818799621
0.291000000000000147,-22.853672971430533778
0.292000000000000148,-22.809687854974718846
0.293000000000000149,-22.761204488669790180
0.294000000000000150,-22.708450862838425621
0.295000000000000151,-22.651645129597799411
0.296000000000000152,-22.590995537451682651
0.297000000000000153,-22.526700416197996901
0.298000000000000154,-22.458948208555643333
0.299000000000000155,-22.387917544931685399
0.300000000000000155,-22.313777357788190159
0.301000000000000156,-22.236687032126631891
0.302000000000000157,-22.156796588683313587
0.303000000000000158,-22.074246896519792216
0.304000000000000159,-21.989169911795698908
0.305000000000000160,-21.901688939624641250
0.306000000000000161,-21.811918916037463134
0.307000000000000162,-21.719966707206076251
0.308000000000000163,-21.625931423216581351
0.309000000000000163,-21.529904743819834323
0.310000000000000164,-21.431971253729177107
0.311000000000000165,-21.332208785178664812
0.312000000000000166,-21.230688765599104784
0.313000000000000167,-21.127476568412333791
0.314000000000000168,-21.022631865086218284
0.315000000000000169,-20.916208976732796998
0.316000000000000170,-20.808257223669023972
0.317000000000000171,-20.698821271493287099
0.318000000000000171,-20.587941472360771655
0.319000000000000172,-20.475654200266681926
0.320000000000000173,-20.361992179267282665
0.321000000000000174,-20.246984803685045051
0.322000000000000175,-20.130658449455911096
0.323000000000000176,-20.013036775882206086
0.324000000000000177,-19.894141017156318441
0.325000000000000178,-19.773990263114892940
0.326000000000000179,-19.652601728774474310
0.327000000000000179,-19.529991012283218765
0.328000000000000180,-19.406172341003426141
0.329000000000000181,-19.281158805513783250
0.330000000000000182,-19.154962581388588205
0.331000000000000183,-19.027595138676197450
0.332000000000000184,-18.899067439056942419
0.333000000000000185,-18.769390120715844006
0.334000000000000186,-18.638573671014594169
0.335000000000000187,-18.506628587092642135
0.336000000000000187,-18.373565524568356011
0.337000000000000188,-18.239395434547539310
0.338000000000000189,-18.104129689180208374
0.339000000000000190,-17.967780196035175067
0.340000000000000191,-17.830359501587885518
0.341000000000000192,-17.691880884139532526
0.342000000000000193,-17.552358436504231776
0.343000000000000194,-17.411807138817756879
0.344000000000000195,-17.270242921834391581
0.345000000000000195,-17.127682721089758644
0.346000000000000196,-16.984144522315499870
0.347000000000000197,-16.839647398498250652
0.348000000000000198,-16.694211538979370602
0.349000000000000199,-16.547858270993941687
0.350000000000000200,-16.400610074048326936
0.351000000000000201,-16.252490587534001776
0.352000000000000202,-16.103524611973050185
0.353000000000000203,-15.953738104286653510
0.354000000000000203,-15.803158167472542317
0.355000000000000204,-15.651813035071223013
0.356000000000000205,-15.499732050793687321
0.357000000000000206,-15.346945643674960280
0.358000000000000207,-15.193485299108923314
0.359000000000000208,-15.039383526110825073
0.360000000000000209,-14.884673821143209693
0.361000000000000210,-14.729390628830818954
0.362000000000000210,-14.573569299878945671
0.363000000000000211,-14.417246046498462420
0.364000000000000212,-14.260457895629324199
0.365000000000000213,-14.103242640242360295
0.366000000000000214,-13.945638788987793077
0.367000000000000215,-13.787685514446497592
0.368000000000000216,-13.629422600228574325
0.369000000000000217,-13.470890387151499112
0.370000000000000218,-13.312129718718727744
0.371000000000000218,-13.153181886107319087
0.372000000000000219,-12.994088572862196429
0.373000000000000220,-12.834891799482772257
0.374000000000000221,-12.675633868076692679
0.375000000000000222,-12.516357307244343033
0.376000000000000223,-12.357104817347060788
0.377000000000000224,-12.197919216301524870
0.378000000000000225,-12.038843386032473504
0.379000000000000226,-11.879920219706114892
0.380000000000000226,-11.721192569856947685
0.381000000000000227,-11.562703197511199349
0.382000000000000228,-11.404494722401480544
0.383000000000000229,-11.246609574358265249
0.384000000000000230,-11.089089945955507233
0.385000000000000231,-10.931977746479985214
0.386000000000000232,-10.775314557285877726
0.387000000000000233,-10.619141588589073422
0.388000000000000234,-10.463499637748469695
0.389000000000000234,-10.308429049075090944
0.390000000000000235,-10.153969675203139644
0.391000000000000236,-10.000160840051535160
0.392000000000000237,-9.847041303398205159
0.393000000000000238,-9.694649227084605414
0.394000000000000239,-9.543022142862216839
0.395000000000000240,-9.392196921888510630
0.396000000000000241,-9.242209745875010540
0.397000000000000242,-9.093096079885834015
0.398000000000000242,-8.944890646781479049
0.399000000000000243,-8.797627403298532656
0.400000000000000244,-8.651339517752582253
0.401000000000000245,-8.506059349348900511
0.402000000000000246,-8.361818429081822046
0.403000000000000247,-8.218647442201469033
0.404000000000000248,-8.076576212223951501
0.405000000000000249,-7.935633686458783309
0.406000000000000250,-7.795847923025182702
0.407000000000000250,-7.657246079327181931
0.408000000000000251,-7.519854401955591072
0.409000000000000252,-7.383698217983652334
0.410000000000000253,-7.248801927621468799
0.411000000000000254,-7.115188998193604064
0.412000000000000255,-6.982881959402824634
0.413000000000000256,-6.851902399842394686
0.414000000000000257,-6.722270964718336295
0.415000000000000258,-6.594007354742776883
0.416000000000000258,-6.467130326158764930
0.417000000000000259,-6.341657691856756429
0.418000000000000260,-6.217606323542680613
0.419000000000000261,-6.094992154917295402
0.420000000000000262,-5.973830185826654038
0.421000000000000263,-5.854134487343419124
0.422000000000000264,-5.735918207738972541
0.423000000000000265,-5.619193579306356767
0.424000000000000266,-5.503971925994679104
0.425000000000000266,-5.390263671815573865
0.426000000000000267,-5.278078349983008621
0.427000000000000268,-5.167424612748096280
0.428000000000000269,-5.058310241891133430
0.429000000000000270,-4.950742159833675160
0.430000000000000271,-4.844726441333965461
0.431000000000000272,-4.740268325729879884
0.432000000000000273,-4.637372229694102010
0.433000000000000274,-4.536041760467044881
0.434000000000000274,-4.436279729533689320
0.435000000000000275,-4.338088166711460580
0.436000000000000276,-4.241468334616924629
0.437000000000000277,-4.146420743479866999
0.438000000000000278,-4.052945166274360744
0.439000000000000279,-3.961040654137069961
0.440000000000000280,-3.870705552043931963
0.441000000000000281,-3.781937514717320425
0.442000000000000282,-3.694733522736602715
0.443000000000000282,-3.609089898825764031
0.444000000000000283,-3.525002324292906941
0.445000000000000284,-3.442465855597051760
0.446000000000000285,-3.361474941018562479
0.447000000000000286,-3.282023437410713118
0.448000000000000287,-3.204104627010168738
0.449000000000000288,-3.127711234285670994
0.450000000000000289,-3.052835442804529453
0.451000000000000290,-2.979468912097672284
0.452000000000000290,-2.907602794504727584
0.453000000000000291,-2.837227751981367341
0.454000000000000292,-2.768333972852123459
0.455000000000000293,-2.700911188492399972
0.456000000000000294,-2.634948689924505594
0.457000000000000295,-2.570435344312971715
0.458000000000000296,-2.507359611345441053
0.459000000000000297,-2.445709559485925499
0.460000000000000298,-2.385472882088091495
0.461000000000000298,-2.326636913356845415
0.462000000000000299,-2.269188644147237532
0.463000000000000300,-2.213114737590260450
0.464000000000000301,-2.158401544535909711
0.465000000000000302,-2.105035118804408967
0.466000000000000303,-2.053001232237094520
0.467000000000000304,-2.002285389539079308
0.468000000000000305,-1.952872842906528517
0.469000000000000306,-1.904748606431606817
0.470000000000000306,-1.857897470279099350
0.471000000000000307,-1.812304014628872917
0.472000000000000308,-1.767952623379163368
0.473000000000000309,-1.724827497605876392
0.474000000000000310,-1.682912668773806741
0.475000000000000311,-1.642192011695951193
0.476000000000000312,-1.602649257237747538
0.477000000000000313,-1.564268004763134767
0.478000000000000314,-1.527031734320164702
0.479000000000000314,-1.490923818564015235
0.480000000000000315,-1.455927534415612845
0.481000000000000316,-1.422026074454671996
0.482000000000000317,-1.389202558045990354
0.483000000000000318,-1.357440042198441166
0.484000000000000319,-1.326721532156196037
0.485000000000000320,-1.297029991722255193
0.486000000000000321,-1.268348353314355581
0.487000000000000322,-1.240659527753870117
0.488000000000000322,-1.213946413788386636
0.489000000000000323,-1.188191907349028575
0.490000000000000324,-1.163378910543703570
0.491000000000000325,-1.139490340387777634
0.492000000000000326,-1.116509137273805852
0.493000000000000327,-1.094418273182221180
0.494000000000000328,-1.073200759635028145
0.495000000000000329,-1.052839655394698148
0.496000000000000330,-1.033318073910715507
0.497000000000000330,-1.014619190516246050
0.498000000000000331,-0.996726249377706708
0.499000000000000332,-0.979622570199979115
0.500000000000000333,-0.963291554690279717
0.501000000000000334,-0.947716692783724168
0.502000000000000335,-0.932881568633747604
0.503000000000000336,-0.918769866370702459
0.504000000000000337,-0.905365375631930425
0.505000000000000338,-0.892651996866814734
0.506000000000000338,-0.880613746420304544
0.507000000000000339,-0.869234761398482325
0.508000000000000340,-0.858499304319877865
0.509000000000000341,-0.848391767556175624
0.510000000000000342,-0.838896677566114746
0.511000000000000343,-0.829998698926325829
0.512000000000000344,-0.821682638162976930
0.513000000000000345,-0.813933447388063724
0.514000000000000346,-0.806736227744236700
0.515000000000000346,-0.800076232662060072
0.516000000000000347,-0.793938870933605156
0.517000000000000348,-0.788309709606364040
0.518000000000000349,-0.783174476701319011
0.519000000000000350,-0.778519063759171570
0.520000000000000351,-0.774329528218664520
0.521000000000000352,-0.770592095630844520
0.522000000000000353,-0.767293161713265781
0.523000000000000353,-0.764419294247950409
0.524000000000000354,-0.761957234827055019
0.525000000000000355,-0.759893900450050119
0.526000000000000356,-0.758216384976255875
0.527000000000000357,-0.756911960436574160
0.528000000000000358,-0.755968078208147043
0.529000000000000359,-0.755372370055721776
0.530000000000000360,-0.755112649043428119
0.531000000000000361,-0.755176910320642270
0.532000000000000361,-0.755553331785568605
0.533000000000000362,-0.756230274630170340
0.534000000000000363,-0.757196283769969614
0.535000000000000364,-0.758440088162246617
0.536000000000000365,-0.759950601016132210
0.537000000000000366,-0.761716919897977740
0.538000000000000367,-0.763728326735408913
0.539000000000000368,-0.765974287723398040
0.540000000000000369,-0.768444453135606831
0.541000000000000369,-0.771128657044256149
0.542000000000000370,-0.774016916951708600
0.543000000000000371,-0.777099433336848167
0.544000000000000372,-0.780366589119404042
0.545000000000000373,-0.783808949045168513
0.546000000000000374,-0.787417258995130931
0.547000000000000375,-0.791182445221417452
0.548000000000000376,-0.795095613512923793
0.549000000000000377,-0.799148048293424340
0.550000000000000377,-0.803331211654902178
0.551000000000000378,-0.807636742328868174
0.552000000000000379,-0.812056454598203081
0.553000000000000380,-0.816582337152230386
0.554000000000000381,-0.821206551887460612
0.555000000000000382,-0.825921432656553045
0.556000000000000383,-0.830719483967879868
0.557000000000000384,-0.835593379638088551
0.558000000000000385,-0.840535961399982101
0.559000000000000385,-0.845540237467980793
0.560000000000000386,-0.850599381063340987
0.561000000000000387,-0.855706728901370561
0.562000000000000388,-0.860855779642670904
0.563000000000000389,-0.866040192310506440
0.564000000000000390,-0.871253784676272125
0.565000000000000391,-0.876490531615058521
0.566000000000000392,-0.881744563433163764
0.567000000000000393,-0.887010164169439341
0.568000000000000393,-0.892281769872256492
0.569000000000000394,-0.897553966853870788
0.570000000000000395,-0.902821489923840703
0.571000000000000396,-0.908079220603214665
0.572000000000000397,-0.913322185321072233
0.573000000000000398,-0.918545553594965924
0.574000000000000399,-0.923744636196819235
0.575000000000000400,-0.928914883305727024
0.576000000000000401,-0.934051882649093335
0.577000000000000401,-0.939151357633504880
0.578000000000000402,-0.944209165466671552
0.579000000000000403,-0.949221295271725607
0.580000000000000404,-0.954183866195159602
0.581000000000000405,-0.959093125509612898
0.582000000000000406,-0.963945446712663134
0.583000000000000407,-0.968737327622812172
0.584000000000000408,-0.973465388473703563
0.585000000000000409,-0.978126370007665669
0.586000000000000409,-0.982717131569637581
0.587000000000000410,-0.987234649202382686
0.588000000000000411,-0.991676013744025475
0.589000000000000412,-0.996038428928785358
0.590000000000000413,-1.000319209491788097
0.591000000000000414,-1.004515779278829513
0.592000000000000415,-1.008625669361884691
0.593000000000000416,-1.012646516161154420
0.594000000000000417,-1.016576059574413105
0.595000000000000417,-1.020412141114354743
0.596000000000000418,-1.024152702054653474
0.597000000000000419,-1.027795781585385759
0.598000000000000420,-1.031339514978461658
0.599000000000000421,-1.034782131763642088
0.600000000000000422,-1.038121953915769335
0.601000000000000423,-1.041357394053707530
0.602000000000000424,-1.044486953651553973
0.603000000000000425,-1.047509221262623580
0.604000000000000425,-1.050422870756655191
0.605000000000000426,-1.053226659570700940
0.606000000000000427,-1.055919426974166964
0.607000000000000428,-1.058500092348315658
0.608000000000000429,-1.060967653480751061
0.609000000000000430,-1.063321184875076542
