# Ag332_PROPANE-AC
# h[nm],U(h)[kJ/mol]
0.200000000000000011,93.125887345551888075
0.201000000000000012,86.683970811714246452
0.202000000000000013,83.528097557959753772
0.203000000000000014,81.874427023087065436
0.204000000000000015,80.711654169439128736
0.205000000000000016,79.521252498815712784
0.206000000000000016,78.086006207513804611
0.207000000000000017,76.361770924116541437
0.208000000000000018,74.393957080359939482
0.209000000000000019,72.265174925647471582
0.210000000000000020,70.064192144191167699
0.211000000000000021,67.869125659797276739
0.212000000000000022,65.739843897831420350
0.213000000000000023,63.716068219127670602
0.214000000000000024,61.818765942561469728
0.215000000000000024,60.053224607147413394
0.216000000000000025,58.412765974466637431
0.217000000000000026,56.882458119906274874
0.218000000000000027,55.442459768311039170
0.219000000000000028,54.070816670938107507
0.220000000000000029,52.745650673677936027
0.221000000000000030,51.446757080016560337
0.222000000000000031,50.156668919236594206
0.223000000000000032,48.861268006863483038
0.224000000000000032,47.550029631266838237
0.225000000000000033,46.215985610477112289
0.226000000000000034,44.855483061681795220
0.227000000000000035,43.467806080757647180
0.228000000000000036,42.054716363373316312
0.229000000000000037,40.619957724623780848
0.230000000000000038,39.168759167616812533
0.231000000000000039,37.707361985158961204
0.232000000000000040,36.242588516689686173
0.233000000000000040,34.781463650989564940
0.234000000000000041,33.330894902859412809
0.235000000000000042,31.897412786710571453
0.236000000000000043,30.486970123569371083
0.237000000000000044,29.104796703166766036
0.238000000000000045,27.755304234553769049
0.239000000000000046,26.442035621213136665
0.240000000000000047,25.167652167172281708
0.241000000000000048,23.933952251349445817
0.242000000000000048,22.741915205834754232
0.243000000000000049,21.591764522441575735
0.244000000000000050,20.483045026918567544
0.245000000000000051,19.414709250376990468
0.246000000000000052,18.385208852433187587
0.247000000000000053,17.392587579371841855
0.248000000000000054,16.434572850381492515
0.249000000000000055,15.508663639297363801
0.250000000000000056,14.612212847417376693
0.251000000000000056,13.742502838285599154
0.252000000000000057,12.896813224712044388
0.253000000000000058,12.072480361188290487
0.254000000000000059,11.266948302670794391
0.255000000000000060,10.477811246249778776
0.256000000000000061,9.702847679252014856
0.257000000000000062,8.940046620186727466
0.258000000000000063,8.187626462280983120
0.259000000000000064,7.444047017903343999
0.260000000000000064,6.708015420599940271
0.261000000000000065,5.978486574233889073
0.262000000000000066,5.254658850010494042
0.263000000000000067,4.535965725848779329
0.264000000000000068,3.822064042116050331
0.265000000000000069,3.112819516300021405
0.266000000000000070,2.408290119504600035
0.267000000000000071,1.708707872106180359
0.268000000000000071,1.014459566550030001
0.269000000000000072,0.326066873825338832
0.270000000000000073,-0.355833761926993786
0.271000000000000074,-1.030511087777012946
0.272000000000000075,-1.697158562536495108
0.273000000000000076,-2.354913178557907383
0.274000000000000077,-3.002873375069799344
0.275000000000000078,-3.640115875359385633
0.276000000000000079,-4.265711318777901440
0.277000000000000079,-4.878738593690015612
0.278000000000000080,-5.478297809062690149
0.279000000000000081,-6.063521870425117477
0.280000000000000082,-6.633586650511356098
0.281000000000000083,-7.187719766161430712
0.282000000000000084,-7.725207991173038913
0.283000000000000085,-8.245403349962682427
0.284000000000000086,-8.747727949326620234
0.285000000000000087,-9.231677615510857748
0.286000000000000087,-9.696824411435688518
0.287000000000000088,-10.142818114501249482
0.288000000000000089,-10.569386739148288967
0.289000000000000090,-10.976336190481076116
0.290000000000000091,-11.363549135979628346
0.291000000000000092,-11.730983181834789164
0.292000000000000093,-12.078668438909565097
0.293000000000000094,-12.406704560935235548
0.294000000000000095,-12.715257334443339943
0.295000000000000095,-13.004554896257397800
0.296000000000000096,-13.274883650245840272
0.297000000000000097,-13.526583950586097416
0.298000000000000098,-13.760045614108552314
0.299000000000000099,-13.975703319467902119
0.300000000000000100,-14.174031946004877369
0.301000000000000101,-14.355541900281176382
0.302000000000000102,-14.520774473450165587
0.303000000000000103,-14.670297267915355377
0.304000000000000103,-14.804699727164257084
0.305000000000000104,-14.924588798282576008
0.306000000000000105,-15.030584752474926091
0.307000000000000106,-15.123317184964273352
0.308000000000000107,-15.203421211926620771
0.309000000000000108,-15.271533878648861915
0.310000000000000109,-15.328290789881950928
0.311000000000000110,-15.374322970399012078
0.312000000000000111,-15.410253961059066086
0.313000000000000111,-15.436697153215282796
0.314000000000000112,-15.454253362088081758
0.315000000000000113,-15.463508637738716089
0.316000000000000114,-15.465032310519458036
0.317000000000000115,-15.459375266331482734
0.318000000000000116,-15.447068445680011806
0.319000000000000117,-15.428621559366529681
0.320000000000000118,-15.404522012687118959
0.321000000000000119,-15.375234029203124209
0.322000000000000119,-15.341197964501322559
0.323000000000000120,-15.302829799855240722
0.324000000000000121,-15.260520805323404048
0.325000000000000122,-15.214637361563905671
0.326000000000000123,-15.165520929495182045
0.327000000000000124,-15.113488156879961721
0.328000000000000125,-15.058831110943362575
0.329000000000000126,-15.001817626244946524
0.330000000000000127,-14.942691757201666647
0.331000000000000127,-14.881674324893197081
0.332000000000000128,-14.818963548065752889
0.333000000000000129,-14.754735748577687104
0.334000000000000130,-14.689146121892292740
0.335000000000000131,-14.622329563614579584
0.336000000000000132,-14.554401543482413217
0.337000000000000133,-14.485459018653955354
0.338000000000000134,-14.415581378576771243
0.339000000000000135,-14.344831414175867934
0.340000000000000135,-14.273256304553409990
0.341000000000000136,-14.200888614848929947
0.342000000000000137,-14.127747299362070521
0.343000000000000138,-14.053838704487555233
0.344000000000000139,-13.979157566451846151
0.345000000000000140,-13.903687999270621489
0.346000000000000141,-13.827404468763891288
0.347000000000000142,-13.750272748870008499
0.348000000000000143,-13.672250856889968773
0.349000000000000143,-13.593289964667183867
0.350000000000000144,-13.513335283066306047
0.351000000000000145,-13.432326917455313264
0.352000000000000146,-13.350200692218859189
0.353000000000000147,-13.266888942636683169
0.354000000000000148,-13.182321272749524255
0.355000000000000149,-13.096425278105138901
0.356000000000000150,-13.009127232530445895
0.357000000000000151,-12.920352738311468244
0.358000000000000151,-12.830027339381350870
0.359000000000000152,-12.738077097318980080
0.360000000000000153,-12.644429130146749074
0.361000000000000154,-12.549012114086144365
0.362000000000000155,-12.451756748585157908
0.363000000000000156,-12.352596185072130197
0.364000000000000157,-12.251466420017202097
0.365000000000000158,-12.148306652996291533
0.366000000000000159,-12.043059610552838024
0.367000000000000159,-11.935671836741413188
0.368000000000000160,-11.826093951314817332
0.369000000000000161,-11.714280876582437330
0.370000000000000162,-11.600192034024393806
0.371000000000000163,-11.483791511793111084
0.372000000000000164,-11.365048204271705146
0.373000000000000165,-11.243935924889074229
0.374000000000000166,-11.120433493413369064
0.375000000000000167,-10.994524798961100132
0.376000000000000167,-10.866198839967674772
0.377000000000000168,-10.735449742367945802
0.378000000000000169,-10.602276757232520055
0.379000000000000170,-10.466684239098153597
0.380000000000000171,-10.328681606217823941
0.381000000000000172,-10.188283283940384294
0.382000000000000173,-10.045508632409205774
0.383000000000000174,-9.900381859746554269
0.384000000000000175,-9.752931921864060882
0.385000000000000175,-9.603192410011299529
0.386000000000000176,-9.451201427143832490
0.387000000000000177,-9.297001454159294909
0.388000000000000178,-9.140639207016516110
0.389000000000000179,-8.982165485716560482
0.390000000000000180,-8.821635016088944070
0.391000000000000181,-8.659106285288398652
0.392000000000000182,-8.494641371870399027
0.393000000000000183,-8.328305771274878921
0.394000000000000183,-8.160168217509774280
0.395000000000000184,-7.990300501787388043
0.396000000000000185,-7.818777288828158589
0.397000000000000186,-7.645675931508975509
0.398000000000000187,-7.471076284494938768
0.399000000000000188,-7.295060517456798621
0.400000000000000189,-7.117712928439874354
0.401000000000000190,-6.939119757913863040
0.402000000000000191,-6.759369003998925152
0.403000000000000191,-6.578550239328168736
0.404000000000000192,-6.396754429974172318
0.405000000000000193,-6.214073756834404882
0.406000000000000194,-6.030601439839132993
0.407000000000000195,-5.846431565315326040
0.408000000000000196,-5.661658916810235809
0.409000000000000197,-5.476378809650617185
0.410000000000000198,-5.290686929486287937
0.411000000000000199,-5.104679175040472749
0.412000000000000199,-4.918451505264597401
0.413000000000000200,-4.732099791071513017
0.414000000000000201,-4.545719671798098993
0.415000000000000202,-4.359406416526514505
0.416000000000000203,-4.173254790373329470
0.417000000000000204,-3.987358925835278178
0.418000000000000205,-3.801812199262934566
0.419000000000000206,-3.616707112515510580
0.420000000000000207,-3.432135179833493144
0.421000000000000207,-3.248186819951060844
0.422000000000000208,-3.064951253454690772
0.423000000000000209,-2.882516405381809310
0.424000000000000210,-2.700968813039939853
0.425000000000000211,-2.520393539015353124
0.426000000000000212,-2.340874089329267882
0.427000000000000213,-2.162492336689369576
0.428000000000000214,-1.985328448775379728
0.429000000000000214,-1.809460821488461990
0.430000000000000215,-1.634966017086674217
0.431000000000000216,-1.461918707121704575
0.432000000000000217,-1.290391620085037827
0.433000000000000218,-1.120455493666690172
0.434000000000000219,-0.952179031523797348
0.435000000000000220,-0.785628864452130315
0.436000000000000221,-0.620869515849308495
0.437000000000000222,-0.457963371355021187
0.438000000000000222,-0.296970652550663239
0.439000000000000223,-0.137949394598002206
0.440000000000000224,0.019044572305418429
0.441000000000000225,0.173957637778363650
0.442000000000000226,0.326738422540509776
0.443000000000000227,0.477337786256195273
0.444000000000000228,0.625708832063916809
0.445000000000000229,0.771806907918726859
0.446000000000000230,0.915589604874507024
0.447000000000000230,1.057016752432752060
0.448000000000000231,1.196050411083912079
0.449000000000000232,1.332654862166431364
0.450000000000000233,1.466796595167521255
0.451000000000000234,1.598444292588465432
0.452000000000000235,1.727568812495670958
0.453000000000000236,1.854143168877145698
0.454000000000000237,1.978142509922018233
0.455000000000000238,2.099544094339087952
0.456000000000000238,2.218327265827852113
0.457000000000000239,2.334473425813774927
0.458000000000000240,2.447966004556563213
0.459000000000000241,2.558790430738588917
0.460000000000000242,2.666934099637300104
0.461000000000000243,2.772386339983585302
0.462000000000000244,2.875138379604868177
0.463000000000000245,2.975183309949569477
0.464000000000000246,3.072516049586350828
0.465000000000000246,3.167133306769123191
0.466000000000000247,3.259033541156016067
0.467000000000000248,3.348216924767637437
0.468000000000000249,3.434685302267075802
0.469000000000000250,3.518442150641598154
0.470000000000000251,3.599492538362841998
0.471000000000000252,3.677843084099871707
0.472000000000000253,3.753501915056390636
0.473000000000000254,3.826478625000861999
0.474000000000000254,3.896784232055559016
0.475000000000000255,3.964431136307704495
0.476000000000000256,4.029433077303485433
0.477000000000000257,4.091805091482740409
0.478000000000000258,4.151563469609959256
0.479000000000000259,4.208725714254285322
0.480000000000000260,4.263310497369002583
0.481000000000000261,4.315337618018443955
0.482000000000000262,4.364827960297725795
0.483000000000000262,4.411803451488667704
0.484000000000000263,4.456287020492578854
0.485000000000000264,4.498302556578731348
0.486000000000000265,4.537874868484783164
0.487000000000000266,4.575029643903543608
0.488000000000000267,4.609793409388339924
0.489000000000000268,4.642193490707013481
0.490000000000000269,4.672257973673012543
0.491000000000000270,4.700015665479638116
0.492000000000000270,4.725496056562143110
0.493000000000000271,4.748729283010151292
0.494000000000000272,4.769746089551495594
0.495000000000000273,4.788577793126598259
0.496000000000000274,4.805256247071051590
0.497000000000000275,4.819813805922541938
0.498000000000000276,4.832283290866467240
0.499000000000000277,4.842697955833560997
0.500000000000000222,4.851091454261011293
0.501000000000000334,4.857497806527532269
0.502000000000000224,4.861951368071339985
0.503000000000000336,4.864486798198895734
0.504000000000000226,4.865139029590964448
0.505000000000000338,4.863943238511483358
0.506000000000000227,4.860934815723512159
0.507000000000000339,4.856149338115759662
0.508000000000000229,4.849622541041830104
0.509000000000000341,4.841390291373643961
0.510000000000000231,4.831488561269495108
0.511000000000000343,4.819953402656317110
0.512000000000000233,4.806820922425017351
0.513000000000000345,4.792127258336786433
0.514000000000000234,4.775908555637703223
0.515000000000000346,4.758200944378243591
0.516000000000000236,4.739040517433606325
0.517000000000000348,4.718463309220036095
0.518000000000000238,4.696505275102122567
0.519000000000000350,4.673202271484921511
0.520000000000000240,4.648590036584856477
0.521000000000000352,4.622704171872338286
0.522000000000000242,4.595580124179045711
0.523000000000000353,4.567253168461935076
0.524000000000000243,4.537758391216170750
0.525000000000000355,4.507130674528303516
0.526000000000000245,4.475404680761117859
0.527000000000000357,4.442614837860922705
0.528000000000000247,4.408795325278061839
0.529000000000000359,4.373980060490967325
0.530000000000000249,4.338202686123978857
0.531000000000000361,4.301496557648796681
0.532000000000000250,4.263894731659502391
0.533000000000000362,4.225429954710553382
0.534000000000000252,4.186134652707504067
0.535000000000000364,4.146040920839391575
0.536000000000000254,4.105180514042544360
0.537000000000000366,4.063584837984409504
0.538000000000000256,4.021284940556997256
0.539000000000000368,3.978311503868522614
0.540000000000000258,3.934694836722607114
0.541000000000000369,3.890464867573625529
0.542000000000000259,3.845651137947560194
0.543000000000000371,3.800282796316891698
0.544000000000000261,3.754388592418811843
0.545000000000000373,3.707996872005526967
0.546000000000000263,3.661135572015912665
0.547000000000000375,3.613832216157182309
0.548000000000000265,3.566113910886289151
0.549000000000000377,3.518007341779578745
0.550000000000000266,3.469538770280620188
0.551000000000000378,3.420734030814965188
0.552000000000000268,3.371618528261775882
0.553000000000000380,3.322217235771488308
0.554000000000000270,3.272554692919440011
0.555000000000000382,3.222655004184944882
0.556000000000000272,3.172541837745967097
0.557000000000000384,3.122238424579134808
0.558000000000000274,3.071767557855406672
0.559000000000000385,3.021151592621486248
0.560000000000000275,2.970412445757537157
0.561000000000000387,2.919571596201506303
0.562000000000000277,2.868650085431022845
0.563000000000000389,2.817668518193333416
0.564000000000000279,2.766647063474576562
0.565000000000000391,2.715605455699205972
0.566000000000000281,2.664562996151151442
0.567000000000000393,2.613538554607774955
0.568000000000000282,2.562550571178574543
0.569000000000000394,2.511617058339991271
0.570000000000000284,2.460755603158670812
0.571000000000000396,2.409983369694689515
0.572000000000000286,2.359317101577500075
0.573000000000000398,2.308773124746539285
0.574000000000000288,2.258367350349397729
0.575000000000000400,2.208115277789857611
0.576000000000000290,2.158031997919143130
0.577000000000000401,2.108132196362883626
0.578000000000000291,2.058430156977415493
0.579000000000000403,2.008939765428463975
0.580000000000000293,1.959674512885948960
0.581000000000000405,1.910647499828229012
0.582000000000000295,1.861871439950109730
0.583000000000000407,1.813358664167996626
0.584000000000000297,1.765121124716885870
0.585000000000000409,1.717170399332956787
0.586000000000000298,1.669517695516714806
0.587000000000000410,1.622173854870715193
0.588000000000000300,1.575149357507170000
0.589000000000000412,1.528454326519771422
0.590000000000000302,1.482098532515248701
0.591000000000000414,1.436091398199380809
0.592000000000000304,1.390442003013187655
0.593000000000000416,1.345159087814378207
0.594000000000000306,1.300251059599949466
0.595000000000000417,1.255725996265383504
0.596000000000000307,1.211591651396612290
0.597000000000000419,1.167855459090396675
0.598000000000000309,1.124524538799477336
0.599000000000000421,1.081605700198691178
0.600000000000000311,1.039105448068374127
0.601000000000000423,0.997029987191500489
0.602000000000000313,0.955385227261407288
0.603000000000000425,0.914176787796451173
0.604000000000000314,0.873410003058880391
0.605000000000000426,0.833089926974449946
0.606000000000000316,0.793221338050260960
0.607000000000000428,0.753808744287667865
0.608000000000000318,0.714856388087789285
0.609000000000000430,0.676368251146803212
0.610000000000000320,0.638348059338801566
0.611000000000000432,0.600799287583426045
0.612000000000000322,0.563725164696411984
0.613000000000000433,0.527128678220436853
0.614000000000000323,0.491012579234442192
0.615000000000000435,0.455379387139214498
0.616000000000000325,0.420231394417495185
0.617000000000000437,0.385570671366503359
0.618000000000000327,0.351399070801408864
0.619000000000000439,0.317718232727818406
0.620000000000000329,0.284529588981868031
0.621000000000000441,0.251834367836283046
0.622000000000000330,0.219633598571044975
0.623000000000000442,0.187928116007193668
0.624000000000000332,0.156718565002678722
0.625000000000000444,0.126005404908719060
0.626000000000000334,0.095788913985882213
0.627000000000000446,0.066069193778467677
0.628000000000000336,0.036846173446417940
0.629000000000000448,0.008119614053628044
0.630000000000000338,-0.020110887188064565
0.631000000000000449,-0.047845892720302194
0.632000000000000339,-0.075086120485516855
0.633000000000000451,-0.101832439821116158
0.634000000000000341,-0.128085867400988984
0.635000000000000453,-0.153847563225217809
0.636000000000000343,-0.179118826658185126
0.637000000000000455,-0.203901092516045213
0.638000000000000345,-0.228195927203550225
0.639000000000000457,-0.252005024901098829
0.640000000000000346,-0.275330203801994799
0.641000000000000458,-0.298173402400588372
0.642000000000000348,-0.320536675831269879
0.643000000000000460,-0.342422192258875546
0.644000000000000350,-0.363832229320430967
0.645000000000000462,-0.384769170618665890
0.646000000000000352,-0.405235502267179359
0.647000000000000464,-0.425233809487642389
0.648000000000000353,-0.444766773258795378
0.649000000000000465,-0.463837167017591756
0.650000000000000355,-0.482447853412199479
0.651000000000000467,-0.500601781107079424
0.652000000000000357,-0.518301981639924025
0.653000000000000469,-0.535551566330451534
0.654000000000000359,-0.552353723240928574
0.655000000000000471,-0.568711714188298911
0.656000000000000361,-0.584628871807711059
0.657000000000000473,-0.600108596667373262
0.658000000000000362,-0.615154354434390704
0.659000000000000474,-0.629769673091490345
0.660000000000000364,-0.643958140204274332
0.661000000000000476,-0.657723400238873657
0.662000000000000366,-0.671069151929556740
0.663000000000000478,-0.683999145696138289
0.664000000000000368,-0.696517181110756001
0.665000000000000480,-0.708627104413806608
