# Ag332_ETHENE-AC
# h[nm],U(h)[kJ/mol]
0.200000000000000011,41.277143042244929916
0.201000000000000012,38.206560752654674218
0.202000000000000013,36.604730170229700548
0.203000000000000014,35.656202174587505738
0.204000000000000015,34.911072494801253185
0.205000000000000016,34.147356644726670538
0.206000000000000016,33.278555649852378906
0.207000000000000017,32.293084318603959559
0.208000000000000018,31.215847378025166847
0.209000000000000019,30.084945033908820022
0.210000000000000020,28.938489683944549569
0.211000000000000021,27.807989564047041142
0.212000000000000022,26.715833238891235624
0.213000000000000023,25.675190498434027120
0.214000000000000024,24.691206091487561736
0.215000000000000024,23.762760227809508251
0.216000000000000025,22.884347275723300186
0.217000000000000026,22.047814174027145384
0.218000000000000027,21.243827145523503930
0.219000000000000028,20.463017468648533992
0.220000000000000029,19.696807713062540302
0.221000000000000030,18.937948772848962165
0.222000000000000031,18.180812344740200359
0.223000000000000032,17.421488296077207281
0.224000000000000032,16.657735253533196840
0.225000000000000033,15.888828225232495939
0.226000000000000034,15.115340849175719740
0.227000000000000035,14.338893063000980987
0.228000000000000036,13.561888323152043512
0.229000000000000037,12.787258383719418475
0.230000000000000038,12.018228294581236426
0.231000000000000039,11.258109778846186799
0.232000000000000040,10.510127498263546642
0.233000000000000040,9.777279856728720020
0.234000000000000041,9.062233841631995190
0.235000000000000042,8.367251862876162960
0.236000000000000043,7.694147519815956571
0.237000000000000044,7.044266611350093577
0.238000000000000045,6.418489416376557344
0.239000000000000046,5.817250233520463887
0.240000000000000047,5.240570314146205888
0.241000000000000048,4.688100595680901428
0.242000000000000048,4.159170997863776975
0.243000000000000049,3.652843446527759941
0.244000000000000050,3.167966209821369894
0.245000000000000051,2.703227549208426339
0.246000000000000052,2.257207086787977879
0.247000000000000053,1.828423660886016267
0.248000000000000054,1.415378776786769155
0.249000000000000055,1.016595055252994539
0.250000000000000056,0.630649336845289898
0.251000000000000056,0.256200315475983265
0.252000000000000057,-0.107989248118566611
0.253000000000000058,-0.463035540591748784
0.254000000000000059,-0.809921636125973898
0.255000000000000060,-1.149489980219881247
0.256000000000000061,-1.482438979575818161
0.257000000000000062,-1.809323226949931085
0.258000000000000063,-2.130556874497907760
0.259000000000000064,-2.446419668876293585
0.260000000000000064,-2.757065173204418240
0.261000000000000065,-3.062530722306397557
0.262000000000000066,-3.362748686091384887
0.263000000000000067,-3.657558649444276000
0.264000000000000068,-3.946720153833761291
0.265000000000000069,-4.229925684514824091
0.266000000000000070,-4.506813626477864432
0.267000000000000071,-4.776980951177121959
0.268000000000000071,-5.039995433760859456
0.269000000000000072,-5.295407236415266894
0.270000000000000073,-5.542759727068687248
0.271000000000000074,-5.781599433767549812
0.272000000000000075,-6.011485063331075018
0.273000000000000076,-6.231995538314086147
0.274000000000000077,-6.442737028835556323
0.275000000000000078,-6.643348975503899467
0.276000000000000079,-6.833509116582457743
0.277000000000000079,-7.012937546820216639
0.278000000000000080,-7.181399847182431628
0.279000000000000081,-7.338709334233722181
0.280000000000000082,-7.484728485342306392
0.281000000000000083,-7.619369601386582147
0.282000000000000084,-7.742594772452244811
0.283000000000000085,-7.854415214305372039
0.284000000000000086,-7.954890044403271077
0.285000000000000087,-8.044124566041894298
0.286000000000000087,-8.122268128105879725
0.287000000000000088,-8.189511625944552620
0.288000000000000089,-8.246084706290295330
0.289000000000000090,-8.292252735999172231
0.290000000000000091,-8.328313590847704617
0.291000000000000092,-8.354594316773791718
0.292000000000000093,-8.371447711898840183
0.293000000000000094,-8.379248873497466832
0.294000000000000095,-8.378391749863652649
0.295000000000000095,-8.369285732820326729
0.296000000000000096,-8.352352322486936487
0.297000000000000097,-8.328021891900148077
0.298000000000000098,-8.296730575212549752
0.299000000000000099,-8.258917299502559928
0.300000000000000100,-8.215020976736848723
0.301000000000000101,-8.165477869151185786
0.302000000000000102,-8.110719138268473571
0.303000000000000103,-8.051168584959235375
0.304000000000000103,-7.987240585373719171
0.305000000000000104,-7.919338225235267537
0.306000000000000105,-7.847851632878047212
0.307000000000000106,-7.773156509532945790
0.308000000000000107,-7.695612853706178313
0.309000000000000108,-7.615563875046200693
0.310000000000000109,-7.533335091845853704
0.311000000000000110,-7.449233605267143510
0.312000000000000111,-7.363547542493324549
0.313000000000000111,-7.276545660295568041
0.314000000000000112,-7.188477099936318560
0.315000000000000113,-7.099571283906425556
0.316000000000000114,-7.010037944696115630
0.317000000000000115,-6.920067275618459135
0.318000000000000116,-6.829830193626714063
0.319000000000000117,-6.739478704082850768
0.320000000000000118,-6.649146357532240259
0.321000000000000119,-6.558948788709443534
0.322000000000000119,-6.468984328232343373
0.323000000000000120,-6.379334677727334757
0.324000000000000121,-6.290065639458915392
0.325000000000000122,-6.201227891904710354
0.326000000000000123,-6.112857803114657429
0.327000000000000124,-6.024978274114010546
0.328000000000000125,-5.937599605048648144
0.329000000000000126,-5.850720377221244384
0.330000000000000127,-5.764328344624605194
0.331000000000000127,-5.678401329038838874
0.332000000000000128,-5.592908113217957222
0.333000000000000129,-5.507809327146198086
0.334000000000000130,-5.423058322791428409
0.335000000000000131,-5.338602033219865817
0.336000000000000132,-5.254381812361105020
0.337000000000000133,-5.170334252123043761
0.338000000000000134,-5.086391973950973977
0.339000000000000135,-5.002484392303716554
0.340000000000000135,-4.918538447879344133
0.341000000000000136,-4.834479308765327943
0.342000000000000137,-4.750231038010432449
0.343000000000000138,-4.665717226419338282
0.344000000000000139,-4.580861589654874777
0.345000000000000140,-4.495588528997757294
0.346000000000000141,-4.409823655358909633
0.347000000000000142,-4.323494276366255384
0.348000000000000143,-4.236529846555993295
0.349000000000000143,-4.148862380888203027
0.350000000000000144,-4.060426831979473405
0.351000000000000145,-3.971161431600768843
0.352000000000000146,-3.881007997128257614
0.353000000000000147,-3.789912203758857512
0.354000000000000148,-3.697823823411444444
0.355000000000000149,-3.604696931329677057
0.356000000000000150,-3.510490081484495928
0.357000000000000151,-3.415166451943505876
0.358000000000000151,-3.318693961432189532
0.359000000000000152,-3.221045358358445299
0.360000000000000153,-3.122198283608367930
0.361000000000000154,-3.022135308448130608
0.362000000000000155,-2.920843948884786823
0.363000000000000156,-2.818316657849013307
0.364000000000000157,-2.714550796565243118
0.365000000000000158,-2.609548586470677112
0.366000000000000159,-2.503317043034322786
0.367000000000000159,-2.395867892811257782
0.368000000000000160,-2.287217475046970261
0.369000000000000161,-2.177386629120982242
0.370000000000000162,-2.066400569090164563
0.371000000000000163,-1.954288746559795786
0.372000000000000164,-1.841084703074542528
0.373000000000000165,-1.726825913184141914
0.374000000000000166,-1.611553619297948270
0.375000000000000167,-1.495312659401108579
0.376000000000000167,-1.378151288661610518
0.377000000000000168,-1.260120995913231123
0.378000000000000169,-1.141276315954285137
0.379000000000000170,-1.021674638556604009
0.380000000000000171,-0.901376015032935407
0.381000000000000172,-0.780442963165563386
0.382000000000000173,-0.658940271252705712
0.383000000000000174,-0.536934801984293886
0.384000000000000175,-0.414495296813582770
0.385000000000000175,-0.291692181447160248
0.386000000000000176,-0.168597373032287556
0.387000000000000177,-0.045284089578350215
0.388000000000000178,0.078173337892321143
0.389000000000000179,0.201699650009287218
0.390000000000000180,0.325218840118412011
0.391000000000000181,0.448654331367916714
0.392000000000000182,0.571929149474087573
0.393000000000000183,0.694966090860477670
0.394000000000000183,0.817687885897592337
0.395000000000000184,0.940017357002717935
0.396000000000000185,1.061877571390524633
0.397000000000000186,1.183191988294260977
0.398000000000000187,1.303884600505801128
0.399000000000000188,1.423880070109277751
0.400000000000000189,1.543103858308072951
0.401000000000000190,1.661482349269334247
0.402000000000000191,1.778942967931859354
0.403000000000000191,1.895414291745045832
0.404000000000000192,2.010826156325881797
0.405000000000000193,2.125109755039620740
0.406000000000000194,2.238197732527052342
0.407000000000000195,2.350024272217056787
0.408000000000000196,2.460525177878209568
0.409000000000000197,2.569637949276647682
0.410000000000000198,2.677301852019969175
0.411000000000000199,2.783457981678460147
0.412000000000000199,2.888049322285415776
0.413000000000000200,2.991020799327508417
0.414000000000000201,3.092319327344979829
0.415000000000000202,3.191893852268862464
0.416000000000000203,3.289695388628977035
0.417000000000000204,3.385677051772820967
0.418000000000000205,3.479794085240035972
0.419000000000000206,3.572003883441873917
0.420000000000000207,3.662266009798757604
0.421000000000000207,3.750542210491709660
0.422000000000000208,3.836796423986302162
0.423000000000000209,3.920994786489141681
0.424000000000000210,4.003105633498440952
0.425000000000000211,4.083099497610824358
0.426000000000000212,4.160949102746853256
0.427000000000000213,4.236629354957504923
0.428000000000000214,4.310117329973241596
0.429000000000000214,4.381392257656392175
0.430000000000000215,4.450435503516152025
0.431000000000000216,4.517230547443768174
0.432000000000000217,4.581762959823764803
0.433000000000000218,4.644020375174496174
0.434000000000000219,4.703992463469050200
0.435000000000000220,4.761670899284780489
0.436000000000000221,4.817049328926733764
0.437000000000000222,4.870123335667274844
0.438000000000000222,4.920890403240891331
0.439000000000000223,4.969349877729738019
0.440000000000000224,5.015502927972121938
0.441000000000000225,5.059352504622363966
0.442000000000000226,5.100903297986776330
0.443000000000000227,5.140161694756907096
0.444000000000000228,5.177135733757164182
0.445000000000000229,5.211835060820199317
0.446000000000000230,5.244270882899416897
0.447000000000000230,5.274455921524273450
0.448000000000000231,5.302404365699814548
0.449000000000000232,5.328131824348196766
0.450000000000000233,5.351655278386017400
0.451000000000000234,5.372993032527199730
0.452000000000000235,5.392164666897611980
0.453000000000000236,5.409190988543526757
0.454000000000000237,5.424093982912360445
0.455000000000000238,5.436896765380478058
0.456000000000000238,5.447623532898925980
0.457000000000000239,5.456299515824727386
0.458000000000000240,5.462950930001401417
0.459000000000000241,5.467604929149242565
0.460000000000000242,5.470289557622271204
0.461000000000000243,5.471033703585543861
0.462000000000000244,5.469867052663218487
0.463000000000000245,5.466820042104603594
0.464000000000000246,5.461923815512345293
0.465000000000000246,5.455210178173880209
0.466000000000000247,5.446711553034392139
0.467000000000000248,5.436460937346659250
0.468000000000000249,5.424491860030438595
0.469000000000000250,5.410838339771361305
0.470000000000000251,5.395534843886796494
0.471000000000000252,5.378616247983612375
0.472000000000000253,5.360117796430351689
0.473000000000000254,5.340075063664131427
0.474000000000000254,5.318523916350249792
0.475000000000000255,5.295500476410389012
0.476000000000000256,5.271041084933324683
0.477000000000000257,5.245182266979963259
0.478000000000000258,5.217960697292737926
0.479000000000000259,5.189413166917626441
0.480000000000000260,5.159576550745203605
0.481000000000000261,5.128487775975666629
0.482000000000000262,5.096183791511060157
0.483000000000000262,5.062701538276611402
0.484000000000000263,5.028077920471457851
0.485000000000000264,4.992349777748006368
0.486000000000000265,4.955553858317538918
0.487000000000000266,4.917726792978814210
0.488000000000000267,4.878905070065114202
0.489000000000000268,4.839125011304085788
0.490000000000000269,4.798422748583901942
0.491000000000000270,4.756834201618110214
0.492000000000000270,4.714395056500853443
0.493000000000000271,4.671140745143167017
0.494000000000000272,4.627106425580465476
0.495000000000000273,4.582326963140365805
0.496000000000000274,4.536836912459667914
0.497000000000000275,4.490670500338412197
0.498000000000000276,4.443861609418497949
0.499000000000000277,4.396443762673932554
0.500000000000000222,4.348450108699039696
0.501000000000000334,4.299913407780879382
0.502000000000000224,4.250866018741471741
0.503000000000000336,4.201339886535153667
0.504000000000000226,4.151366530586274806
0.505000000000000338,4.100977033851764375
0.506000000000000227,4.050202032593415602
0.507000000000000339,3.999071706843930762
0.508000000000000229,3.947615771551255648
0.509000000000000341,3.895863468384848094
0.510000000000000231,3.843843558188277054
0.511000000000000343,3.791584314061572591
0.512000000000000233,3.739113515057542081
0.513000000000000345,3.686458440475454346
0.514000000000000234,3.633645864736244846
0.515000000000000346,3.580702052822643644
0.516000000000000236,3.527652756268476075
0.517000000000000348,3.474523209680586255
0.518000000000000238,3.421338127777796334
0.519000000000000350,3.368121702930506167
0.520000000000000240,3.314897603185541275
0.521000000000000352,3.261688970760149520
0.522000000000000242,3.208518420989952435
0.523000000000000353,3.155408041715030087
0.524000000000000243,3.102379393089328197
0.525000000000000355,3.049453507797911023
0.526000000000000245,2.996650891667541394
0.527000000000000357,2.943991524655538594
0.528000000000000247,2.891494862202795169
0.529000000000000359,2.839179836936375434
0.530000000000000249,2.787064860707890723
0.531000000000000361,2.735167826953638581
0.532000000000000250,2.683506113363139711
0.533000000000000362,2.632096584842448017
0.534000000000000252,2.580955596759537674
0.535000000000000364,2.530098998458400139
0.536000000000000254,2.479542137029846938
0.537000000000000366,2.429299861326114307
0.538000000000000256,2.379386526207674102
0.539000000000000368,2.329815997010033612
0.540000000000000258,2.280601654219340357
0.541000000000000369,2.231756398345084769
0.542000000000000259,2.183292654979360314
0.543000000000000371,2.135222380031430500
0.544000000000000261,2.087557065127482403
0.545000000000000373,2.040307743165090670
0.546000000000000263,1.993484994012644451
0.547000000000000375,1.947098950343700619
0.548000000000000265,1.901159303597289352
0.549000000000000377,1.855675310054452298
0.550000000000000266,1.810655797022609814
0.551000000000000378,1.766109169118633249
0.552000000000000268,1.722043414642576264
0.553000000000000380,1.678466112033620616
0.554000000000000270,1.635384436400566965
0.555000000000000382,1.592805166118957727
0.556000000000000272,1.550734689487668794
0.557000000000000384,1.509179011437558504
0.558000000000000274,1.468143760285413268
0.559000000000000385,1.427634194526325562
0.560000000000000275,1.387655209658185118
0.561000000000000387,1.348211345031856023
0.562000000000000277,1.309306790721215696
0.563000000000000389,1.270945394407012596
0.564000000000000279,1.233130668269205810
0.565000000000000391,1.195865795882139704
0.566000000000000281,1.159153639107659339
0.567000000000000393,1.122996744980922612
0.568000000000000282,1.087397352584398069
0.569000000000000394,1.052357399905223811
0.570000000000000284,1.017878530671838755
0.571000000000000396,0.983962101165355540
0.572000000000000286,0.950609187002000033
0.573000000000000398,0.917820589882511029
0.574000000000000288,0.885596844305073461
0.575000000000000400,0.853938224238087074
0.576000000000000290,0.822844749749694460
0.577000000000000401,0.792316193590652973
0.578000000000000291,0.762352087727810601
0.579000000000000403,0.732951729825145337
0.580000000000000293,0.704114189669848844
0.581000000000000405,0.675838315540726153
0.582000000000000295,0.648122740516763107
0.583000000000000407,0.620965888723309822
0.584000000000000297,0.594365981514063391
0.585000000000000409,0.568321043586568875
0.586000000000000298,0.542828909029643314
0.587000000000000410,0.517887227300738884
0.588000000000000300,0.493493469131858764
0.589000000000000412,0.469644932362292322
0.590000000000000302,0.446338747697006433
0.591000000000000414,0.423571884389210840
0.592000000000000304,0.401341155846084541
0.593000000000000416,0.379643225156475750
0.594000000000000306,0.358474610539699590
0.595000000000000417,0.337831690714435307
0.596000000000000307,0.317710710187102174
0.597000000000000419,0.298107784458856384
0.598000000000000309,0.279018905150698993
0.599000000000000421,0.260439945046155863
0.600000000000000311,0.242366663051057973
0.601000000000000423,0.224794709070045229
0.602000000000000313,0.207719628799593325
0.603000000000000425,0.191136868437165486
0.604000000000000314,0.175041779306550321
0.605000000000000426,0.159429622399087201
0.606000000000000316,0.144295572830928615
0.607000000000000428,0.129634724216261155
0.608000000000000318,0.115442092956628994
0.609000000000000430,0.101712622446483755
0.610000000000000320,0.088441187195220802
0.611000000000000432,0.075622596865851641
0.612000000000000322,0.063251600230734159
0.613000000000000433,0.051322889044619971
0.614000000000000323,0.039831101835446900
0.615000000000000435,0.028770827613304590
0.616000000000000325,0.018136609498088686
0.617000000000000437,0.007922948266252306
0.618000000000000327,-0.001875694182655710
0.619000000000000439,-0.011264891439205194
0.620000000000000329,-0.020250249276366344
0.621000000000000441,-0.028837402420222751
0.622000000000000330,-0.037032011398466222
0.623000000000000442,-0.044839759465953435
0.624000000000000332,-0.052266349606565975
0.625000000000000444,-0.059317501610698840
0.626000000000000334,-0.065998949227515410
0.627000000000000446,-0.072316437391239996
0.628000000000000336,-0.078275719520634515
0.629000000000000448,-0.083882554890853112
0.630000000000000338,-0.089142706076782138
0.631000000000000449,-0.094061936467066259
0.632000000000000339,-0.098646007847881453
0.633000000000000451,-0.102900678055584754
0.634000000000000341,-0.106831698697334360
0.635000000000000453,-0.110444812938791909
0.636000000000000343,-0.113745753357912677
0.637000000000000455,-0.116740239863987405
0.638000000000000345,-0.119433977680885484
0.639000000000000457,-0.121832655393657202
0.640000000000000346,-0.123941943057456289
0.641000000000000458,-0.125767490367890117
0.642000000000000348,-0.127314924891782338
0.643000000000000460,-0.128589850357419822
0.644000000000000350,-0.129597845003309564
0.645000000000000462,-0.130344459984449268
0.646000000000000352,-0.130835217835183037
0.647000000000000464,-0.131075610987650470
0.648000000000000353,-0.131071100344854280
0.649000000000000465,-0.130827113907387160
0.650000000000000355,-0.130349045452866213
0.651000000000000467,-0.129642253267067908
0.652000000000000357,-0.128712058925874173
0.653000000000000469,-0.127563746126973132
0.654000000000000359,-0.126202559570474160
0.655000000000000471,-0.124633703887398667
0.656000000000000361,-0.122862342615145573
0.657000000000000473,-0.120893597218986987
0.658000000000000362,-0.118732546158655514
0.659000000000000474,-0.116384223999107889
0.660000000000000364,-0.113853620564531050
0.661000000000000476,-0.111145680134691532
0.662000000000000366,-0.108265300682721707
0.663000000000000478,-0.105217333153421660
0.664000000000000368,-0.102006580781230219
0.665000000000000480,-0.098637798446948338
0.666000000000000369,-0.095115692072349947
0.667000000000000481,-0.091444918051830040
0.668000000000000371,-0.087630082720212971
0.669000000000000483,-0.083675741855882391
