# Ag332_MAS-AC
# h[nm],U(h)[kJ/mol]
0.200000000000000011,61.773063905036863730
0.201000000000000012,57.361638887961092337
0.202000000000000013,54.730530645435202075
0.203000000000000014,52.942582013024562571
0.204000000000000015,51.457626628520777956
0.205000000000000016,49.991679818087369824
0.206000000000000016,48.419702652004822596
0.207000000000000017,46.709802029436488624
0.208000000000000018,44.879846927228150832
0.209000000000000019,42.969846018027311629
0.210000000000000020,41.025217783324904985
0.211000000000000021,39.087425670555191459
0.212000000000000022,37.189452316538712751
0.213000000000000023,35.354329360222855883
0.214000000000000024,33.595485453509297713
0.215000000000000024,31.918072936689224406
0.216000000000000025,30.320720271573541993
0.217000000000000026,28.797361023820446491
0.218000000000000027,27.338932520538712367
0.219000000000000028,25.934834635016262183
0.220000000000000029,24.574103807216285844
0.221000000000000030,23.246298651680788794
0.222000000000000031,21.942118227794644270
0.223000000000000032,20.653787345360218097
0.224000000000000032,19.375248880017306163
0.225000000000000033,18.102203676687697254
0.226000000000000034,16.832036150550628406
0.227000000000000035,15.563659504175245019
0.228000000000000036,14.297309491467220965
0.229000000000000037,13.034310488455346899
0.230000000000000038,11.776832667681798483
0.231000000000000039,10.527654547465759904
0.232000000000000040,9.289941218598157135
0.233000000000000040,8.067045182346735288
0.234000000000000041,6.862333958537488066
0.235000000000000042,5.679046403536858634
0.236000000000000043,4.520177960209506018
0.237000000000000044,3.388393782101644547
0.238000000000000045,2.285967766917869959
0.239000000000000046,1.214744936631970473
0.240000000000000047,0.176124254689390275
0.241000000000000048,-0.828941177902496329
0.242000000000000048,-1.799929602305700316
0.243000000000000049,-2.736724695884538594
0.244000000000000050,-3.639581023103230617
0.245000000000000051,-4.509083337429098393
0.246000000000000052,-5.346101949321517388
0.247000000000000053,-6.151746082931990323
0.248000000000000054,-6.927316851510698648
0.249000000000000055,-7.674261198544985341
0.250000000000000056,-8.394127885354537355
0.251000000000000056,-9.088526360929511938
0.252000000000000057,-9.759089129058059697
0.253000000000000058,-10.407438032611157297
0.254000000000000059,-11.035154705473205539
0.255000000000000060,-11.643755298406862408
0.256000000000000061,-12.234669464892245827
0.257000000000000062,-12.809223495030256146
0.258000000000000063,-13.368627408028171288
0.259000000000000064,-13.913965754528442531
0.260000000000000064,-14.446191836986610468
0.261000000000000065,-14.966125027361064426
0.262000000000000066,-15.474450844536352889
0.263000000000000067,-15.971723447262823115
0.264000000000000068,-16.458370200203255251
0.265000000000000069,-16.934697979328980466
0.266000000000000070,-17.400900896961321251
0.267000000000000071,-17.857069144933355176
0.268000000000000071,-18.303198675529962713
0.269000000000000072,-18.739201463085873200
0.270000000000000073,-19.164916113555523935
0.271000000000000074,-19.580118614323264836
0.272000000000000075,-19.984533041424974442
0.273000000000000076,-20.377842065737631572
0.274000000000000077,-20.759697123195749668
0.275000000000000078,-21.129728136428177265
0.276000000000000079,-21.487552696168087607
0.277000000000000079,-21.832784630228783129
0.278000000000000080,-22.165041905664299549
0.279000000000000081,-22.483953825906333179
0.280000000000000082,-22.789167499175199794
0.281000000000000083,-23.080353567329545683
0.282000000000000084,-23.357211195592348929
0.283000000000000085,-23.619472333337288461
0.284000000000000086,-23.866905264421284016
0.285000000000000087,-24.099317472495549453
0.286000000000000087,-24.316557852418320351
0.287000000000000088,-24.518518303429498673
0.288000000000000089,-24.705134743232655126
0.289000000000000090,-24.876387584668265163
0.290000000000000091,-25.032301718351916975
0.291000000000000092,-25.172946045592670572
0.292000000000000093,-25.298432606190068839
0.293000000000000094,-25.408915345423523036
0.294000000000000095,-25.504588563775897114
0.295000000000000095,-25.585685091752168319
0.296000000000000096,-25.652474230632471119
0.297000000000000097,-25.705259498203567148
0.298000000000000098,-25.744376216499841092
0.299000000000000099,-25.770188976409208692
0.300000000000000100,-25.783089011705719429
0.301000000000000101,-25.783491512702607196
0.302000000000000102,-25.771832907311942762
0.303000000000000103,-25.748568134883139891
0.304000000000000103,-25.714167935798165843
0.305000000000000104,-25.669116177450909788
0.306000000000000105,-25.613907234950538339
0.307000000000000106,-25.549043442679366223
0.308000000000000107,-25.475032630719027793
0.309000000000000108,-25.392385758143298347
0.310000000000000109,-25.301614653269975719
0.311000000000000110,-25.203229869173252808
0.312000000000000111,-25.097738661085173817
0.313000000000000111,-24.985643090762152951
0.314000000000000112,-24.867438261459739124
0.315000000000000113,-24.743610685845634833
0.316000000000000114,-24.614636787985070043
0.317000000000000115,-24.480981539450528572
0.318000000000000116,-24.343097228636583651
0.319000000000000117,-24.201422361495684044
0.320000000000000118,-24.056380691146930673
0.321000000000000119,-23.908380373143039321
0.322000000000000119,-23.757813242604321147
0.323000000000000120,-23.605054208938192062
0.324000000000000121,-23.450460763452120716
0.325000000000000122,-23.294372594831834533
0.326000000000000123,-23.137111307189034193
0.327000000000000124,-22.978980235178941172
0.328000000000000125,-22.820264350542018406
0.329000000000000126,-22.661230254330671841
0.330000000000000127,-22.502126249036102479
0.331000000000000127,-22.343182484828261636
0.332000000000000128,-22.184611174157147673
0.333000000000000129,-22.026606869033855673
0.334000000000000130,-21.869346795409136064
0.335000000000000131,-21.712991239193524251
0.336000000000000132,-21.557683978610892694
0.337000000000000133,-21.403552757744932933
0.338000000000000134,-21.250709796321462619
0.339000000000000135,-21.099252330965743596
0.340000000000000135,-20.949263183381297893
0.341000000000000136,-20.800811351111249792
0.342000000000000137,-20.653952616764570394
0.343000000000000138,-20.508730171813866150
0.344000000000000139,-20.365175251298214931
0.345000000000000140,-20.223307775991809621
0.346000000000000141,-20.083136998824990371
0.347000000000000142,-19.944662152568174207
0.348000000000000143,-19.807873096009650737
0.349000000000000143,-19.672750956073898010
0.350000000000000144,-19.539268763538174767
0.351000000000000145,-19.407392080209397989
0.352000000000000146,-19.277079615622067621
0.353000000000000147,-19.148283831508656760
0.354000000000000148,-19.020951532477951673
0.355000000000000149,-18.895024441512358493
0.356000000000000150,-18.770439759063517471
0.357000000000000151,-18.647130704684961700
0.358000000000000151,-18.525027040292425085
0.359000000000000152,-18.404055574285219876
0.360000000000000153,-18.284140645897526412
0.361000000000000154,-18.165204589274889457
0.362000000000000155,-18.047168176890075131
0.363000000000000156,-17.929951042023056118
0.364000000000000157,-17.813472080132815023
0.365000000000000158,-17.697649829044301839
0.366000000000000159,-17.582402827961523428
0.367000000000000159,-17.467649955398549366
0.368000000000000160,-17.353310746194814840
0.369000000000000161,-17.239305687847686244
0.370000000000000162,-17.125556496456621147
0.371000000000000163,-17.011986372628516762
0.372000000000000164,-16.898520237742236105
0.373000000000000165,-16.785084951014873411
0.374000000000000166,-16.671609507850014609
0.375000000000000167,-16.558025219982209109
0.376000000000000167,-16.444265877960685174
0.377000000000000168,-16.330267896539595540
0.378000000000000169,-16.215970443562838454
0.379000000000000170,-16.101315552947834675
0.380000000000000171,-15.986248222385560425
0.381000000000000172,-15.870716496384085659
0.382000000000000173,-15.754671535289043405
0.383000000000000174,-15.638067670918578855
0.384000000000000175,-15.520862449451055198
0.385000000000000175,-15.403016662202787757
0.386000000000000176,-15.284494364929312127
0.387000000000000177,-15.165262886278350507
0.388000000000000178,-15.045292826015227661
0.389000000000000179,-14.924558043632577764
0.390000000000000180,-14.803035637945654912
0.391000000000000181,-14.680705918262912490
0.392000000000000182,-14.557552367708723295
0.393000000000000183,-14.433561599260917419
0.394000000000000183,-14.308723305051433528
0.395000000000000184,-14.183030199462564269
0.396000000000000185,-14.056477956535283980
0.397000000000000186,-13.929065142189486437
0.398000000000000187,-13.800793141738807890
0.399000000000000188,-13.671666083165323613
0.400000000000000189,-13.541690756601909129
0.401000000000000190,-13.410876530451934840
0.402000000000000191,-13.279235264558607810
0.403000000000000191,-13.146781220817825186
0.404000000000000192,-13.013530971610981268
0.405000000000000193,-12.879503306416333785
0.406000000000000194,-12.744719136939792747
0.407000000000000195,-12.609201401089132233
0.408000000000000196,-12.472974966097771343
0.409000000000000197,-12.336066531088210496
0.410000000000000198,-12.198504529348255687
0.411000000000000199,-12.060319030577115740
0.412000000000000199,-11.921541643342624894
0.413000000000000200,-11.782205417975724515
0.414000000000000201,-11.642344750112979312
0.415000000000000202,-11.501995285083593146
0.416000000000000203,-11.361193823323365137
0.417000000000000204,-11.219978226984050451
0.418000000000000205,-11.078387327893816305
0.419000000000000206,-10.936460837011548364
0.420000000000000207,-10.794239255505301500
0.421000000000000207,-10.651763787574063613
0.422000000000000208,-10.509076255119783383
0.423000000000000209,-10.366219014366681250
0.424000000000000210,-10.223234874513895676
0.425000000000000211,-10.080167018497693476
0.426000000000000212,-9.937058925930386977
0.427000000000000213,-9.793954298273577663
0.428000000000000214,-9.650896986295236957
0.429000000000000214,-9.507930919851741436
0.430000000000000215,-9.365100040028321970
0.431000000000000216,-9.222448233664405137
0.432000000000000217,-9.080019270282877031
0.433000000000000218,-8.937856741436451813
0.434000000000000219,-8.796004002477799233
0.435000000000000220,-8.654504116754660359
0.436000000000000221,-8.513399802225553259
0.437000000000000222,-8.372733380486955923
0.438000000000000222,-8.232546728198041563
0.439000000000000223,-8.092881230884724886
0.440000000000000224,-7.953777739100830857
0.441000000000000225,-7.815276526920300171
0.442000000000000226,-7.677417252731411068
0.443000000000000227,-7.540238922300112279
0.444000000000000228,-7.403779854067470190
0.445000000000000229,-7.268077646643111400
0.446000000000000230,-7.133169148454355124
0.447000000000000230,-6.999090429508687983
0.448000000000000231,-6.865876755225203354
0.449000000000000232,-6.733562562288931019
0.450000000000000233,-6.602181436480742960
0.451000000000000234,-6.471766092433815842
0.452000000000000235,-6.342348355267020565
0.453000000000000236,-6.213959144044155281
0.454000000000000237,-6.086628457007703830
0.455000000000000238,-5.960385358534667333
0.456000000000000238,-5.835257967762053077
0.457000000000000239,-5.711273448828725563
0.458000000000000240,-5.588458002680781078
0.459000000000000241,-5.466836860386760755
0.460000000000000242,-5.346434277909812849
0.461000000000000243,-5.227273532283403412
0.462000000000000244,-5.109376919137939232
0.463000000000000245,-4.992765751525465312
0.464000000000000246,-4.877460359990507754
0.465000000000000246,-4.763480093835354090
0.466000000000000247,-4.650843323528557782
0.467000000000000248,-4.539567444206249469
0.468000000000000249,-4.429668880216521387
0.469000000000000250,-4.321163090657685224
0.470000000000000251,-4.214064575862279227
0.471000000000000252,-4.108386884779205772
0.472000000000000253,-4.004142623207648022
0.473000000000000254,-3.901343462836932563
0.474000000000000254,-3.800000151047728814
0.475000000000000255,-3.700122521430806444
0.476000000000000256,-3.601719504980573472
0.477000000000000257,-3.504799141921782102
0.478000000000000258,-3.409368594128513674
0.479000000000000259,-3.315434158095965866
0.480000000000000260,-3.223001278426362859
0.481000000000000261,-3.132074561791397649
0.482000000000000262,-3.042657791334915096
0.483000000000000262,-2.954753941480276147
0.484000000000000263,-2.868365193108211919
0.485000000000000264,-2.783492949071862288
0.486000000000000265,-2.700137850016892216
0.487000000000000266,-2.618299790475589361
0.488000000000000267,-2.537977935204808855
0.489000000000000268,-2.459170735739001135
0.490000000000000269,-2.381875947130116522
0.491000000000000270,-2.306090644847743398
0.492000000000000270,-2.231811241813378643
0.493000000000000271,-2.159033505544123877
0.494000000000000272,-2.087752575381821352
0.495000000000000273,-2.017962979784722943
0.496000000000000274,-1.949658653659873675
0.497000000000000275,-1.882832955715007417
0.498000000000000276,-1.817478685810073102
0.499000000000000277,-1.753588102289123096
0.500000000000000222,-1.691152939274311873
0.501000000000000334,-1.630164423904610915
0.502000000000000224,-1.570613293502769459
0.503000000000000336,-1.512489812654588039
0.504000000000000226,-1.455783790185947391
0.505000000000000338,-1.400484596023068296
0.506000000000000227,-1.346581177923152683
0.507000000000000339,-1.294062078062296006
0.508000000000000229,-1.242915449469321088
0.509000000000000341,-1.193129072293962700
0.510000000000000231,-1.144690369899378668
0.511000000000000343,-1.097586424768768776
0.512000000000000233,-1.051803994217378913
0.513000000000000345,-1.007329525901059286
0.514000000000000234,-0.964149173113838076
0.515000000000000346,-0.922248809866809793
0.516000000000000236,-0.881614045742027508
0.517000000000000348,-0.842230240514898143
0.518000000000000238,-0.804082518539666502
0.519000000000000350,-0.767155782892688265
0.520000000000000240,-0.731434729269033412
0.521000000000000352,-0.696903859628095645
0.522000000000000242,-0.663547495584657310
0.523000000000000353,-0.631349791542030636
0.524000000000000243,-0.600294747564559694
0.525000000000000355,-0.570366221986921773
0.526000000000000245,-0.541547943758359684
0.527000000000000357,-0.513823524519972263
0.528000000000000247,-0.487176470414001694
0.529000000000000359,-0.461590193623885814
0.530000000000000249,-0.437048023644679706
0.531000000000000361,-0.413533218283313908
0.532000000000000250,-0.391028974388852091
0.533000000000000362,-0.369518438312782638
0.534000000000000252,-0.348984716100054493
0.535000000000000364,-0.329410883411526301
0.536000000000000254,-0.310779995178871338
0.537000000000000366,-0.293075094993151208
0.538000000000000256,-0.276279224228620002
0.539000000000000368,-0.260375430903253324
0.540000000000000258,-0.245346778278075023
0.541000000000000369,-0.231176353197106887
0.542000000000000259,-0.217847274170340055
0.543000000000000371,-0.205342699201955081
0.544000000000000261,-0.193645833366442977
0.545000000000000373,-0.182739936135166453
0.546000000000000263,-0.172608328456264365
0.547000000000000375,-0.163234399590744095
0.548000000000000265,-0.154601613707834873
0.549000000000000377,-0.146693516242716898
0.550000000000000266,-0.139493740019833057
0.551000000000000378,-0.132986011145172028
0.552000000000000268,-0.127154154670850617
0.553000000000000380,-0.121982100035483404
0.554000000000000270,-0.117453886283917064
0.555000000000000382,-0.113553667069872494
0.556000000000000272,-0.110265715445190302
0.557000000000000384,-0.107574428439313044
0.558000000000000274,-0.105464331432844477
0.559000000000000385,-0.103920082328829586
0.560000000000000275,-0.102926475525664834
0.561000000000000387,-0.102468445695410998
0.562000000000000277,-0.102531071371331634
0.563000000000000389,-0.103099578348578122
0.564000000000000279,-0.104159342901824825
0.565000000000000391,-0.105695894823796196
0.566000000000000281,-0.107694920288452248
0.567000000000000393,-0.110142264542833448
0.568000000000000282,-0.113023934431336848
0.569000000000000394,-0.116326100756316816
0.570000000000000284,-0.120035100478814119
0.571000000000000396,-0.124137438763315705
0.572000000000000286,-0.128619790870273837
0.573000000000000398,-0.133469003900192507
0.574000000000000288,-0.138672098393034571
0.575000000000000400,-0.144216269786742318
0.576000000000000290,-0.150088889738438175
0.577000000000000401,-0.156277507312125641
0.578000000000000291,-0.162769850036433433
0.579000000000000403,-0.169553824836005618
0.580000000000000293,-0.176617518840130966
0.581000000000000405,-0.183949200072168445
0.582000000000000295,-0.191537318023107445
0.583000000000000407,-0.199370504112901248
0.584000000000000297,-0.207437572042784429
0.585000000000000409,-0.215727518042082067
0.586000000000000298,-0.224229521012656058
0.587000000000000410,-0.232932942574426066
0.588000000000000300,-0.241827327014994597
0.589000000000000412,-0.250902401146693099
0.590000000000000302,-0.260148074074028013
0.591000000000000414,-0.269554436874732128
0.592000000000000304,-0.279111762197269020
0.593000000000000416,-0.288810503777903516
0.594000000000000306,-0.298641295880141988
0.595000000000000417,-0.308594952659483723
0.596000000000000307,-0.318662467456170440
0.597000000000000419,-0.328835012018836026
0.598000000000000309,-0.339103935661667133
0.599000000000000421,-0.349460764357699127
0.600000000000000311,-0.359897199770932930
0.601000000000000423,-0.370405118229759744
0.602000000000000313,-0.380976569644174645
0.603000000000000425,-0.391603776369258361
0.604000000000000314,-0.402279132017288377
0.605000000000000426,-0.412995200220829362
0.606000000000000316,-0.423744713349076485
0.607000000000000428,-0.434520571179673520
0.608000000000000318,-0.445315839528218960
0.609000000000000430,-0.456123748837595322
0.610000000000000320,-0.466937692729111453
0.611000000000000432,-0.477751226517657002
0.612000000000000322,-0.488558065692655308
0.613000000000000433,-0.499352084366914695
0.614000000000000323,-0.510127313695158735
0.615000000000000435,-0.520877940264131145
0.616000000000000325,-0.531598304455992654
0.617000000000000437,-0.542282898786859979
0.618000000000000327,-0.552926366222063925
0.619000000000000439,-0.563523498469869710
0.620000000000000329,-0.574069234255209060
0.621000000000000441,-0.584558657575006690
0.622000000000000330,-0.594986995936614860
0.623000000000000442,-0.605349618580840021
0.624000000000000332,-0.615642034690931039
0.625000000000000444,-0.625859891589044759
0.626000000000000334,-0.635998972921365202
0.627000000000000446,-0.646055196833355772
0.628000000000000336,-0.656024614136270667
0.629000000000000448,-0.665903406466242909
0.630000000000000338,-0.675687884437072617
0.631000000000000449,-0.685374485787941246
0.632000000000000339,-0.694959773527076941
0.633000000000000451,-0.704440434072521660
0.634000000000000341,-0.713813275390964841
0.635000000000000453,-0.723075225135778932
0.636000000000000343,-0.732223328785005956
0.637000000000000455,-0.741254747780526135
0.638000000000000345,-0.750166757668991879
0.639000000000000457,-0.758956746245687652
0.640000000000000346,-0.767622211701919133
0.641000000000000458,-0.776160760776935299
0.642000000000000348,-0.784570106914971754
0.643000000000000460,-0.792848068428341768
0.644000000000000350,-0.800992566667142802
0.645000000000000462,-0.809001624196385216
0.646000000000000352,-0.816873362981085593
0.647000000000000464,-0.824606002580100084
0.648000000000000353,-0.832197858349144726
0.649000000000000465,-0.839647339653737612
0.650000000000000355,-0.846952948092486224
0.651000000000000467,-0.854113275731348209
0.652000000000000357,-0.861127003349311027
0.653000000000000469,-0.867992898695992166
0.654000000000000359,-0.874709814761640558
0.655000000000000471,-0.881276688059928759
0.656000000000000361,-0.887692536923977871
0.657000000000000473,-0.893956459816040883
0.658000000000000362,-0.900067633651134735
0.659000000000000474,-0.906025312135051664
