# Ag332_CS-7610-AC
# h[nm],U(h)[kJ/mol]
0.200000000000000011,66.069658811347608207
0.201000000000000012,61.443806928753204488
0.202000000000000013,58.660284626739510827
0.203000000000000014,56.750094103273895030
0.204000000000000015,55.155766261977433373
0.205000000000000016,53.584770909962415431
0.206000000000000016,51.908531116936160288
0.207000000000000017,50.094262847738200151
0.208000000000000018,48.160163896188947774
0.209000000000000019,46.146976885899121612
0.210000000000000020,44.100835416936078559
0.211000000000000021,42.063714594562085836
0.212000000000000022,40.068858978993574738
0.213000000000000023,38.139338873210995473
0.214000000000000024,36.288456455727128969
0.215000000000000024,34.521137789732527779
0.216000000000000025,32.835744443195110875
0.217000000000000026,31.225949291606305280
0.218000000000000027,29.682467816298562013
0.219000000000000028,28.194536084011105004
0.220000000000000029,26.751092562096708605
0.221000000000000030,25.341662685339997552
0.222000000000000031,23.956969846563136883
0.223000000000000032,22.589309538608468131
0.224000000000000032,21.232728598913311657
0.225000000000000033,19.883051688437326732
0.226000000000000034,18.537794255094219409
0.227000000000000035,17.195996669457041861
0.228000000000000036,15.858008917602498755
0.229000000000000037,14.525249811608313522
0.230000000000000038,13.199959520603560037
0.231000000000000039,11.884959559220458658
0.232000000000000040,10.583430307402998949
0.233000000000000040,9.298712711018330523
0.234000000000000041,8.034138012271190732
0.235000000000000042,6.792887137928036445
0.236000000000000043,5.577879670493452124
0.237000000000000044,4.391691074103496462
0.238000000000000045,3.236495973314498453
0.239000000000000046,2.114034722475321537
0.240000000000000047,1.025600194667636744
0.241000000000000048,-0.027958392336002013
0.242000000000000048,-1.046217757480854216
0.243000000000000049,-2.029151942062040526
0.244000000000000050,-2.977095573120339900
0.245000000000000051,-3.890701506445717772
0.246000000000000052,-4.770895052817999193
0.247000000000000053,-5.618826683456835447
0.248000000000000054,-6.435824806488175120
0.249000000000000055,-7.223349915041323399
0.250000000000000056,-7.982951135982925273
0.251000000000000056,-8.716225960555510355
0.252000000000000057,-9.424783716750031459
0.253000000000000058,-10.110213149080930606
0.254000000000000059,-10.774054304427087558
0.255000000000000060,-11.417774781808034845
0.256000000000000061,-12.042750287865654713
0.257000000000000062,-12.650249346511337478
0.258000000000000063,-13.241421938544693404
0.259000000000000064,-13.817291792808234163
0.260000000000000064,-14.378752012354755863
0.261000000000000065,-14.926563694963661533
0.262000000000000066,-15.461357195050675628
0.263000000000000067,-15.983635671605574302
0.264000000000000068,-16.493780572465116308
0.265000000000000069,-16.992058717352108488
0.266000000000000070,-17.478630659230692146
0.267000000000000071,-17.953560024365941672
0.268000000000000071,-18.416823554918767769
0.269000000000000072,-18.868321603005661302
0.270000000000000073,-19.307888851102212868
0.271000000000000074,-19.735305059802982441
0.272000000000000075,-20.150305669724509983
0.273000000000000076,-20.552592109316140778
0.274000000000000077,-20.941841684191441431
0.275000000000000078,-21.317716946054630967
0.276000000000000079,-21.679874460195499353
0.277000000000000079,-22.027972909744590879
0.278000000000000080,-22.361680492353087857
0.279000000000000081,-22.680681580670626118
0.280000000000000082,-22.984682631951649512
0.281000000000000083,-23.273417344373505955
0.282000000000000084,-23.546651068260665340
0.283000000000000085,-23.804184489465392005
0.284000000000000086,-24.045856609748955890
0.285000000000000087,-24.271547055244241164
0.286000000000000087,-24.481177749068528726
0.287000000000000088,-24.674713988005784415
0.288000000000000089,-24.852164966000806601
0.289000000000000090,-25.013583789113447153
0.290000000000000091,-25.159067027672904260
0.291000000000000092,-25.288753851753487112
0.292000000000000093,-25.402824795857384288
0.293000000000000094,-25.501500197927057911
0.294000000000000095,-25.585038356603654108
0.295000000000000095,-25.653733449074508144
0.296000000000000096,-25.707913249981498183
0.297000000000000097,-25.747936689758098794
0.298000000000000098,-25.774191288481368645
0.299000000000000099,-25.787090498918598058
0.300000000000000100,-25.787070989960405143
0.301000000000000101,-25.774589899103510504
0.302000000000000102,-25.750122080110237732
0.303000000000000103,-25.714157369458376934
0.304000000000000103,-25.667197892728779607
0.305000000000000104,-25.609755429679733396
0.306000000000000105,-25.542348854444441031
0.307000000000000106,-25.465501665073357884
0.308000000000000107,-25.379739614538852521
0.309000000000000108,-25.285588453332316305
0.310000000000000109,-25.183571791919771243
0.311000000000000110,-25.074209089584392984
0.312000000000000111,-24.958013774574943966
0.313000000000000111,-24.835491498997839699
0.314000000000000112,-24.707138530536106202
0.315000000000000113,-24.573440281848764499
0.316000000000000114,-24.434869977395202056
0.317000000000000115,-24.291887456437457615
0.318000000000000116,-24.144938110093409733
0.319000000000000117,-23.994451949541463875
0.320000000000000118,-23.840842801805720796
0.321000000000000119,-23.684507628974909466
0.322000000000000119,-23.525825966221820096
0.323000000000000120,-23.365159473587404193
0.324000000000000121,-23.202851596167711534
0.325000000000000122,-23.039227327088166675
0.326000000000000123,-22.874593067460473605
0.327000000000000124,-22.709236577388857370
0.328000000000000125,-22.543427012017428268
0.329000000000000126,-22.377415036584419994
0.330000000000000127,-22.211433014466742009
0.331000000000000127,-22.045695262255133429
0.332000000000000128,-21.880398365990945564
0.333000000000000129,-21.715721552816241058
0.334000000000000130,-21.551827112435770317
0.335000000000000131,-21.388860862958452458
0.336000000000000132,-21.226952655872661779
0.337000000000000133,-21.066216915113223251
0.338000000000000134,-20.906753205392455186
0.339000000000000135,-20.748646825192768262
0.340000000000000135,-20.591969420049849759
0.341000000000000136,-20.436779611992527350
0.342000000000000137,-20.283123641244511504
0.343000000000000138,-20.131036016534210376
0.344000000000000139,-19.980540170598136029
0.345000000000000140,-19.831649117701871887
0.346000000000000141,-19.684366110236354075
0.347000000000000142,-19.538685291677431621
0.348000000000000143,-19.394592343421361846
0.349000000000000143,-19.252065123226717702
0.350000000000000144,-19.111074293205021490
0.351000000000000145,-18.971583935505780261
0.352000000000000146,-18.833552154037896287
0.353000000000000147,-18.696931660756689553
0.354000000000000148,-18.561670345225024903
0.355000000000000149,-18.427711826326973465
0.356000000000000150,-18.294995985174232089
0.357000000000000151,-18.163459478397548708
0.358000000000000151,-18.033036231159332630
0.359000000000000152,-17.903657909357995948
0.360000000000000153,-17.775254370621020428
0.361000000000000154,-17.647754093800777753
0.362000000000000155,-17.521084586796359162
0.363000000000000156,-17.395172772625699054
0.364000000000000157,-17.269945353764715179
0.365000000000000158,-17.145329154856320031
0.366000000000000159,-17.021251443969067196
0.367000000000000159,-16.897640232656662818
0.368000000000000160,-16.774424555133339965
0.369000000000000161,-16.651534726937303077
0.370000000000000162,-16.528902583506063451
0.371000000000000163,-16.406461699132769638
0.372000000000000164,-16.284147586812036224
0.373000000000000165,-16.161897879519052879
0.374000000000000166,-16.039652493494639174
0.375000000000000167,-15.917353774134236133
0.376000000000000167,-15.794946625099239412
0.377000000000000168,-15.672378621285650624
0.378000000000000169,-15.549600106297589264
0.379000000000000170,-15.426564275082728983
0.380000000000000171,-15.303227242392178908
0.381000000000000172,-15.179548097730796385
0.382000000000000173,-15.055488947463638638
0.383000000000000174,-14.931014944742383221
0.384000000000000175,-14.806094307910536045
0.385000000000000175,-14.680698328039838430
0.386000000000000176,-14.554801366241557403
0.387000000000000177,-14.428380841386076128
0.388000000000000178,-14.301417208852640783
0.389000000000000179,-14.173893930917696338
0.390000000000000180,-14.045797439376311644
0.391000000000000181,-13.917117090975711591
0.392000000000000182,-13.787845116223952147
0.393000000000000183,-13.657976562119648278
0.394000000000000183,-13.527509229331547758
0.395000000000000184,-13.396443604338340805
0.396000000000000185,-13.264782787021053068
0.397000000000000186,-13.132532414181492086
0.398000000000000187,-12.999700579441508808
0.399000000000000188,-12.866297749958647501
0.400000000000000189,-12.732336680375066607
0.401000000000000190,-12.597832324397206349
0.402000000000000191,-12.462801744385382463
0.403000000000000191,-12.327264019313068033
0.404000000000000192,-12.191240151437822803
0.405000000000000193,-12.054752972007014122
0.406000000000000194,-11.917827046303894889
0.407000000000000195,-11.780488578321916648
0.408000000000000196,-11.642765315337763710
0.409000000000000197,-11.504686452636931904
0.410000000000000198,-11.366282538629340237
0.411000000000000199,-11.227585380576220686
0.412000000000000199,-11.088627951134210292
0.413000000000000200,-10.949444295907733604
0.414000000000000201,-10.810069442185840316
0.415000000000000202,-10.670539309025858898
0.416000000000000203,-10.530890618832852823
0.417000000000000204,-10.391160810570442052
0.418000000000000205,-10.251387954726446594
0.419000000000000206,-10.111610670144674629
0.420000000000000207,-9.971868042822443101
0.421000000000000207,-9.832199546763082054
0.422000000000000208,-9.692644966961282194
0.423000000000000209,-9.553244324590135506
0.424000000000000210,-9.414037804448485147
0.425000000000000211,-9.275065684718503789
0.426000000000000212,-9.136368269074948145
0.427000000000000213,-8.997985821179145915
0.428000000000000214,-8.859958501583610868
0.429000000000000214,-8.722326307065417339
0.430000000000000215,-8.585129012400164683
0.431000000000000216,-8.448406114581924697
0.432000000000000217,-8.312196779488310483
0.433000000000000218,-8.176539790984639566
0.434000000000000219,-8.041473502455808386
0.435000000000000220,-7.907035790749671555
0.436000000000000221,-7.773264012511271304
0.437000000000000222,-7.640194962883144925
0.438000000000000222,-7.507864836543170384
0.439000000000000223,-7.376309191047907277
0.440000000000000224,-7.245562912446125381
0.441000000000000225,-7.115660183124346005
0.442000000000000226,-6.986634451843855231
0.443000000000000227,-6.858518405925693173
0.444000000000000228,-6.731343945538656115
0.445000000000000229,-6.605142160043034671
0.446000000000000230,-6.479943306341302112
0.447000000000000230,-6.355776789185570763
0.448000000000000231,-6.232671143390323465
0.449000000000000232,-6.110654017897836354
0.450000000000000233,-5.989752161643034256
0.451000000000000234,-5.869991411163595352
0.452000000000000235,-5.751396679900760311
0.453000000000000236,-5.633991949135770838
0.454000000000000237,-5.517800260506844801
0.455000000000000238,-5.402843710051144832
0.456000000000000238,-5.289143443716656456
0.457000000000000239,-5.176719654288488570
0.458000000000000240,-5.065591579674990186
0.459000000000000241,-4.955777502498682097
0.460000000000000242,-4.847294750938170083
0.461000000000000243,-4.740159700767103246
0.462000000000000244,-4.634387778537302438
0.463000000000000245,-4.529993465853459078
0.464000000000000246,-4.426990304687886457
0.465000000000000246,-4.325390903684398936
0.466000000000000247,-4.225206945401223990
0.467000000000000248,-4.126449194443797985
0.468000000000000249,-4.029127506439406758
0.469000000000000250,-3.933250837806184563
0.470000000000000251,-3.838827256270489929
0.471000000000000252,-3.745863952087272963
0.472000000000000253,-3.654367249919519445
0.473000000000000254,-3.564342621333596917
0.474000000000000254,-3.475794697868646921
0.475000000000000255,-3.388727284639228010
0.476000000000000256,-3.303143374431493307
0.477000000000000257,-3.219045162254489778
0.478000000000000258,-3.136434060309018168
0.479000000000000259,-3.055310713338002415
0.480000000000000260,-2.975675014323184264
0.481000000000000261,-2.897526120494164470
0.482000000000000262,-2.820862469617142487
0.483000000000000262,-2.745681796531542762
0.484000000000000263,-2.671981149904087083
0.485000000000000264,-2.599756909170838792
0.486000000000000265,-2.529004801638987665
0.487000000000000266,-2.459719919721105263
0.488000000000000267,-2.391896738275716583
0.489000000000000268,-2.325529132029261259
0.490000000000000269,-2.260610393055213940
0.491000000000000270,-2.197133248287620688
0.492000000000000270,-2.135089877046854490
0.493000000000000271,-2.074471928556825606
0.494000000000000272,-2.015270539433480224
0.495000000000000273,-1.957476351125634340
0.496000000000000274,-1.901079527290072679
0.497000000000000275,-1.846069771083583166
0.498000000000000276,-1.792436342355786305
0.499000000000000277,-1.740168074727237890
0.500000000000000222,-1.689253392538236698
0.501000000000000334,-1.639680327654593928
0.502000000000000224,-1.591436536117494027
0.503000000000000336,-1.544509314625073682
0.504000000000000226,-1.498885616834616075
0.505000000000000338,-1.454552069474343012
0.506000000000000227,-1.411494988255243666
0.507000000000000339,-1.369700393573269892
0.508000000000000229,-1.329154025993673605
0.509000000000000341,-1.289841361509249884
0.510000000000000231,-1.251747626565473670
0.511000000000000343,-1.214857812845481444
0.512000000000000233,-1.179156691809096769
0.513000000000000345,-1.144628828980070789
0.514000000000000234,-1.111258597976812812
0.515000000000000346,-1.079030194281765942
0.516000000000000236,-1.047927648745780704
0.517000000000000348,-1.017934840823729647
0.518000000000000238,-0.989035511538462031
0.519000000000000350,-0.961213276170406639
0.520000000000000240,-0.934451636670732499
0.521000000000000352,-0.908733993796221107
0.522000000000000242,-0.884043658964536183
0.523000000000000353,-0.860363865828839947
0.524000000000000243,-0.837677781571152247
0.525000000000000355,-0.815968517914068103
0.526000000000000245,-0.795219141850971534
0.527000000000000357,-0.775412686094889780
0.528000000000000247,-0.756532159246807612
0.529000000000000359,-0.738560555684106168
0.530000000000000249,-0.721480865170484931
0.531000000000000361,-0.705276082188581177
0.532000000000000250,-0.689929214997092588
0.533000000000000362,-0.675423294414082886
0.534000000000000252,-0.661741382328658645
0.535000000000000364,-0.648866579943240596
0.536000000000000254,-0.636782035748829300
0.537000000000000366,-0.625470953235909399
0.538000000000000256,-0.614916598343801191
0.539000000000000368,-0.605102306651271848
0.540000000000000258,-0.596011490311623482
0.541000000000000369,-0.587627644735286170
0.542000000000000259,-0.579934355023353110
0.543000000000000371,-0.572915302155391104
0.544000000000000261,-0.566554268935124838
0.545000000000000373,-0.560835145697510140
0.546000000000000263,-0.555741935780987295
0.547000000000000375,-0.551258760768621792
0.548000000000000265,-0.547369865502003616
0.549000000000000377,-0.544059622871792548
0.550000000000000266,-0.541312538388838305
0.551000000000000378,-0.539113254539937414
0.552000000000000268,-0.537446554932200504
0.553000000000000380,-0.536297368230125526
0.554000000000000270,-0.535650771889489508
0.555000000000000382,-0.535491995692163547
0.556000000000000272,-0.535806425086008842
0.557000000000000384,-0.536579604333943805
0.558000000000000274,-0.537797239476456079
0.559000000000000385,-0.539445201111574568
0.560000000000000275,-0.541509526996576396
0.561000000000000387,-0.543976424475514198
0.562000000000000277,-0.546832272736695102
0.563000000000000389,-0.550063624904283288
0.564000000000000279,-0.553657209968083319
0.565000000000000391,-0.557599934555637944
0.566000000000000281,-0.561878884550605529
0.567000000000000393,-0.566481326561578569
0.568000000000000282,-0.571394709245238053
0.569000000000000394,-0.576606664487863130
0.570000000000000284,-0.582105008449086969
0.571000000000000396,-0.587877742471859643
0.572000000000000286,-0.593913053862418883
0.573000000000000398,-0.600199316544073769
0.574000000000000288,-0.606725091588593446
0.575000000000000400,-0.613479127628970611
0.576000000000000290,-0.620450361157096175
0.577000000000000401,-0.627627916710146394
0.578000000000000291,-0.635001106949134142
0.579000000000000403,-0.642559432633182714
0.580000000000000293,-0.650292582493015248
0.581000000000000405,-0.658190433007109332
0.582000000000000295,-0.666243048083760447
0.583000000000000407,-0.674440678652547532
0.584000000000000297,-0.682773762168275011
0.585000000000000409,-0.691232922030762476
0.586000000000000298,-0.699808966923459175
0.587000000000000410,-0.708492890074138848
0.588000000000000300,-0.717275868440549358
0.589000000000000412,-0.726149261824120096
0.590000000000000302,-0.735104611914535466
0.591000000000000414,-0.744133641268142298
0.592000000000000304,-0.753228252222863714
0.593000000000000416,-0.762380525752483829
0.594000000000000306,-0.771582720262892874
0.595000000000000417,-0.780827270333012247
0.596000000000000307,-0.790106785402828971
0.597000000000000419,-0.799414048411219436
0.598000000000000309,-0.808742014385915864
0.599000000000000421,-0.818083808987989158
0.600000000000000311,-0.827432727013288849
0.601000000000000423,-0.836782230853051145
0.602000000000000313,-0.846125948915912973
0.603000000000000425,-0.855457674013542224
0.604000000000000314,-0.864771361711965447
0.605000000000000426,-0.874061128650691743
0.606000000000000316,-0.883321250831630267
0.607000000000000428,-0.892546161879737121
0.608000000000000318,-0.901730451277363287
0.609000000000000430,-0.910868862574121918
0.610000000000000320,-0.919956291574027696
0.611000000000000432,-0.928987784501800085
0.612000000000000322,-0.937958536149873678
0.613000000000000433,-0.946863888007899335
0.614000000000000323,-0.955699326376279190
0.615000000000000435,-0.964460480465325398
0.616000000000000325,-0.973143120481503976
0.617000000000000437,-0.981743155702327619
0.618000000000000327,-0.990256632541207771
0.619000000000000439,-0.998679732603726555
0.620000000000000329,-1.007008770736628644
0.621000000000000441,-1.015240193070806818
0.622000000000000330,-1.023370575059576071
0.623000000000000442,-1.031396619513404778
0.624000000000000332,-1.039315154632244553
0.625000000000000444,-1.047123132036687831
0.626000000000000334,-1.054817624798883635
0.627000000000000446,-1.062395825474417688
0.628000000000000336,-1.069855044136041489
0.629000000000000448,-1.077192706410302181
0.630000000000000338,-1.084406351517950506
0.631000000000000449,-1.091493630319094299
0.632000000000000339,-1.098452303363900651
0.633000000000000451,-1.105280238949711613
0.634000000000000341,-1.111975411185343932
0.635000000000000453,-1.118535898063428125
0.636000000000000343,-1.124959879541336694
0.637000000000000455,-1.131245635631664026
0.638000000000000345,-1.137391544502648788
0.639000000000000457,-1.143396080589436981
0.640000000000000346,-1.149257812716591776
0.641000000000000458,-1.154975402232620851
0.642000000000000348,-1.160547601156899145
0.643000000000000460,-1.165973250339685130
0.644000000000000350,-1.171251277635613208
0.645000000000000462,-1.176380696091225531
0.646000000000000352,-1.181360602146920291
0.647000000000000464,-1.186190173853857166
0.648000000000000353,-1.190868669106091238
0.649000000000000465,-1.195395423888458764
0.650000000000000355,-1.199769850540467253
0.651000000000000467,-1.203991436036598861
0.652000000000000357,-1.208059740283328853
0.653000000000000469,-1.211974394433131375
0.654000000000000359,-1.215735099215816906
0.655000000000000471,-1.219341623287393706
0.656000000000000361,-1.222793801596726793
0.657000000000000473,-1.226091533770244268
0.658000000000000362,-1.229234782514840418
0.659000000000000474,-1.232223572039210069
