# Ag332_CS-10471-AC
# h[nm],U(h)[kJ/mol]
0.200000000000000011,76.655546300770595280
0.201000000000000012,72.026298010452180165
0.202000000000000013,68.961102882322919072
0.203000000000000014,66.646770240588949719
0.204000000000000015,64.612070418634473867
0.205000000000000016,62.607307253807121583
0.206000000000000016,60.520921542296512996
0.207000000000000017,58.322866939118469531
0.208000000000000018,56.027122082829883709
0.209000000000000019,53.667694883678748852
0.210000000000000020,51.283981373119068792
0.211000000000000021,48.912474763052905757
0.212000000000000022,46.582667830852848567
0.213000000000000023,44.315621218588901797
0.214000000000000024,42.124134136768809356
0.215000000000000024,40.013792722527846024
0.216000000000000025,37.984415997628879325
0.217000000000000026,36.031593808884025520
0.218000000000000027,34.148133476065893888
0.219000000000000028,32.325315916521219606
0.220000000000000029,30.553918188048594828
0.221000000000000030,28.824995526429869841
0.222000000000000031,27.130437898706798450
0.223000000000000032,25.463328178515737932
0.224000000000000032,23.818134453591280675
0.225000000000000033,22.190770004667804471
0.226000000000000034,20.578552801418428686
0.227000000000000035,18.980093108110541067
0.228000000000000036,17.395133780932546586
0.229000000000000037,15.824363606874873867
0.230000000000000038,14.269219924874102290
0.231000000000000039,12.731692990630296691
0.232000000000000040,11.214141207804013689
0.233000000000000040,9.719123494998008539
0.234000000000000041,8.249252691187288988
0.235000000000000042,6.807071995708644074
0.236000000000000043,5.394954950147461403
0.237000000000000044,4.015028348082707588
0.238000000000000045,2.669116651778502103
0.239000000000000046,1.358705950783578142
0.240000000000000047,0.084925167601844681
0.241000000000000048,-1.151457943622441471
0.242000000000000048,-2.350028486633216396
0.243000000000000049,-3.510706210304088692
0.244000000000000050,-4.633719660395690276
0.245000000000000051,-5.719574772076726710
0.246000000000000052,-6.769019759733299502
0.247000000000000053,-7.783007926547791833
0.248000000000000054,-8.762659779433231932
0.249000000000000055,-9.709225603785382575
0.250000000000000056,-10.624049433394620934
0.251000000000000056,-11.508535148006783899
0.252000000000000057,-12.364115247112000162
0.253000000000000058,-13.192222684982203518
0.254000000000000059,-13.994266009204759271
0.255000000000000060,-14.771607922654728995
0.256000000000000061,-15.525547286156736959
0.257000000000000062,-16.257304494768618497
0.258000000000000063,-16.968010093186297382
0.259000000000000064,-17.658696443592305059
0.260000000000000064,-18.330292220657312896
0.261000000000000065,-18.983619481666192286
0.262000000000000066,-19.619393043241640129
0.263000000000000067,-20.238221888320232722
0.264000000000000068,-20.840612326453062053
0.265000000000000069,-21.426972635827688407
0.266000000000000070,-21.997618925438750637
0.267000000000000071,-22.552781969506366266
0.268000000000000071,-23.092614782610407786
0.269000000000000072,-23.617200722262140289
0.270000000000000073,-24.126561925070273418
0.271000000000000074,-24.620667902687475959
0.272000000000000075,-25.099444143854153566
0.273000000000000076,-25.562780588686326411
0.274000000000000077,-26.010539860565746295
0.275000000000000078,-26.442565159330722935
0.276000000000000079,-26.858687736750095354
0.277000000000000079,-27.258733891357383783
0.278000000000000080,-27.642531434537726653
0.279000000000000081,-28.009915593251925259
0.280000000000000082,-28.360734326930320037
0.281000000000000083,-28.694853046888056269
0.282000000000000084,-29.012158736130658099
0.283000000000000085,-29.312563475687888115
0.284000000000000086,-29.596007390691976724
0.285000000000000087,-29.862461035376593799
0.286000000000000087,-30.111927241092001140
0.287000000000000088,-30.344442455390954194
0.288000000000000089,-30.560077603321076367
0.289000000000000090,-30.758938504348122933
0.290000000000000091,-30.941165879908936631
0.291000000000000092,-31.106934987536824622
0.292000000000000093,-31.256454917887889877
0.293000000000000094,-31.389967590899694017
0.294000000000000095,-31.507746486799458552
0.295000000000000095,-31.610095146814138900
0.296000000000000096,-31.697345477273906056
0.297000000000000097,-31.769855889401405591
0.298000000000000098,-31.828009305488073721
0.299000000000000099,-31.872211060421296480
0.300000000000000100,-31.902886725680779989
0.301000000000000101,-31.920479881005899614
0.302000000000000102,-31.925449856977024865
0.303000000000000103,-31.918269469782124759
0.304000000000000103,-31.899422767476199425
0.305000000000000104,-31.869402805107938548
0.306000000000000105,-31.828709464200137802
0.307000000000000106,-31.777847330242558144
0.308000000000000107,-31.717323640099927218
0.309000000000000108,-31.647646309561736189
0.310000000000000109,-31.569322049672063457
0.311000000000000110,-31.482854578980823845
0.312000000000000111,-31.388742937457841720
0.313000000000000111,-31.287479906507417837
0.314000000000000112,-31.179550538316345154
0.315000000000000113,-31.065430796661058110
0.316000000000000114,-30.945586310288916820
0.317000000000000115,-30.820471239071828506
0.318000000000000116,-30.690527252305514594
0.319000000000000117,-30.556182617790721423
0.320000000000000118,-30.417851399680063906
0.321000000000000119,-30.275932762502225870
0.322000000000000119,-30.130810378279175410
0.323000000000000120,-29.982851933227522068
0.324000000000000121,-29.832408730178247680
0.325000000000000122,-29.679815382554142644
0.326000000000000123,-29.525389595508066520
0.327000000000000124,-29.369432029641195925
0.328000000000000125,-29.212226242587718161
0.329000000000000126,-29.054038703662417475
0.330000000000000127,-28.895118876719017464
0.331000000000000127,-28.735699366356278972
0.332000000000000128,-28.575996122628986029
0.333000000000000129,-28.416208699471916077
0.334000000000000130,-28.256520562120805096
0.335000000000000131,-28.097099438913243574
0.336000000000000132,-27.938097712970694886
0.337000000000000133,-27.779652849397926673
0.338000000000000134,-27.621887853785221267
0.339000000000000135,-27.464911757959697525
0.340000000000000135,-27.308820129102382879
0.341000000000000136,-27.153695598524780763
0.342000000000000137,-26.999608406582598974
0.343000000000000138,-26.846616960390331741
0.344000000000000139,-26.694768401189797657
0.345000000000000140,-26.544099178415944351
0.346000000000000141,-26.394635627692025537
0.347000000000000142,-26.246394550174773741
0.348000000000000143,-26.099383790855512189
0.349000000000000143,-25.953602813605073152
0.350000000000000144,-25.809043270928860636
0.351000000000000145,-25.665689566571170843
0.352000000000000146,-25.523519409276541836
0.353000000000000147,-25.382504356177797433
0.354000000000000148,-25.242610344437139247
0.355000000000000149,-25.103798209916273976
0.356000000000000150,-24.966024191795373355
0.357000000000000151,-24.829240422196871663
0.358000000000000151,-24.693395400000525797
0.359000000000000152,-24.558434448158457997
0.360000000000000153,-24.424300153935767810
0.361000000000000154,-24.290932791610977404
0.362000000000000155,-24.158270727273340128
0.363000000000000156,-24.026250805449869574
0.364000000000000157,-23.894808717383938301
0.365000000000000158,-23.763879350870812601
0.366000000000000159,-23.633397121631421811
0.367000000000000159,-23.503296286276757598
0.368000000000000160,-23.373511236980078820
0.369000000000000161,-23.243976778033157871
0.370000000000000162,-23.114628384516571202
0.371000000000000163,-22.985402443363064151
0.372000000000000164,-22.856236477135915663
0.373000000000000165,-22.727069350884356425
0.374000000000000166,-22.597841462471375706
0.375000000000000167,-22.468494916800587191
0.376000000000000167,-22.338973684394474617
0.377000000000000168,-22.209223744799171385
0.378000000000000169,-22.079193215309686593
0.379000000000000170,-21.948832465525470070
0.380000000000000171,-21.818094218258377026
0.381000000000000172,-21.686933637325171986
0.382000000000000173,-21.555308402763138531
0.383000000000000174,-21.423178774012637149
0.384000000000000175,-21.290507641611771561
0.385000000000000175,-21.157260567949030872
0.386000000000000176,-21.023405817617707214
0.387000000000000177,-20.888914377912005449
0.388000000000000178,-20.753759970000139390
0.389000000000000179,-20.617919051302131095
0.390000000000000180,-20.481370809592927884
0.391000000000000181,-20.344097149341489938
0.392000000000000182,-20.206082670786859268
0.393000000000000183,-20.067314642240638989
0.394000000000000183,-19.927782966093637640
0.395000000000000184,-19.787480138991636380
0.396000000000000185,-19.646401206632109648
0.397000000000000186,-19.504543713619803214
0.398000000000000187,-19.361907648805232185
0.399000000000000188,-19.218495386515300538
0.400000000000000189,-19.074311624070912075
0.401000000000000190,-18.929363315971233561
0.402000000000000191,-18.783659605109470192
0.403000000000000191,-18.637211751369878954
0.404000000000000192,-18.490033057940600258
0.405000000000000193,-18.342138795662044970
0.406000000000000194,-18.193546125715517547
0.407000000000000195,-18.044274020942257408
0.408000000000000196,-17.894343186067963813
0.409000000000000197,-17.743775977094191632
0.410000000000000198,-17.592596320103389473
0.411000000000000199,-17.440829629710570714
0.412000000000000199,-17.288502727381168000
0.413000000000000200,-17.135643759821459042
0.414000000000000201,-16.982282117634628804
0.415000000000000202,-16.828448354423393596
0.416000000000000203,-16.674174106507766879
0.417000000000000204,-16.519492013414463827
0.418000000000000205,-16.364435639283435364
0.419000000000000206,-16.209039395325497424
0.420000000000000207,-16.053338463454547735
0.421000000000000207,-15.897368721207703501
0.422000000000000208,-15.741166668056248312
0.423000000000000209,-15.584769353201499698
0.424000000000000210,-15.428214304940004453
0.425000000000000211,-15.271539461673871330
0.426000000000000212,-15.114783104633977118
0.427000000000000213,-14.957983792375273424
0.428000000000000214,-14.801180297096518501
0.429000000000000214,-14.644411542828748907
0.430000000000000215,-14.487716545530599177
0.431000000000000216,-14.331134355121809776
0.432000000000000217,-14.174703999479884686
0.433000000000000218,-14.018464430419452782
0.434000000000000219,-13.862454471668090861
0.435000000000000220,-13.706712768847335582
0.436000000000000221,-13.551277741462646631
0.437000000000000222,-13.396187536901587478
0.438000000000000222,-13.241479986435297889
0.439000000000000223,-13.087192563214163243
0.440000000000000224,-12.933362342245121823
0.441000000000000225,-12.780025962334232048
0.442000000000000226,-12.627219589975592129
0.443000000000000227,-12.474978885163851672
0.444000000000000228,-12.323338969105758878
0.445000000000000229,-12.172334393803065922
0.446000000000000230,-12.021999113477095378
0.447000000000000230,-11.872366457803268602
0.448000000000000231,-11.723469106921909244
0.449000000000000232,-11.575339068189935077
0.450000000000000233,-11.428007654636790136
0.451000000000000234,-11.281505465086294038
0.452000000000000235,-11.135862365905339288
0.453000000000000236,-10.991107474338848604
0.454000000000000237,-10.847269143390171564
0.455000000000000238,-10.704374948204737450
0.456000000000000238,-10.562451673914713624
0.457000000000000239,-10.421525304901528841
0.458000000000000240,-10.281621015433264787
0.459000000000000241,-10.142763161632954549
0.460000000000000242,-10.004975274734587032
0.461000000000000243,-9.868280055582676624
0.462000000000000244,-9.732699370332118960
0.463000000000000245,-9.598254247304328857
0.464000000000000246,-9.464964874956789842
0.465000000000000246,-9.332850600922650841
0.466000000000000247,-9.201929932077749896
0.467000000000000248,-9.072220535592695256
0.468000000000000249,-8.943739240928374912
0.469000000000000250,-8.816502042733215916
0.470000000000000251,-8.690524104601827560
0.471000000000000252,-8.565819763654491936
0.472000000000000253,-8.442402535898345661
0.473000000000000254,-8.320285122331187111
0.474000000000000254,-8.199479415749923561
0.475000000000000255,-8.079996508226276575
0.476000000000000256,-7.961846699213095846
0.477000000000000257,-7.845039504245656659
0.478000000000000258,-7.729583664202680282
0.479000000000000259,-7.615487155093188854
0.480000000000000260,-7.502757198335719302
0.481000000000000261,-7.391400271497415631
0.482000000000000262,-7.281422119461497644
0.483000000000000262,-7.172827765992289883
0.484000000000000263,-7.065621525667937775
0.485000000000000264,-6.959807016151822623
0.486000000000000265,-6.855387170774608130
0.487000000000000266,-6.752364251399569639
0.488000000000000267,-6.650739861544894715
0.489000000000000268,-6.550514959737464338
0.490000000000000269,-6.451689873073364723
0.491000000000000270,-6.354264310961508677
0.492000000000000270,-6.258237379027173475
0.493000000000000271,-6.163607593153636266
0.494000000000000272,-6.070372893640396228
0.495000000000000273,-5.978530659457581997
0.496000000000000274,-5.888077722577046202
0.497000000000000275,-5.799010382360997973
0.498000000000000276,-5.711324419990364554
0.499000000000000277,-5.625015112915428439
0.500000000000000222,-5.540077249312203023
0.501000000000000334,-5.456505142528724761
0.502000000000000224,-5.374292645506311139
0.503000000000000336,-5.293433165161042453
0.504000000000000226,-5.213919676712293949
0.505000000000000338,-5.135744737944724747
0.506000000000000227,-5.058900503391994263
0.507000000000000339,-4.983378738429857790
0.508000000000000229,-4.909170833268162504
0.509000000000000341,-4.836267816830746469
0.510000000000000231,-4.764660370513936982
0.511000000000000343,-4.694338841813744168
0.512000000000000233,-4.625293257813605230
0.513000000000000345,-4.557513338523996538
0.514000000000000234,-4.490988510066812545
0.515000000000000346,-4.425707917696741767
0.516000000000000236,-4.361660438653657934
0.517000000000000348,-4.298834694839338333
0.518000000000000238,-4.237219065313235333
0.519000000000000350,-4.176801698601719792
0.520000000000000240,-4.117570524816343003
0.521000000000000352,-4.059513267576424944
0.522000000000000242,-4.002617455732272234
0.523000000000000353,-3.946870434885201284
0.524000000000000243,-3.892259378701378836
0.525000000000000355,-3.838771300016443178
0.526000000000000245,-3.786393061728636322
0.527000000000000357,-3.735111387477965117
0.528000000000000247,-3.684912872109966209
0.529000000000000359,-3.635783991922101333
0.530000000000000249,-3.587711114691922720
0.531000000000000361,-3.540680509485738980
0.532000000000000250,-3.494678356247382656
0.533000000000000362,-3.449690755166344047
0.534000000000000252,-3.405703735825361012
0.535000000000000364,-3.362703266127283541
0.536000000000000254,-3.320675261001694079
0.537000000000000366,-3.279605590891484290
0.538000000000000256,-3.239480090020443903
0.539000000000000368,-3.200284564442287039
0.540000000000000258,-3.162004799872628169
0.541000000000000369,-3.124626569304687962
0.542000000000000259,-3.088135640410507587
0.543000000000000371,-3.052517782728859430
0.544000000000000261,-3.017758774641832176
0.545000000000000373,-2.983844410141649917
0.546000000000000263,-2.950760505389883548
0.547000000000000375,-2.918492905070878773
0.548000000000000265,-2.887027488541848541
0.549000000000000377,-2.856350175781612322
0.550000000000000266,-2.826446933140558393
0.551000000000000378,-2.797303778894179693
0.552000000000000268,-2.768906788602784275
0.553000000000000380,-2.741242100279898786
0.554000000000000270,-2.714295919372176069
0.555000000000000382,-2.688054523553412789
0.556000000000000272,-2.662504267335639607
0.557000000000000384,-2.637631586499917358
0.558000000000000274,-2.613423002350019786
0.559000000000000385,-2.589865125791658507
0.560000000000000275,-2.566944661240481818
0.561000000000000387,-2.544648410361654456
0.562000000000000277,-2.522963275644191761
0.563000000000000389,-2.501876263813032075
0.564000000000000279,-2.481374489081979551
0.565000000000000391,-2.461445176250579348
0.566000000000000281,-2.442075663648017869
0.567000000000000393,-2.423253405927190851
0.568000000000000282,-2.404965976712086118
0.569000000000000394,-2.387201071101475058
0.570000000000000284,-2.369946508032190202
0.571000000000000396,-2.353190232504961177
0.572000000000000286,-2.336920317676045578
0.573000000000000398,-2.321124966817569746
0.574000000000000288,-2.305792515149830191
0.575000000000000400,-2.290911431548547039
0.576000000000000290,-2.276470320130074665
0.577000000000000401,-2.262457921717667908
0.578000000000000291,-2.248863115191784168
0.579000000000000403,-2.235674918727345695
0.580000000000000293,-2.222882490921020970
0.581000000000000405,-2.210475131811363347
0.582000000000000295,-2.198442283794749930
0.583000000000000407,-2.186773532439984180
0.584000000000000297,-2.175458607204378225
0.585000000000000409,-2.164487382054170350
0.586000000000000298,-2.153849875991991958
0.587000000000000410,-2.143536253494163990
0.588000000000000300,-2.133536824860510439
0.589000000000000412,-2.123842046479342383
0.590000000000000302,-2.114442521010257980
0.591000000000000414,-2.105328997487369236
0.592000000000000304,-2.096492371345443750
0.593000000000000416,-2.087923684371538080
0.594000000000000306,-2.079614124584566515
0.595000000000000417,-2.071555026045268200
0.596000000000000307,-2.063737868598880087
0.597000000000000419,-2.056154277552985743
0.598000000000000309,-2.048796023292806190
0.599000000000000421,-2.041655020836109280
0.600000000000000311,-2.034723329330145436
0.601000000000000423,-2.027993151492627710
0.602000000000000313,-2.021456832999026343
0.603000000000000425,-2.015106861818159789
0.604000000000000314,-2.008935867498296446
0.605000000000000426,-2.002936620405619372
0.606000000000000316,-1.997102030917194737
0.607000000000000428,-1.991425148570207027
0.608000000000000318,-1.985899161169552674
0.609000000000000430,-1.980517393855478092
0.610000000000000320,-1.975273308133164374
0.611000000000000432,-1.970160500866020126
0.612000000000000322,-1.965172703234393081
0.613000000000000433,-1.960303779661409340
0.614000000000000323,-1.955547726707607570
0.615000000000000435,-1.950898671935948014
0.616000000000000325,-1.946350872748791261
0.617000000000000437,-1.941898715198397074
0.618000000000000327,-1.937536712772406799
0.619000000000000439,-1.933259505155791258
0.620000000000000329,-1.929061856970693878
0.621000000000000441,-1.924938656495526645
0.622000000000000330,-1.920884914364708651
0.623000000000000442,-1.916895762250315105
0.624000000000000332,-1.912966451526935785
0.625000000000000444,-1.909092351921016784
0.626000000000000334,-1.905268950145809992
0.627000000000000446,-1.901491848523207739
0.628000000000000336,-1.897756763593514417
0.629000000000000448,-1.894059524714310827
0.630000000000000338,-1.890396072649474402
0.631000000000000449,-1.886762458149384702
0.632000000000000339,-1.883154840523356466
0.633000000000000451,-1.879569486205229012
0.634000000000000341,-1.876002767313103892
0.635000000000000453,-1.872451160204166243
0.636000000000000343,-1.868911244025368790
0.637000000000000455,-1.865379699261029867
0.638000000000000345,-1.861853306277967190
0.639000000000000457,-1.858328943869135275
0.640000000000000346,-1.854803587796449715
0.641000000000000458,-1.851274309333608814
0.642000000000000348,-1.847738273809562015
0.643000000000000460,-1.844192739153421190
0.644000000000000350,-1.840635054441405627
0.645000000000000462,-1.837062658446507513
0.646000000000000352,-1.833473078191490968
0.647000000000000464,-1.829863927505841925
0.648000000000000353,-1.826232905587225286
0.649000000000000465,-1.822577795568008030
0.650000000000000355,-1.818896463087411819
0.651000000000000467,-1.815186854869745847
0.652000000000000357,-1.811446997309287044
0.653000000000000469,-1.807674995062191980
0.654000000000000359,-1.803869029645992494
0.655000000000000471,-1.800027358046990100
0.656000000000000361,-1.796148311336052572
0.657000000000000473,-1.792230293293166188
0.658000000000000362,-1.788271779041114673
