# Ag332_CS-11530-AC
# h[nm],U(h)[kJ/mol]
0.149999999999999994,110.563118658582425269
0.150999999999999995,105.508886220550422763
0.151999999999999996,101.975009619371363101
0.152999999999999997,98.761712140257102988
0.153999999999999998,95.468422479422443416
0.154999999999999999,92.050480152975609371
0.156000000000000000,88.588175223942613457
0.157000000000000001,85.177597400659806226
0.158000000000000002,81.887951678041943637
0.159000000000000002,78.752476040398249779
0.160000000000000003,75.774198388303346974
0.161000000000000004,72.936414521162106439
0.162000000000000005,70.212910474921883974
0.163000000000000006,67.575885426785063714
0.164000000000000007,65.001103655970666750
0.165000000000000008,62.470563220952598726
0.166000000000000009,59.973262484463909061
0.167000000000000010,57.504688936536432209
0.168000000000000010,55.065577763604494521
0.169000000000000011,52.660365314265462189
0.170000000000000012,50.295635740064099650
0.171000000000000013,47.978747481473149605
0.172000000000000014,45.716737538389551787
0.173000000000000015,43.515536471991282497
0.174000000000000016,41.379483312493753999
0.175000000000000017,39.311103104225807670
0.176000000000000018,37.311096574804210491
0.177000000000000018,35.378487586157163491
0.178000000000000019,33.510876434033413318
0.179000000000000020,31.704753203153678953
0.180000000000000021,29.955833385746039710
0.181000000000000022,28.259386509534646592
0.182000000000000023,26.610536722328710368
0.183000000000000024,25.004521616054422140
0.184000000000000025,23.436901772324521431
0.185000000000000026,21.903718485021784090
0.186000000000000026,20.401600894649426721
0.187000000000000027,18.927826460819868970
0.188000000000000028,17.480340449879058440
0.189000000000000029,16.057741086714081291
0.190000000000000030,14.659237374864636294
0.191000000000000031,13.284586477467787091
0.192000000000000032,11.934017106379364748
0.193000000000000033,10.608144701148900069
0.194000000000000034,9.307883386057255848
0.195000000000000034,8.034358845348705813
0.196000000000000035,6.788825409656749521
0.197000000000000036,5.572589840603964895
0.198000000000000037,4.386943562872405167
0.199000000000000038,3.233104440336470820
0.200000000000000039,2.112168633402956797
0.201000000000000040,1.025072610389671235
0.202000000000000041,-0.027434986223519274
0.203000000000000042,-1.044812203609245760
0.204000000000000042,-2.026734165157776157
0.205000000000000043,-2.973095911572841921
0.206000000000000044,-3.884008708571726309
0.207000000000000045,-4.759790864525715648
0.208000000000000046,-5.600954092940948037
0.209000000000000047,-6.408186415165462613
0.210000000000000048,-7.182332535877167246
0.211000000000000049,-7.924372544575094324
0.212000000000000050,-8.635399706321230440
0.213000000000000050,-9.316598009269799974
0.214000000000000051,-9.969220039105547215
0.215000000000000052,-10.594565654595861304
0.216000000000000053,-11.193961846517884950
0.217000000000000054,-11.768744076080745131
0.218000000000000055,-12.320239309895983482
0.219000000000000056,-12.849750897356756241
0.220000000000000057,-13.358545373386103705
0.221000000000000058,-13.847841214995156633
0.222000000000000058,-14.318799533812963887
0.223000000000000059,-14.772516648358012148
0.224000000000000060,-15.210018448843758421
0.225000000000000061,-15.632256443165474025
0.226000000000000062,-16.040105354765323398
0.227000000000000063,-16.434362130649756040
0.228000000000000064,-16.815746210260765992
0.229000000000000065,-17.184900902519711252
0.230000000000000066,-17.542395718528954518
0.231000000000000066,-17.888729510535728906
0.232000000000000067,-18.224334273275736962
0.233000000000000068,-18.549579471214467929
0.234000000000000069,-18.864776764035052992
0.235000000000000070,-19.170185012576968830
0.236000000000000071,-19.466015457954533474
0.237000000000000072,-19.752436977474108204
0.238000000000000073,-20.029581331960805812
0.239000000000000073,-20.297548329984458348
0.240000000000000074,-20.556410845064018389
0.241000000000000075,-20.806219632084317794
0.242000000000000076,-21.047007898773081536
0.243000000000000077,-21.278795597076175738
0.244000000000000078,-21.501593407579655093
0.245000000000000079,-21.715406397722453846
0.246000000000000080,-21.920237341408430609
0.247000000000000081,-22.116089693758087975
0.248000000000000081,-22.302970220151454583
0.249000000000000082,-22.480891283424064397
0.250000000000000111,-22.649872797120259804
0.251000000000000112,-22.809943856114465177
0.252000000000000113,-22.961144058726112860
0.253000000000000114,-23.103524536716054882
0.254000000000000115,-23.237148711312059390
0.255000000000000115,-23.362092794709443666
0.256000000000000116,-23.478446057379450451
0.257000000000000117,-23.586310882035736114
0.258000000000000118,-23.685802625301498381
0.259000000000000119,-23.777049308030207442
0.260000000000000120,-23.860191154898778620
0.261000000000000121,-23.935380003351134803
0.262000000000000122,-24.002778601258178526
0.263000000000000123,-24.062559811806394805
0.264000000000000123,-24.114905743163784990
0.265000000000000124,-24.160006819421774082
0.266000000000000125,-24.198060808201734773
0.267000000000000126,-24.229271819163152202
0.268000000000000127,-24.253849286478526892
0.269000000000000128,-24.272006947161557378
0.270000000000000129,-24.283961825966127179
0.271000000000000130,-24.289933236425035545
0.272000000000000131,-24.290141806479411457
0.273000000000000131,-24.284808536071217588
0.274000000000000132,-24.274153893038523222
0.275000000000000133,-24.258396952671603231
0.276000000000000134,-24.237754585362122128
0.277000000000000135,-24.212440695909016597
0.278000000000000136,-24.182665517237289521
0.279000000000000137,-24.148634960538451821
0.280000000000000138,-24.110550023155575161
0.281000000000000139,-24.068606254910505982
0.282000000000000139,-24.022993283005124709
0.283000000000000140,-23.973894395120758816
0.284000000000000141,-23.921486179887907042
0.285000000000000142,-23.865938223501043325
0.286000000000000143,-23.807412860906151053
0.287000000000000144,-23.746064979690665098
0.288000000000000145,-23.682041874553682703
0.289000000000000146,-23.615483150024203951
0.290000000000000147,-23.546520668926046227
0.291000000000000147,-23.475278543955091948
0.292000000000000148,-23.401873169636076000
0.293000000000000149,-23.326413291858123955
0.294000000000000150,-23.249000112148866748
0.295000000000000151,-23.169727423833020197
0.296000000000000152,-23.088681777229943748
0.297000000000000153,-23.005942671073931649
0.298000000000000154,-22.921582767387949531
0.299000000000000155,-22.835668127104149505
0.300000000000000155,-22.748258463800784313
0.301000000000000156,-22.659407413012580434
0.302000000000000157,-22.569162814669169848
0.303000000000000158,-22.477567006321191201
0.304000000000000159,-22.384657124925517735
0.305000000000000160,-22.290465415076987199
0.306000000000000161,-22.195019541694584575
0.307000000000000162,-22.098342905291755045
0.308000000000000163,-22.000454958084400658
0.309000000000000163,-21.901371519313620695
0.310000000000000164,-21.801105088283662781
0.311000000000000165,-21.699665153736830803
0.312000000000000166,-21.597058498307529106
0.313000000000000167,-21.493289496913774883
0.314000000000000168,-21.388360408058979090
0.315000000000000169,-21.282271657126774045
0.316000000000000170,-21.175022110858122915
0.317000000000000171,-21.066609342301855889
0.318000000000000171,-20.957029885627484589
0.319000000000000172,-20.846279480282042584
0.320000000000000173,-20.734353304060924472
0.321000000000000174,-20.621246194745914693
0.322000000000000175,-20.506952860041945286
0.323000000000000176,-20.391468075617929401
0.324000000000000177,-20.274786871125161980
0.325000000000000178,-20.156904704130852224
0.326000000000000179,-20.037817621963483816
0.327000000000000179,-19.917522411520646841
0.328000000000000180,-19.796016737140256225
0.329000000000000181,-19.673299266681446795
0.330000000000000182,-19.549369786002230853
0.331000000000000183,-19.424229302058808599
0.332000000000000184,-19.297880134883918402
0.333000000000000185,-19.170325998731474471
0.334000000000000186,-19.041572072700404306
0.335000000000000187,-18.911625061172969708
0.336000000000000187,-18.780493244422409305
0.337000000000000188,-18.648186519760407975
0.338000000000000189,-18.514716433608729318
0.339000000000000190,-18.380096204889770917
0.340000000000000191,-18.244340740138756729
0.341000000000000192,-18.107466640746750386
0.342000000000000193,-17.969492202746447873
0.343000000000000194,-17.830437409555322859
0.344000000000000195,-17.690323918089603694
0.345000000000000195,-17.549175038661669390
0.346000000000000196,-17.407015709069245446
0.347000000000000197,-17.263872463280485192
0.348000000000000198,-17.119773395113000447
0.349000000000000199,-16.974748117297366434
0.350000000000000200,-16.828827716308047968
0.351000000000000201,-16.682044703335087377
0.352000000000000202,-16.534432961760472836
0.353000000000000203,-16.386027691492373037
0.354000000000000203,-16.236865350499591898
0.355000000000000204,-16.086983593876659882
0.356000000000000205,-15.936421210758485500
0.357000000000000206,-15.785218059390945911
0.358000000000000207,-15.633415000651135429
0.359000000000000208,-15.481053830298856511
0.360000000000000209,-15.328177210227408978
0.361000000000000210,-15.174828598969543947
0.362000000000000210,-15.021052181701046280
0.363000000000000211,-14.866892799972058370
0.364000000000000212,-14.712395881383248053
0.365000000000000213,-14.557607369411417864
0.366000000000000214,-14.402573653576874690
0.367000000000000215,-14.247341500132463921
0.368000000000000216,-14.091957983442409130
0.369000000000000217,-13.936470418207255406
0.370000000000000218,-13.780926292679845702
0.371000000000000218,-13.625373203006057921
0.372000000000000219,-13.469858788813336758
0.373000000000000220,-13.314430670159428161
0.374000000000000221,-13.159136385943757119
0.375000000000000222,-13.004023333873854895
0.376000000000000223,-12.849138712070075741
0.377000000000000224,-12.694529462382563523
0.378000000000000225,-12.540242215485871924
0.379000000000000226,-12.386323237808150921
0.380000000000000226,-12.232818380344118836
0.381000000000000227,-12.079773029393010120
0.382000000000000228,-11.927232059255963748
0.383000000000000229,-11.775239786920090879
0.384000000000000230,-11.623839928749958972
0.385000000000000231,-11.473075559201417306
0.386000000000000232,-11.322989071566391672
0.387000000000000233,-11.173622140752204501
0.388000000000000234,-11.025015688093542821
0.389000000000000234,-10.877209848190735997
0.390000000000000235,-10.730243937762985240
0.391000000000000236,-10.584156426501632353
0.392000000000000237,-10.438984909904032605
0.393000000000000238,-10.294766084065534173
0.394000000000000239,-10.151535722403320250
0.395000000000000240,-10.009328654283063287
0.396000000000000241,-9.868178745516539507
0.397000000000000242,-9.728118880695538095
0.398000000000000242,-9.589180947325543158
0.399000000000000243,-9.451395821720154800
0.400000000000000244,-9.314793356615515663
0.401000000000000245,-9.179402370462550920
0.402000000000000246,-9.045250638353106609
0.403000000000000247,-8.912364884534790477
0.404000000000000248,-8.780770776468610705
0.405000000000000249,-8.650492920382166773
0.406000000000000250,-8.521554858270674160
0.407000000000000250,-8.393979066297426073
0.408000000000000251,-8.267786954544746436
0.409000000000000252,-8.142998868066531060
0.410000000000000253,-8.019634089192717141
0.411000000000000254,-7.897710841036624352
0.412000000000000255,-7.777246292155576057
0.413000000000000256,-7.658256562315790106
0.414000000000000257,-7.540756729312502848
0.415000000000000258,-7.424760836796826524
0.416000000000000258,-7.310281903061171427
0.417000000000000259,-7.197331930735535011
0.418000000000000260,-7.085921917347759447
0.419000000000000261,-6.976061866701104286
0.420000000000000262,-6.867760801023672812
0.421000000000000263,-6.761026773844582394
0.422000000000000264,-6.655866883552802094
0.423000000000000265,-6.552287287595302878
0.424000000000000266,-6.450293217272286661
0.425000000000000266,-6.349888993087823508
0.426000000000000267,-6.251078040615533737
0.427000000000000268,-6.153862906839712821
0.428000000000000269,-6.058245276933428514
0.429000000000000270,-5.964225991436082452
0.430000000000000271,-5.871805063793976487
0.431000000000000272,-5.780981698228506716
0.432000000000000273,-5.691754307897648246
0.433000000000000274,-5.604120533317504815
0.434000000000000274,-5.518077261011665513
0.435000000000000275,-5.433620642357357866
0.436000000000000276,-5.350746112598333326
0.437000000000000277,-5.269448409995458604
0.438000000000000278,-5.189721595087247508
0.439000000000000279,-5.111559070033451668
0.440000000000000280,-5.034953598015883713
0.441000000000000281,-4.959897322671816156
0.442000000000000282,-4.886381787536262955
0.443000000000000282,-4.814397955470356649
0.444000000000000283,-4.743936228054281834
0.445000000000000284,-4.674986464923992280
0.446000000000000285,-4.607538003031927509
0.447000000000000286,-4.541579675813183670
0.448000000000000287,-4.477099832239025190
0.449000000000000288,-4.414086355741089207
0.450000000000000289,-4.352526682990074391
0.451000000000000290,-4.292407822513910176
0.452000000000000290,-4.233716373141062306
0.453000000000000291,-4.176438542255562325
0.454000000000000292,-4.120560163851168411
0.455000000000000293,-4.066066716372749745
0.456000000000000294,-4.012943340333962716
0.457000000000000295,-3.961174855700806408
0.458000000000000296,-3.910745779031560510
0.459000000000000297,-3.861640340364232316
0.460000000000000298,-3.813842499843307365
0.461000000000000298,-3.767335964078326160
0.462000000000000299,-3.722104202227440428
0.463000000000000300,-3.678130461799628215
0.464000000000000301,-3.635397784170000257
0.465000000000000302,-3.593889019803126583
0.466000000000000303,-3.553586843179824317
0.467000000000000304,-3.514473767423443640
0.468000000000000305,-3.476532158622309687
0.469000000000000306,-3.439744249845168689
0.470000000000000306,-3.404092154847369933
0.471000000000000307,-3.369557881465561344
0.472000000000000308,-3.336123344699500670
0.473000000000000309,-3.303770379479657571
0.474000000000000310,-3.272480753119942243
0.475000000000000311,-3.242236177455128487
0.476000000000000312,-3.213018320663018734
0.477000000000000313,-3.184808818771559746
0.478000000000000314,-3.157589286851685717
0.479000000000000314,-3.131341329896839110
0.480000000000000315,-3.106046553390355847
0.481000000000000316,-3.081686573562417042
0.482000000000000317,-3.058243027338233055
0.483000000000000318,-3.035697581979671433
0.484000000000000319,-3.014031944422506992
0.485000000000000320,-2.993227870311981231
0.486000000000000321,-2.973267172739261888
0.487000000000000322,-2.954131730681864187
0.488000000000000322,-2.935803497151079355
0.489000000000000323,-2.918264507049770806
0.490000000000000324,-2.901496884743953952
0.491000000000000325,-2.885482851351798494
0.492000000000000326,-2.870204731753753347
0.493000000000000327,-2.855644961327715059
0.494000000000000328,-2.841786092413200571
0.495000000000000329,-2.828610800508618794
0.496000000000000330,-2.816101890205831904
0.497000000000000330,-2.804242300866290893
0.498000000000000331,-2.793015112043096604
0.499000000000000332,-2.782403548653399561
0.500000000000000333,-2.772390985905646144
0.501000000000000334,-2.762960953986213219
0.502000000000000335,-2.754097142509981389
0.503000000000000336,-2.745783404739534195
0.504000000000000337,-2.738003761577581407
0.505000000000000338,-2.730742405337331480
0.506000000000000338,-2.723983703295508541
0.507000000000000339,-2.717712201032717267
0.508000000000000340,-2.711912625565898072
0.509000000000000341,-2.706569888277587488
0.510000000000000342,-2.701669087646727530
0.511000000000000343,-2.697195511785706934
0.512000000000000344,-2.693134640788382494
0.513000000000000345,-2.689472148893721659
0.514000000000000346,-2.686193906469788395
0.515000000000000346,-2.683285981822666422
0.516000000000000347,-2.680734642834932568
0.517000000000000348,-2.678526358438340083
0.518000000000000349,-2.676647799925140792
0.519000000000000350,-2.675085842102631339
0.520000000000000351,-2.673827564295410131
0.521000000000000352,-2.672860251199684178
0.522000000000000353,-2.672171393594078737
0.523000000000000353,-2.671748688911252501
0.524000000000000354,-2.671580041674575412
0.525000000000000355,-2.671653563804157194
0.526000000000000356,-2.671957574796308243
0.527000000000000357,-2.672480601780624632
0.528000000000000358,-2.673211379458732662
0.529000000000000359,-2.674138849928649364
0.530000000000000360,-2.675252162398764622
0.531000000000000361,-2.676540672795273856
0.532000000000000361,-2.677993943266876453
0.533000000000000362,-2.679601741590526220
0.534000000000000363,-2.681354040481874534
0.535000000000000364,-2.683241016814056579
0.536000000000000365,-2.685253050748367176
0.537000000000000366,-2.687380724780308761
0.538000000000000367,-2.689614822704450958
0.539000000000000368,-2.691946328501447994
0.540000000000000369,-2.694366425150501509
0.541000000000000369,-2.696866493370490669
0.542000000000000370,-2.699438110292956772
0.543000000000000371,-2.702073048069961292
0.544000000000000372,-2.704763272419934417
0.545000000000000373,-2.707500941114376225
0.546000000000000374,-2.710278402408371701
0.547000000000000375,-2.713088193417685812
0.548000000000000376,-2.715923038445260840
0.549000000000000377,-2.718775847259738310
0.550000000000000377,-2.721639713328663834
0.551000000000000378,-2.724507912008964361
0.552000000000000379,-2.727373898697130095
0.553000000000000380,-2.730231306941605318
0.554000000000000381,-2.733073946519701369
0.555000000000000382,-2.735895801481390777
0.556000000000000383,-2.738691028162175911
0.557000000000000384,-2.741453953167270807
0.558000000000000385,-2.744179071329182484
0.559000000000000385,-2.746861043640804745
0.560000000000000386,-2.749494695165944691
0.561000000000000387,-2.752075012929348752
0.562000000000000388,-2.754597143788026337
0.563000000000000389,-2.757056392285752278
0.564000000000000390,-2.759448218492511540
0.565000000000000391,-2.761768235830628804
0.566000000000000392,-2.764012208889230049
0.567000000000000393,-2.766176051228693034
0.568000000000000393,-2.768255823176593911
0.569000000000000394,-2.770247729616746479
0.570000000000000395,-2.772148117772718301
0.571000000000000396,-2.773953474987294499
0.572000000000000397,-2.775660426499238831
0.573000000000000398,-2.777265733218670984
0.574000000000000399,-2.778766289502331954
0.575000000000000400,-2.780159120929975636
0.576000000000000401,-2.781441382083045699
0.577000000000000401,-2.782610354326815472
0.578000000000000402,-2.783663443597050868
0.579000000000000403,-2.784598178192260853
0.580000000000000404,-2.785412206572549287
0.581000000000000405,-2.786103295166063809
0.582000000000000406,-2.786669326183903728
0.583000000000000407,-2.787108295444491901
0.584000000000000408,-2.787418310208138461
0.585000000000000409,-2.787597587022725865
0.586000000000000409,-2.787644449581237360
0.587000000000000410,-2.787557326591894480
0.588000000000000411,-2.787334749661612321
0.589000000000000412,-2.786975351193475614
0.590000000000000413,-2.786477862298833319
0.591000000000000414,-2.785841110724703196
0.592000000000000415,-2.785064018796986396
0.593000000000000416,-2.784145601380118240
0.594000000000000417,-2.783084963853647231
0.595000000000000417,-2.781881300106239685
0.596000000000000418,-2.780533890547586484
0.597000000000000419,-2.779042100138663152
0.598000000000000420,-2.777405376440735374
0.599000000000000421,-2.775623247683522088
0.600000000000000422,-2.773695320852880286
0.601000000000000423,-2.771621279798335280
0.602000000000000424,-2.769400883360792154
0.603000000000000425,-2.767033963520734829
0.604000000000000425,-2.764520423567138341
0.605000000000000426,-2.761860236287406956
0.606000000000000427,-2.759053442178538873
0.607000000000000428,-2.756100147679702683
0.608000000000000429,-2.753000523426496482
0.609000000000000430,-2.749754802526952702
