# Ag332_CS-12229-AC
# h[nm],U(h)[kJ/mol]
0.149999999999999994,91.998323817917736278
0.150999999999999995,86.732917559346688563
0.151999999999999996,82.914543449599747760
0.152999999999999997,79.469909300863974977
0.153999999999999998,76.019080834860105256
0.154999999999999999,72.497388037264869354
0.156000000000000000,68.956594986620800114
0.157000000000000001,65.469401157907867628
0.158000000000000002,62.090727656038801285
0.159000000000000002,58.848046668663741343
0.160000000000000003,55.744833661479731290
0.161000000000000004,52.768488103857954741
0.162000000000000005,49.898406172124467162
0.163000000000000006,47.112376604934510738
0.164000000000000007,44.390815944491023970
0.165000000000000008,41.719019139459106782
0.166000000000000009,39.087866627921371787
0.167000000000000010,36.493480377097569090
0.168000000000000010,33.936268209017114827
0.169000000000000011,31.419701552334061034
0.170000000000000012,28.949071253779283808
0.171000000000000013,26.530376434623171633
0.172000000000000014,24.169429444877074786
0.173000000000000015,21.871206867479450864
0.174000000000000016,19.639440462373624285
0.175000000000000017,17.476419901074009999
0.176000000000000018,15.382967849670677651
0.177000000000000018,13.358544377700633632
0.178000000000000019,11.401439234850435867
0.179000000000000020,9.509015211793737876
0.180000000000000021,7.677972058894255269
0.181000000000000022,5.904607193348579308
0.182000000000000023,4.185055960476548265
0.183000000000000024,2.515500089333043032
0.184000000000000025,0.892337967494645889
0.185000000000000026,-0.687685625560605418
0.186000000000000026,-2.227389623227464810
0.187000000000000027,-3.729103717121282635
0.188000000000000028,-5.194648005669179724
0.189000000000000029,-6.625340094834828442
0.190000000000000030,-8.022024183379670603
0.191000000000000031,-9.385116725753519518
0.192000000000000032,-10.714663596978253324
0.193000000000000033,-12.010404194961861180
0.194000000000000034,-13.271838532061025262
0.195000000000000034,-14.498294030490953332
0.196000000000000035,-15.688989400579021805
0.197000000000000036,-16.843093614442228301
0.198000000000000037,-17.959778568401198129
0.199000000000000038,-19.038264541792933926
0.200000000000000039,-20.077858001005157718
0.201000000000000040,-21.077981663872311202
0.202000000000000041,-22.038197033170245476
0.203000000000000042,-22.958219833582091951
0.204000000000000042,-23.837928950640598913
0.205000000000000043,-24.677369580188177167
0.206000000000000044,-25.476751360628242082
0.207000000000000045,-26.236442285403267505
0.208000000000000046,-26.956959187112932597
0.209000000000000047,-27.638955554297901074
0.210000000000000048,-28.283207393295356269
0.211000000000000049,-28.890597786101473332
0.212000000000000050,-29.462100725470769191
0.213000000000000050,-29.998764734403021492
0.214000000000000051,-30.501696701877968110
0.215000000000000052,-30.972046292701911341
0.216000000000000053,-31.410991218556159055
0.217000000000000054,-31.819723591202325963
0.218000000000000055,-32.199437518278656967
0.219000000000000056,-32.551318047820572588
0.220000000000000057,-32.876531519860165531
0.221000000000000058,-33.176217342250524212
0.222000000000000058,-33.451481173087415755
0.223000000000000059,-33.703389463467395615
0.224000000000000060,-33.932965291437000133
0.225000000000000061,-34.141185400381026227
0.226000000000000062,-34.328978342255382472
0.227000000000000063,-34.497223617458260492
0.228000000000000064,-34.646751698213535064
0.229000000000000065,-34.778344820588984021
0.230000000000000066,-34.892738431184291414
0.231000000000000066,-34.990623177631675844
0.232000000000000067,-35.072647336918223004
0.233000000000000068,-35.139419581769459455
0.234000000000000069,-35.191511992575001955
0.235000000000000070,-35.229463230276216734
0.236000000000000071,-35.253781794001248784
0.237000000000000072,-35.264949295792682449
0.238000000000000073,-35.263423693330523179
0.239000000000000073,-35.249642429946298705
0.240000000000000074,-35.224025439322559805
0.241000000000000075,-35.186977979973576680
0.242000000000000076,-35.138893271827562614
0.243000000000000077,-35.080154913925824189
0.244000000000000078,-35.011139068381680772
0.245000000000000079,-34.932216401280712148
0.246000000000000080,-34.843753776150307999
0.247000000000000081,-34.746115699984265746
0.248000000000000081,-34.639665525591098572
0.249000000000000082,-34.524766417268374141
0.250000000000000111,-34.401782089514547636
0.251000000000000112,-34.271077330707285569
0.252000000000000113,-34.133018325442378682
0.253000000000000114,-33.987972790569401127
0.254000000000000115,-33.836309940927279172
0.255000000000000115,-33.678400301404046502
0.256000000000000116,-33.514615382264203447
0.257000000000000117,-33.345327234738917355
0.258000000000000118,-33.170907903692288698
0.259000000000000119,-32.991728793798060337
0.260000000000000120,-32.808159965114228385
0.261000000000000121,-32.620569373257254142
0.262000000000000122,-32.429322068582372651
0.263000000000000123,-32.234779367892826940
0.264000000000000123,-32.037298011254748076
0.265000000000000124,-31.837229315502526106
0.266000000000000125,-31.634918335002719658
0.267000000000000126,-31.430703039215423189
0.268000000000000127,-31.224913515567219946
0.269000000000000128,-31.017871205138796142
0.270000000000000129,-30.809888177683824040
0.271000000000000130,-30.601266451542823432
0.272000000000000131,-30.392297363101697272
0.273000000000000131,-30.183260989576105260
0.274000000000000132,-29.974425628083565698
0.275000000000000133,-29.766047333198418556
0.276000000000000134,-29.558369514471582562
0.277000000000000135,-29.351622594740934602
0.278000000000000136,-29.146023729456185691
0.279000000000000137,-28.941776586697404383
0.280000000000000138,-28.739071187075904135
0.281000000000000139,-28.538083802269078149
0.282000000000000139,-28.338976910556350930
0.283000000000000140,-28.141899207388075155
0.284000000000000141,-27.946985668731997521
0.285000000000000142,-27.754357664699689678
0.286000000000000143,-27.564123120755375851
0.287000000000000144,-27.376376723649620715
0.288000000000000145,-27.191200169097591299
0.289000000000000146,-27.008662448132291445
0.290000000000000147,-26.828820169006121432
0.291000000000000147,-26.651717911484873014
0.292000000000000148,-26.477388610375918176
0.293000000000000149,-26.305853965152302010
0.294000000000000150,-26.137124872575991930
0.295000000000000151,-25.971201879283142944
0.296000000000000152,-25.808075651370085524
0.297000000000000153,-25.647727458108317222
0.298000000000000154,-25.490129667018543103
0.299000000000000155,-25.335246247645283546
0.300000000000000155,-25.183033281493429456
0.301000000000000156,-25.033439475714342137
0.302000000000000157,-24.886406678260424741
0.303000000000000158,-24.741870392362038444
0.304000000000000159,-24.599760288318108792
0.305000000000000160,-24.460000710729616458
0.306000000000000161,-24.322511179444525453
0.307000000000000162,-24.187206882619971537
0.308000000000000163,-24.053999160443886751
0.309000000000000163,-23.922795978192091582
0.310000000000000164,-23.793502387427860612
0.311000000000000165,-23.666020974277945044
0.312000000000000166,-23.540252293842989673
0.313000000000000167,-23.416095289918594347
0.314000000000000168,-23.293447699318072353
0.315000000000000169,-23.172206440196880806
0.316000000000000170,-23.052267983883034219
0.317000000000000171,-22.933528709816727087
0.318000000000000171,-22.815885243295436879
0.319000000000000172,-22.699234775809280507
0.320000000000000173,-22.583475367833411696
0.321000000000000174,-22.468506234021681678
0.322000000000000175,-22.354228010817141836
0.323000000000000176,-22.240543006561626527
0.324000000000000177,-22.127355434247540700
0.325000000000000178,-22.014571627111035212
0.326000000000000179,-21.902100237317299047
0.327000000000000179,-21.789852418034321602
0.328000000000000180,-21.677741989233730635
0.329000000000000181,-21.565685587594732198
0.330000000000000182,-21.453602800919384208
0.331000000000000183,-21.341416287497583681
0.332000000000000184,-21.229051880884266978
0.333000000000000185,-21.116438680573430986
0.334000000000000186,-21.003509129071364470
0.335000000000000187,-20.890199075886137337
0.336000000000000187,-20.776447828962510300
0.337000000000000188,-20.662198194099605786
0.338000000000000189,-20.547396502895519887
0.339000000000000190,-20.431992629766384084
0.340000000000000191,-20.315939998588479654
0.341000000000000192,-20.199195579512252863
0.342000000000000193,-20.081719876492972077
0.343000000000000194,-19.963476906079691275
0.344000000000000195,-19.844434167996897855
0.345000000000000195,-19.724562608046671386
0.346000000000000196,-19.603836573849399372
0.347000000000000197,-19.482233763931581905
0.348000000000000198,-19.359735170658051828
0.349000000000000199,-19.236325017493431488
0.350000000000000200,-19.111990691065528836
0.351000000000000201,-18.986722668489100840
0.352000000000000202,-18.860514440394670288
0.353000000000000203,-18.733362430092292072
0.354000000000000203,-18.605265909285229498
0.355000000000000204,-18.476226910732940212
0.356000000000000205,-18.346250138247398809
0.357000000000000206,-18.215342874391087236
0.358000000000000207,-18.083514886228613250
0.359000000000000208,-17.950778329468995764
0.360000000000000209,-17.817147651318940405
0.361000000000000210,-17.682639492352162591
0.362000000000000210,-17.547272587684112466
0.363000000000000211,-17.411067667725980357
0.364000000000000212,-17.274047358776744687
0.365000000000000213,-17.136236083696879007
0.366000000000000214,-16.997659962892946339
0.367000000000000215,-16.858346715827533302
0.368000000000000216,-16.718325563255486799
0.369000000000000217,-16.577627130373080888
0.370000000000000218,-16.436283351054136403
0.371000000000000218,-16.294327373333544529
0.372000000000000219,-16.151793466286605394
0.373000000000000220,-16.008716928440357208
0.374000000000000221,-15.865133997841141422
0.375000000000000222,-15.721081763891845640
0.376000000000000223,-15.576598081060993195
0.377000000000000224,-15.431721484555783519
0.378000000000000225,-15.286491108040948461
0.379000000000000226,-15.140946603475958554
0.380000000000000226,-14.995128063133936536
0.381000000000000227,-14.849075943856737680
0.382000000000000228,-14.702830993592883146
0.383000000000000229,-14.556434180256582422
0.384000000000000230,-14.409926622938968421
0.385000000000000231,-14.263349525495689463
0.386000000000000232,-14.116744112527996435
0.387000000000000233,-13.970151567768501977
0.388000000000000234,-13.823612974876663628
0.389000000000000234,-13.677169260643722737
0.390000000000000235,-13.530861140601235348
0.391000000000000236,-13.384729067023007687
0.392000000000000237,-13.238813179305186196
0.393000000000000238,-13.093153256705534204
0.394000000000000239,-12.947788673418511252
0.395000000000000240,-12.802758355959705128
0.396000000000000241,-12.658100742829471841
0.397000000000000242,-12.513853746422665125
0.398000000000000242,-12.370054717148789791
0.399000000000000243,-12.226740409724101255
0.400000000000000244,-12.083946951594933594
0.401000000000000245,-11.941709813449794098
0.402000000000000246,-11.800063781775657290
0.403000000000000247,-11.659042933412026244
0.404000000000000248,-11.518680612055716139
0.405000000000000249,-11.379009406667215387
0.406000000000000250,-11.240061131728996457
0.407000000000000250,-11.101866809305018791
0.408000000000000251,-10.964456652850007146
0.409000000000000252,-10.827860052716694383
0.410000000000000253,-10.692105563308370364
0.411000000000000254,-10.557220891824421471
0.412000000000000255,-10.423232888545749475
0.413000000000000256,-10.290167538607416731
0.414000000000000257,-10.158049955205600057
0.415000000000000258,-10.026904374186342395
0.416000000000000258,-9.896754149963772562
0.417000000000000259,-9.767621752715688999
0.418000000000000260,-9.639528766805248949
0.419000000000000261,-9.512495890377385521
0.420000000000000262,-9.386542936079923294
0.421000000000000263,-9.261688832859373832
0.422000000000000264,-9.137951628782463587
0.423000000000000265,-9.015348494834997339
0.424000000000000266,-8.893895729650846960
0.425000000000000266,-8.773608765124148334
0.426000000000000267,-8.654502172859155351
0.427000000000000268,-8.536589671412944114
0.428000000000000269,-8.419884134287109134
0.429000000000000270,-8.304397598625667953
0.430000000000000271,-8.190141274577216635
0.431000000000000272,-8.077125555280682434
0.432000000000000273,-7.965360027434797985
0.433000000000000274,-7.854853482412652355
0.434000000000000274,-7.745613927883607808
0.435000000000000275,-7.637648599906079028
0.436000000000000276,-7.530963975455689408
0.437000000000000277,-7.425565785354246273
0.438000000000000278,-7.321459027566365130
0.439000000000000279,-7.218647980831436328
0.440000000000000280,-7.117136218599606323
0.441000000000000281,-7.016926623241836580
0.442000000000000282,-6.918021400504835938
0.443000000000000282,-6.820422094182871930
0.444000000000000283,-6.724129600979478205
0.445000000000000284,-6.629144185533130340
0.446000000000000285,-6.535465495581766149
0.447000000000000286,-6.443092577242505392
0.448000000000000287,-6.352023890383188487
0.449000000000000288,-6.262257324064099961
0.450000000000000289,-6.173790212028555047
0.451000000000000290,-6.086619348222321868
0.452000000000000290,-6.000741002322627082
0.453000000000000291,-5.916150935258432497
0.454000000000000292,-5.832844414704526415
0.455000000000000293,-5.750816230532763029
0.456000000000000294,-5.670060710204825050
0.457000000000000295,-5.590571734091363432
0.458000000000000296,-5.512342750703528083
0.459000000000000297,-5.435366791823412314
0.460000000000000298,-5.359636487520772263
0.461000000000000298,-5.285144081044139241
0.462000000000000299,-5.211881443575154371
0.463000000000000300,-5.139840088835559762
0.464000000000000301,-5.069011187537045160
0.465000000000000302,-4.999385581664793854
0.466000000000000303,-4.930953798586116044
0.467000000000000304,-4.863706064976176968
0.468000000000000305,-4.797632320553629981
0.469000000000000306,-4.732722231619125530
0.470000000000000306,-4.668965204390636003
0.471000000000000307,-4.606350398129730017
0.472000000000000308,-4.544866738053729094
0.473000000000000309,-4.484502928028857305
0.474000000000000310,-4.425247463040280493
0.475000000000000311,-4.367088641435091567
0.476000000000000312,-4.310014576935117248
0.477000000000000313,-4.254013210416230706
0.478000000000000314,-4.199072321451984280
0.479000000000000314,-4.145179539619227249
0.480000000000000315,-4.092322355563869252
0.481000000000000316,-4.040488131825503260
0.482000000000000317,-3.989664113419622904
0.483000000000000318,-3.939837438176751583
0.484000000000000319,-3.890995146837918917
0.485000000000000320,-3.843124192906389514
0.486000000000000321,-3.796211452255616514
0.487000000000000322,-3.750243732493851123
0.488000000000000322,-3.705207782085933044
0.489000000000000323,-3.661090299233161094
0.490000000000000324,-3.617877940512232549
0.491000000000000325,-3.575557329274588803
0.492000000000000326,-3.534115063807509394
0.493000000000000327,-3.493537725258745841
0.494000000000000328,-3.453811885326413034
0.495000000000000329,-3.414924113716196530
0.496000000000000330,-3.376860985367977186
0.497000000000000330,-3.339609087454171288
0.498000000000000331,-3.303155026152256646
0.499000000000000332,-3.267485433193971112
0.500000000000000333,-3.232586972193880026
0.501000000000000334,-3.198446344760121463
0.502000000000000335,-3.165050296390119478
0.503000000000000336,-3.132385622154354010
0.504000000000000337,-3.100439172171096214
0.505000000000000338,-3.069197856875360397
0.506000000000000338,-3.038648652085187418
0.507000000000000339,-3.008778603868552448
0.508000000000000340,-2.979574833214193141
0.509000000000000341,-2.951024540509729732
0.510000000000000342,-2.923115009830488553
0.511000000000000343,-2.895833613042429810
0.512000000000000344,-2.869167813722715454
0.513000000000000345,-2.843105170901353507
0.514000000000000346,-2.817633342627487991
0.515000000000000346,-2.792740089363852096
0.516000000000000347,-2.768413277212895984
0.517000000000000348,-2.744640880978266750
0.518000000000000349,-2.721410987065010278
0.519000000000000350,-2.698711796222234227
0.520000000000000351,-2.676531626131710695
0.521000000000000352,-2.654858913845929980
0.522000000000000353,-2.633682218079218540
0.523000000000000353,-2.612990221355384612
0.524000000000000354,-2.592771732015433095
0.525000000000000355,-2.573015686088807374
0.526000000000000356,-2.553711149031639316
0.527000000000000357,-2.534847317335446881
0.528000000000000358,-2.516413520009670002
0.529000000000000359,-2.498399219941418448
0.530000000000000360,-2.480794015135848518
0.531000000000000361,-2.463587639840381982
0.532000000000000361,-2.446769965556119253
0.533000000000000362,-2.430331001939670443
0.534000000000000363,-2.414260897598614175
0.535000000000000364,-2.398549940783711865
0.536000000000000365,-2.383188559981068710
0.537000000000000366,-2.368167324407263852
0.538000000000000367,-2.353476944410508587
0.539000000000000368,-2.339108271780848902
0.540000000000000369,-2.325052299972317549
0.541000000000000369,-2.311300164239961319
0.542000000000000370,-2.297843141694639435
0.543000000000000371,-2.284672651278302880
0.544000000000000372,-2.271780253662638138
0.545000000000000373,-2.259157651073683049
0.546000000000000374,-2.246796687045158780
0.547000000000000375,-2.234689346103066576
0.548000000000000376,-2.222827753384198246
0.549000000000000377,-2.211204174190999350
0.550000000000000377,-2.199811013485281741
0.551000000000000378,-2.188640815323251498
0.552000000000000379,-2.177686262234134418
0.553000000000000380,-2.166940174544802922
0.554000000000000381,-2.156395509652627940
0.555000000000000382,-2.146045361248797079
0.556000000000000383,-2.135882958494264461
0.557000000000000384,-2.125901665150464304
0.558000000000000385,-2.116094978666866133
0.559000000000000385,-2.106456529227405561
0.560000000000000386,-2.096980078757729959
0.561000000000000387,-2.087659519895274762
0.562000000000000388,-2.078488874923988483
0.563000000000000389,-2.069462294675548542
0.564000000000000390,-2.060574057398913084
0.565000000000000391,-2.051818567599912324
0.566000000000000392,-2.043190354852595370
0.567000000000000393,-2.034684072583999193
0.568000000000000393,-2.026294496833934478
0.569000000000000394,-2.018016524991383953
0.570000000000000395,-2.009845174509033772
0.571000000000000396,-2.001775581597395881
0.572000000000000397,-1.993802999900025741
0.573000000000000398,-1.985922799151155660
0.574000000000000399,-1.978130463817189932
0.575000000000000400,-1.970421591723325649
0.576000000000000401,-1.962791892666590154
0.577000000000000401,-1.955237187016569234
0.578000000000000402,-1.947753404305001990
0.579000000000000403,-1.940336581805404803
0.580000000000000404,-1.932982863103883231
0.581000000000000405,-1.925688496662226523
0.582000000000000406,-1.918449834374282403
0.583000000000000407,-1.911263330116744097
0.584000000000000408,-1.904125538295237119
0.585000000000000409,-1.897033112386711240
0.586000000000000409,-1.889982803479071993
0.587000000000000410,-1.882971458808915033
0.588000000000000411,-1.875996020298233757
0.589000000000000412,-1.869053523090932201
0.590000000000000413,-1.862141094089934557
0.591000000000000414,-1.855255950495680040
0.592000000000000415,-1.848395398346704521
0.593000000000000416,-1.841556831063063226
0.594000000000000417,-1.834737727993255518
0.595000000000000417,-1.827935652965301916
0.596000000000000418,-1.821148252842623716
0.597000000000000419,-1.814373256085325181
0.598000000000000420,-1.807608471317427856
0.599000000000000421,-1.800851785900662305
0.600000000000000422,-1.794101164515303992
0.601000000000000423,-1.787354647748583103
0.602000000000000424,-1.780610350691143040
0.603000000000000425,-1.773866461542015882
0.604000000000000425,-1.767121240222544021
0.605000000000000426,-1.760373016999680518
0.606000000000000427,-1.753620191119062754
0.607000000000000428,-1.746861229448217090
0.608000000000000429,-1.740094665130291984
