# Ag332_CS-13835861-AC
# h[nm],U(h)[kJ/mol]
0.200000000000000011,92.915995697193650926
0.201000000000000012,87.643174233419358643
0.202000000000000013,84.579319812962793890
0.203000000000000014,82.565463492358688313
0.204000000000000015,80.933731007401036095
0.205000000000000016,79.332796999166689034
0.206000000000000016,77.607465713887819447
0.207000000000000017,75.717274469042834539
0.208000000000000018,73.682901211673112130
0.209000000000000019,71.552103836988933949
0.210000000000000020,69.379142800490257059
0.211000000000000021,67.213308127066369480
0.212000000000000022,65.093417731847168284
0.213000000000000023,63.046077094355041481
0.214000000000000024,61.086168825101992752
0.215000000000000024,59.218534634452453247
0.216000000000000025,57.440167785077846929
0.217000000000000026,55.742486555547088756
0.218000000000000027,54.113435427426892943
0.219000000000000028,52.539280996730688855
0.220000000000000029,51.006049360346636945
0.221000000000000030,49.500602451600585141
0.222000000000000031,48.011381066711223298
0.223000000000000032,46.528858464317259802
0.224000000000000032,45.045755062367717869
0.225000000000000033,43.557065247205535741
0.226000000000000034,42.059944034308315963
0.227000000000000035,40.553495949325423453
0.228000000000000036,39.038502174432338165
0.229000000000000037,37.517115485762346339
0.230000000000000038,35.992546271755834653
0.231000000000000039,34.468757251025373023
0.232000000000000040,32.950179545395691605
0.233000000000000040,31.441458559285859309
0.234000000000000041,29.947234659518564115
0.235000000000000042,28.471960891034207464
0.236000000000000043,27.019757833538523784
0.237000000000000044,25.594304121599787294
0.238000000000000045,24.198760033754250998
0.239000000000000046,22.835720825271614842
0.240000000000000047,21.507196060798548842
0.241000000000000048,20.214611031183984835
0.242000000000000048,18.958826355745557635
0.243000000000000049,17.740172027788425169
0.244000000000000050,16.558492416078152587
0.245000000000000051,15.413199054301832902
0.246000000000000052,14.303328407090782903
0.247000000000000053,13.227602173474153346
0.248000000000000054,12.184488060268728660
0.249000000000000055,11.172259316693809339
0.250000000000000056,10.189051658766979713
0.251000000000000056,9.232916522007794669
0.252000000000000057,8.301869860185522754
0.253000000000000058,7.393935954660973309
0.254000000000000059,6.507185913054355453
0.255000000000000060,5.639770718349275569
0.256000000000000061,4.789948841696678450
0.257000000000000062,3.956108556218173256
0.258000000000000063,3.136785187457028279
0.259000000000000064,2.330673611395293054
0.260000000000000064,1.536636365810563287
0.261000000000000065,0.753707777818258151
0.262000000000000066,-0.018905467737134474
0.263000000000000067,-0.781826885425603524
0.264000000000000068,-1.535515440001128162
0.265000000000000069,-2.280273069241608219
0.266000000000000070,-3.016254074490988035
0.267000000000000071,-3.743475996955428542
0.268000000000000071,-4.461831624047711387
0.269000000000000072,-5.171101798927534077
0.270000000000000073,-5.870968736810800337
0.271000000000000074,-6.561029582748359346
0.272000000000000075,-7.240809976684457361
0.273000000000000076,-7.909777422110179756
0.274000000000000077,-8.567354284067139503
0.275000000000000078,-9.212930270270485167
0.276000000000000079,-9.845874275446067969
0.277000000000000079,-10.465545493428857426
0.278000000000000080,-11.071303724029036175
0.279000000000000081,-11.662518822083496772
0.280000000000000082,-12.238579254455981271
0.281000000000000083,-12.798899747059117260
0.282000000000000084,-13.342928018299716086
0.283000000000000085,-13.870150607777361529
0.284000000000000086,-14.380097819694743322
0.285000000000000087,-14.872347809375636274
0.286000000000000087,-15.346529848656771833
0.287000000000000088,-15.802326811846018728
0.288000000000000089,-16.239476928549628099
0.289000000000000090,-16.657774853093791023
0.290000000000000091,-17.057072102622228726
0.291000000000000092,-17.437276917366638429
0.292000000000000093,-17.798353597171264084
0.293000000000000094,-18.140321368219073150
0.294000000000000095,-18.463252833155255672
0.295000000000000095,-18.767272056530863722
0.296000000000000096,-19.052552335780731596
0.297000000000000097,-19.319313705887839916
0.298000000000000098,-19.567820223542476299
0.299000000000000099,-19.798377074044896773
0.300000000000000100,-20.011327541483517223
0.301000000000000101,-20.207049879898832501
0.302000000000000102,-20.385954120261494893
0.303000000000000103,-20.548478845193049125
0.304000000000000103,-20.695087960470502253
0.305000000000000104,-20.826267489514677322
0.306000000000000105,-20.942522414288596622
0.307000000000000106,-21.044373583347301349
0.308000000000000107,-21.132354705202050837
0.309000000000000108,-21.207009442700758939
0.310000000000000109,-21.268888621794957317
0.311000000000000110,-21.318547565866388993
0.312000000000000111,-21.356543564730920082
0.313000000000000111,-21.383433485523653417
0.314000000000000112,-21.399771530899876382
0.315000000000000113,-21.406107148359946990
0.316000000000000114,-21.402983093020662153
0.317000000000000115,-21.390933644807184066
0.318000000000000116,-21.370482979825133896
0.319000000000000117,-21.342143694585988811
0.320000000000000118,-21.306415480795500628
0.321000000000000119,-21.263783947568377641
0.322000000000000119,-21.214719587196579909
0.323000000000000120,-21.159676879966703211
0.324000000000000121,-21.099093532987808430
0.325000000000000122,-21.033389847547294238
0.326000000000000123,-20.962968209153025612
0.327000000000000124,-20.888212694137784808
0.328000000000000125,-20.809488786492060797
0.329000000000000126,-20.727143198444231587
0.330000000000000127,-20.641503788220852300
0.331000000000000127,-20.552879568385787223
0.332000000000000128,-20.461560798169973197
0.333000000000000129,-20.367819153260008136
0.334000000000000130,-20.271907966606526941
0.335000000000000131,-20.174062533939572717
0.336000000000000132,-20.074500477832067702
0.337000000000000133,-19.973422164330948192
0.338000000000000134,-19.871011166374543677
0.339000000000000135,-19.767434768430284464
0.340000000000000135,-19.662844507016622231
0.341000000000000136,-19.557376742013126147
0.342000000000000137,-19.451153253911176222
0.343000000000000138,-19.344281862411556006
0.344000000000000139,-19.236857062032704846
0.345000000000000140,-19.128960670652453757
0.346000000000000141,-19.020662487164134546
0.347000000000000142,-18.912020954684784613
0.348000000000000143,-18.803083826006819379
0.349000000000000143,-18.693888828232644528
0.350000000000000144,-18.584464323775655714
0.351000000000000145,-18.474829965147474553
0.352000000000000146,-18.364997341181087620
0.353000000000000147,-18.254970612561301380
0.354000000000000148,-18.144747134747532868
0.355000000000000149,-18.034318066578418183
0.356000000000000150,-17.923668963043773772
0.357000000000000151,-17.812780350895607739
0.358000000000000151,-17.701628285947087704
0.359000000000000152,-17.590184891075651308
0.360000000000000153,-17.478418874104995950
0.361000000000000154,-17.366296024889024352
0.362000000000000155,-17.253779691060124435
0.363000000000000156,-17.140831232034756226
0.364000000000000157,-17.027410450989929558
0.365000000000000158,-16.913476004637303163
0.366000000000000159,-16.798985790724806577
0.367000000000000159,-16.683897313291847553
0.368000000000000160,-16.568168025791649711
0.369000000000000161,-16.451755652274194119
0.370000000000000162,-16.334618486895823963
0.371000000000000163,-16.216715672087424593
0.372000000000000164,-16.098007455771327301
0.373000000000000165,-15.978455428070157396
0.374000000000000166,-15.858022737996748219
0.375000000000000167,-15.736674290654983466
0.376000000000000167,-15.614376925516637584
0.377000000000000168,-15.491099576369347091
0.378000000000000169,-15.366813413555941992
0.379000000000000170,-15.241491969146604646
0.380000000000000171,-15.115111245701367437
0.381000000000000172,-14.987649809293746017
0.382000000000000173,-14.859088867474852691
0.383000000000000174,-14.729412332863812907
0.384000000000000175,-14.598606873052304422
0.385000000000000175,-14.466661947511354924
0.386000000000000176,-14.333569832185835580
0.387000000000000177,-14.199325632456751833
0.388000000000000178,-14.063927285144682600
0.389000000000000179,-13.927375550218133782
0.390000000000000180,-13.789673992860278062
0.391000000000000181,-13.650828956534670766
0.392000000000000182,-13.510849527677370574
0.393000000000000183,-13.369747492627421792
0.394000000000000183,-13.227537287392147292
0.395000000000000184,-13.084235940826768996
0.396000000000000185,-12.939863011790000868
0.397000000000000186,-12.794440520819630791
0.398000000000000187,-12.647992876852761412
0.399000000000000188,-12.500546799496744299
0.400000000000000189,-12.352131237337291125
0.401000000000000190,-12.202777282750457033
0.402000000000000191,-12.052518083666033277
0.403000000000000191,-11.901388752709404883
0.404000000000000192,-11.749426274129930903
0.405000000000000193,-11.596669408903890641
0.406000000000000194,-11.443158598380737345
0.407000000000000195,-11.288935866822448872
0.408000000000000196,-11.134044723166329760
0.409000000000000197,-10.978530062323496708
0.410000000000000198,-10.822438066306935056
0.411000000000000199,-10.665816105464839936
0.412000000000000199,-10.508712640077837008
0.413000000000000200,-10.351177122561637134
0.414000000000000201,-10.193259900499981541
0.415000000000000202,-10.035012120716638506
0.416000000000000203,-9.876485634580097539
0.417000000000000204,-9.717732904718758391
0.418000000000000205,-9.558806913310679221
0.419000000000000206,-9.399761072097508219
0.420000000000000207,-9.240649134258564601
0.421000000000000207,-9.081525108268765578
0.422000000000000208,-8.922443173850691522
0.423000000000000209,-8.763457600120210245
0.424000000000000210,-8.604622666012895493
0.425000000000000211,-8.445992583068040460
0.426000000000000212,-8.287621420636686054
0.427000000000000213,-8.129563033570086361
0.428000000000000214,-7.971870992435976966
0.429000000000000214,-7.814598516300844899
0.430000000000000215,-7.657798408108240196
0.431000000000000216,-7.501522992675442758
0.432000000000000217,-7.345824057322784206
0.433000000000000218,-7.190752795143620979
0.434000000000000219,-7.036359750915908151
0.435000000000000220,-6.882694769650444577
0.436000000000000221,-6.729806947764944702
0.437000000000000222,-6.577744586867848575
0.438000000000000222,-6.426555150130906391
0.439000000000000223,-6.276285221224765287
0.440000000000000224,-6.126980465787714714
0.441000000000000225,-5.978685595393705476
0.442000000000000226,-5.831444333982465089
0.443000000000000227,-5.685299386710776837
0.444000000000000228,-5.540292411181556353
0.445000000000000229,-5.396463991004281091
0.446000000000000230,-5.253853611638108490
0.447000000000000230,-5.112499638466890595
0.448000000000000231,-4.972439297053233176
0.449000000000000232,-4.833708655517239272
0.450000000000000233,-4.696342608984121370
0.451000000000000234,-4.560374866043469311
0.452000000000000235,-4.425837937162255820
0.453000000000000236,-4.292763124992366564
0.454000000000000237,-4.161180516513335981
0.455000000000000238,-4.031118976949912280
0.456000000000000238,-3.902606145404234894
0.457000000000000239,-3.775668432141773057
0.458000000000000240,-3.650331017470660022
0.459000000000000241,-3.526617852153417054
0.460000000000000242,-3.404551659291154664
0.461000000000000243,-3.284153937619735508
0.462000000000000244,-3.165444966158663220
0.463000000000000245,-3.048443810153156797
0.464000000000000246,-2.933168328251234414
0.465000000000000246,-2.819635180857806844
0.466000000000000247,-2.707859839608721231
0.467000000000000248,-2.597856597908480669
0.468000000000000249,-2.489638582476461970
0.469000000000000250,-2.383217765847013059
0.470000000000000251,-2.278604979770241901
0.471000000000000252,-2.175809929460962966
0.472000000000000253,-2.074841208644754964
0.473000000000000254,-1.975706315350809872
0.474000000000000254,-1.878411668402704127
0.475000000000000255,-1.782962624559272014
0.476000000000000256,-1.689363496258919017
0.477000000000000257,-1.597617569922148650
0.478000000000000258,-1.507727124767971993
0.479000000000000259,-1.419693452101458808
0.480000000000000260,-1.333516875030749782
0.481000000000000261,-1.249196768573044070
0.482000000000000262,-1.166731580110663469
0.483000000000000262,-1.086118850159132565
0.484000000000000263,-1.007355233410804241
0.485000000000000264,-0.930436520018620983
0.486000000000000265,-0.855357657085983769
0.487000000000000266,-0.782112770329845719
0.488000000000000267,-0.710695185885338088
0.489000000000000268,-0.641097452221695008
0.490000000000000269,-0.573311362140018099
0.491000000000000270,-0.507327974825127148
0.492000000000000270,-0.443137637924371219
0.493000000000000271,-0.380730009627941346
0.494000000000000272,-0.320094080725925878
0.495000000000000273,-0.261218196618708487
0.496000000000000274,-0.204090079258421625
0.497000000000000275,-0.148696848999970099
0.498000000000000276,-0.095025046341566860
0.499000000000000277,-0.043060653535410554
0.500000000000000222,0.007210883949659385
0.501000000000000334,0.055804636130805982
0.502000000000000224,0.102736167395341998
0.503000000000000336,0.148021515581957253
0.504000000000000226,0.191677171273172714
0.505000000000000338,0.233720057312963636
0.506000000000000227,0.274167508561843132
0.507000000000000339,0.313037251901760349
0.508000000000000229,0.350347386501469793
0.509000000000000341,0.386116364352983077
0.510000000000000231,0.420362971088353299
0.511000000000000343,0.453106307085901328
0.512000000000000233,0.484365768873680491
0.513000000000000345,0.514161030837812061
0.514000000000000234,0.542512027242182393
0.515000000000000346,0.569438934565910881
0.516000000000000236,0.594962154163743984
0.517000000000000348,0.619102295254480239
0.518000000000000238,0.641880158241648235
0.519000000000000350,0.663316718370205449
0.520000000000000240,0.683433109722494159
0.521000000000000352,0.702250609556179350
0.522000000000000242,0.719790622986407724
0.523000000000000353,0.736074668013941502
0.524000000000000243,0.751124360900611410
0.525000000000000355,0.764961401892991000
0.526000000000000245,0.777607561294732519
0.527000000000000357,0.789084665887757497
0.528000000000000247,0.799414585701902936
0.529000000000000359,0.808619221132563459
0.530000000000000249,0.816720490405208333
0.531000000000000361,0.823740317385632692
0.532000000000000250,0.829700619734252576
0.533000000000000362,0.834623297402686370
0.534000000000000252,0.838530221470435877
0.535000000000000364,0.841443223319221945
0.536000000000000254,0.843384084142495771
0.537000000000000366,0.844374524787117053
0.538000000000000256,0.844436195924217037
0.539000000000000368,0.843590668545979638
0.540000000000000258,0.841859424784835775
0.541000000000000369,0.839263849051499200
0.542000000000000259,0.835825219488042670
0.543000000000000371,0.831564699732064261
0.544000000000000261,0.826503330987859330
0.545000000000000373,0.820662024400438228
0.546000000000000263,0.814061553728052223
0.547000000000000375,0.806722548308728804
0.548000000000000265,0.798665486316443518
0.549000000000000377,0.789910688302128294
0.550000000000000266,0.780478311015033288
0.551000000000000378,0.770388341499454343
0.552000000000000268,0.759660591462196777
0.553000000000000380,0.748314691905782148
0.554000000000000270,0.736370088022513025
0.555000000000000382,0.723846034344410638
0.556000000000000272,0.710761590144054711
0.557000000000000384,0.697135615081294291
0.558000000000000274,0.682986765090744075
0.559000000000000385,0.668333488505084783
0.560000000000000275,0.653194022409041120
0.561000000000000387,0.637586389218967708
0.562000000000000277,0.621528393483085972
0.563000000000000389,0.605037618897129037
0.564000000000000279,0.588131425530539764
0.565000000000000391,0.570826947258037398
0.566000000000000281,0.553141089391716689
0.567000000000000393,0.535090526508502529
0.568000000000000282,0.516691700468190795
0.569000000000000394,0.497960818617005530
0.570000000000000284,0.478913852171966692
0.571000000000000396,0.459566534780990577
0.572000000000000286,0.439934361254148698
0.573000000000000398,0.420032586461180912
0.574000000000000288,0.399876224390648349
0.575000000000000400,0.379480047365927109
0.576000000000000290,0.358858585413664166
0.577000000000000401,0.338026125779863462
0.578000000000000291,0.316996712589327490
0.579000000000000403,0.295784146643906176
0.580000000000000293,0.274401985355218703
0.581000000000000405,0.252863542807404751
0.582000000000000295,0.231181889945901997
0.583000000000000407,0.209369854887718365
0.584000000000000297,0.187440023349401741
0.585000000000000409,0.165404739188322297
0.586000000000000298,0.143276105053589869
0.587000000000000410,0.121065983142333217
0.588000000000000300,0.098785996057802736
0.589000000000000412,0.076447527765206552
0.590000000000000302,0.054061724641810006
0.591000000000000414,0.031639496617368701
0.592000000000000304,0.009191518401588817
0.593000000000000416,-0.013271769205174356
0.594000000000000306,-0.035740157921233674
0.595000000000000417,-0.058203670516451957
0.596000000000000307,-0.080652559271802010
0.597000000000000419,-0.103077304369094389
0.598000000000000309,-0.125468612213878283
0.599000000000000421,-0.147817413694637134
0.600000000000000311,-0.170114862381406023
0.601000000000000423,-0.192352332666740816
0.602000000000000313,-0.214521417851865598
0.603000000000000425,-0.236613928180989863
0.604000000000000314,-0.258621888826398916
0.605000000000000426,-0.280537537827185601
0.606000000000000316,-0.302353323984090872
0.607000000000000428,-0.324061904713165316
0.608000000000000318,-0.345656143860673892
0.609000000000000430,-0.367129109481769134
0.610000000000000320,-0.388474071585151404
0.611000000000000432,-0.409684499846290184
0.612000000000000322,-0.430754061291158064
0.613000000000000433,-0.451676617952941228
0.614000000000000323,-0.472446224503681456
0.615000000000000435,-0.493057125863034074
0.616000000000000325,-0.513503754786025501
0.617000000000000437,-0.533780729431963974
0.618000000000000327,-0.553882850916180391
0.619000000000000439,-0.573805100846623839
0.620000000000000329,-0.593542638846988324
0.621000000000000441,-0.613090800068157415
0.622000000000000330,-0.632445092689620125
0.623000000000000442,-0.651601195412533363
0.624000000000000332,-0.670554954945874693
0.625000000000000444,-0.689302383487439774
0.626000000000000334,-0.707839656200873302
0.627000000000000446,-0.726163108690428438
0.628000000000000336,-0.744269234474623453
0.629000000000000448,-0.762154682460265187
0.630000000000000338,-0.779816254417997734
0.631000000000000449,-0.797250902460767574
0.632000000000000339,-0.814455726526228219
0.633000000000000451,-0.831427971864369675
0.634000000000000341,-0.848165026531355060
0.635000000000000453,-0.864664418890815689
0.636000000000000343,-0.880923815123328735
0.637000000000000455,-0.896941016745437025
0.638000000000000345,-0.912713958138760661
0.639000000000000457,-0.928240704090457669
0.640000000000000346,-0.943519447345610773
0.641000000000000458,-0.958548506172615666
0.642000000000000348,-0.973326321942131423
0.643000000000000460,-0.987851456720578724
0.644000000000000350,-1.002122590878704367
0.645000000000000462,-1.016138520716096227
0.646000000000000352,-1.029898156102097229
0.647000000000000464,-1.043400518133990484
0.648000000000000353,-1.056644736812790475
0.649000000000000465,-1.069630048737453931
0.650000000000000355,-1.082355794817832395
0.651000000000000467,-1.094821418007039027
0.652000000000000357,-1.107026461053611355
0.653000000000000469,-1.118970564273957802
0.654000000000000359,-1.130653463345522525
0.655000000000000471,-1.142074987121049379
0.656000000000000361,-1.153235055464311376
0.657000000000000473,-1.164133677107725306
0.658000000000000362,-1.174770947532075560
0.659000000000000474,-1.185147046868739951
0.660000000000000364,-1.195262237824643581
0.661000000000000476,-1.205116863630267821
0.662000000000000366,-1.214711346010851623
