# Ag332_PYRROLE-AC
# h[nm],U(h)[kJ/mol]
0.200000000000000011,73.881663286804766244
0.201000000000000012,68.486813274249044525
0.202000000000000013,65.542721596019887897
0.203000000000000014,63.740629544524480821
0.204000000000000015,62.333154985866201514
0.205000000000000016,60.932657428925054433
0.206000000000000016,59.372764918810347012
0.207000000000000017,57.615259776147340176
0.208000000000000018,55.689145582599010709
0.209000000000000019,53.652214538795590215
0.210000000000000020,51.568064881664597010
0.211000000000000021,49.493486072195878478
0.212000000000000022,47.472592563304374380
0.213000000000000023,45.535166821549118765
0.214000000000000024,43.697462605104746558
0.215000000000000024,41.964292220155712698
0.216000000000000025,40.331631615110026701
0.217000000000000026,38.789266664520340555
0.218000000000000027,37.323204668972650211
0.219000000000000028,35.917710990787846015
0.220000000000000029,34.556919913358640883
0.221000000000000030,33.226024731174405247
0.222000000000000031,31.912084734515751450
0.223000000000000032,30.604503484522439294
0.224000000000000032,29.295238916934511764
0.225000000000000033,27.978805199624694922
0.226000000000000034,26.652121612256127747
0.227000000000000035,25.314256898113338679
0.228000000000000036,23.966109831414193820
0.229000000000000037,22.610058979254972655
0.230000000000000038,21.249607330253319049
0.231000000000000039,19.889040903473617306
0.232000000000000040,18.533114779244669990
0.233000000000000040,17.186775243069867258
0.234000000000000041,15.854922874048924086
0.235000000000000042,14.542218369471751060
0.236000000000000043,13.252930585719102652
0.237000000000000044,11.990824592016391392
0.238000000000000045,10.759086377546655200
0.239000000000000046,9.560280128791978527
0.240000000000000047,8.396333615940571704
0.241000000000000048,7.268547117919831990
0.242000000000000048,6.177621408680328052
0.243000000000000049,5.123700566620851937
0.244000000000000050,4.106425708024121768
0.245000000000000051,3.124996146332081448
0.246000000000000052,2.178234912101822296
0.247000000000000053,1.264656010341662862
0.248000000000000054,0.382531225196254099
0.249000000000000055,-0.470045306005659635
0.250000000000000056,-1.295096145182965230
0.251000000000000056,-2.094704281486891695
0.252000000000000057,-2.870962275462834334
0.253000000000000058,-3.625927290853705465
0.254000000000000059,-4.361582255131041919
0.255000000000000060,-5.079803196639669061
0.256000000000000061,-5.782332647865476183
0.257000000000000062,-6.470758877931383601
0.258000000000000063,-7.146500619863585868
0.259000000000000064,-7.810796886198374978
0.260000000000000064,-8.464701416878593676
0.261000000000000065,-9.109081272975222632
0.262000000000000066,-9.744619075592478197
0.263000000000000067,-10.371818388606062200
0.264000000000000068,-10.991011754121593924
0.265000000000000069,-11.602370908448680353
0.266000000000000070,-12.205918731944700895
0.267000000000000071,-12.801542516525319826
0.268000000000000071,-13.389008168433079504
0.269000000000000072,-13.967974999701045391
0.270000000000000073,-14.538010798547693625
0.271000000000000074,-15.098606905789498711
0.272000000000000075,-15.649193060525410814
0.273000000000000076,-16.189151813251903889
0.274000000000000077,-16.717832337763887551
0.275000000000000078,-17.234563504354841967
0.276000000000000079,-17.738666105720852784
0.277000000000000079,-18.229464153455886333
0.278000000000000080,-18.706295187023286530
0.279000000000000081,-19.168519558593985153
0.280000000000000082,-19.615528676184332824
0.281000000000000083,-20.046752204182837431
0.282000000000000084,-20.461664234724988631
0.283000000000000085,-20.859788455584464373
0.284000000000000086,-21.240702350437306478
0.285000000000000087,-21.604040475671585142
0.286000000000000087,-21.949496864516550687
0.287000000000000088,-22.276826614308781416
0.288000000000000089,-22.585846716354247121
0.289000000000000090,-22.876436190239633817
0.290000000000000091,-23.148535585737896270
0.291000000000000092,-23.402145915785848018
0.292000000000000093,-23.637327083514954040
0.293000000000000094,-23.854195865115922714
0.294000000000000095,-24.052923508526966145
0.295000000000000095,-24.233733005660130999
0.296000000000000096,-24.396896093215268309
0.297000000000000097,-24.542730034164051744
0.298000000000000098,-24.671594228793239267
0.299000000000000099,-24.783886700848537288
0.300000000000000100,-24.880040500874489595
0.301000000000000101,-24.960520065359808939
0.302000000000000102,-25.025817566812225579
0.303000000000000103,-25.076449286445420483
0.304000000000000103,-25.112952037792894089
0.305000000000000104,-25.135879666298535540
0.306000000000000105,-25.145799646793484783
0.307000000000000106,-25.143289797769718064
0.308000000000000107,-25.128935128518005371
0.309000000000000108,-25.103324832520385712
0.310000000000000109,-25.067049437981452797
0.311000000000000110,-25.020698124053012634
0.312000000000000111,-24.964856209154362432
0.313000000000000111,-24.900102815814680213
0.314000000000000112,-24.827008714661737088
0.315000000000000113,-24.746134348550423709
0.316000000000000114,-24.658028036357329427
0.317000000000000115,-24.563224354660530224
0.318000000000000116,-24.462242694367557050
0.319000000000000117,-24.355585988343815274
0.320000000000000118,-24.243739605218216582
0.321000000000000119,-24.127170403796849740
0.322000000000000119,-24.006325941888277953
0.323000000000000120,-23.881633832828885744
0.324000000000000121,-23.753501242584174946
0.325000000000000122,-23.622314519984485059
0.326000000000000123,-23.488438952422036721
0.327000000000000124,-23.352218639184201265
0.328000000000000125,-23.213976474516705650
0.329000000000000126,-23.074014232493112786
0.330000000000000127,-22.932612745806419952
0.331000000000000127,-22.790032170689386248
0.332000000000000128,-22.646512330303941951
0.333000000000000129,-22.502273129113525840
0.334000000000000130,-22.357515030957465285
0.335000000000000131,-22.212419593781209670
0.336000000000000132,-22.067150054232708811
0.337000000000000133,-21.921851955612062568
0.338000000000000134,-21.776653812952510236
0.339000000000000135,-21.631667809314013340
0.340000000000000135,-21.486990517681565649
0.341000000000000136,-21.342703643176530903
0.342000000000000137,-21.198874780608608859
0.343000000000000138,-21.055558182714776194
0.344000000000000139,-20.912795534749086812
0.345000000000000140,-20.770616731400771471
0.346000000000000141,-20.629040652326160910
0.347000000000000142,-20.488075932881478991
0.348000000000000143,-20.347721726937329834
0.349000000000000143,-20.207968458939905787
0.350000000000000144,-20.068798562659104334
0.351000000000000145,-19.930187204327936001
0.352000000000000146,-19.792102988130952923
0.353000000000000147,-19.654508642241260929
0.354000000000000148,-19.517361683836181641
0.355000000000000149,-19.380615061739501215
0.356000000000000150,-19.244217775544974813
0.357000000000000151,-19.108115470269908087
0.358000000000000151,-18.972251005769994237
0.359000000000000152,-18.836565000317403218
0.360000000000000153,-18.700996347903007688
0.361000000000000154,-18.565482708971366321
0.362000000000000155,-18.429960974433697629
0.363000000000000156,-18.294367702929985597
0.364000000000000157,-18.158639531426526759
0.365000000000000158,-18.022713559341195122
0.366000000000000159,-17.886527706483892786
0.367000000000000159,-17.750021045186450408
0.368000000000000160,-17.613134107074131407
0.369000000000000161,-17.475809164999770218
0.370000000000000162,-17.337990490723257153
0.371000000000000163,-17.199624588972806549
0.372000000000000164,-17.060660408570846869
0.373000000000000165,-16.921049531347723160
0.374000000000000166,-16.780746339599740935
0.375000000000000167,-16.639708162875887609
0.376000000000000167,-16.497895404900042138
0.377000000000000168,-16.355271651452351733
0.378000000000000169,-16.211803760046024081
0.379000000000000170,-16.067461932244011535
0.380000000000000171,-15.922219769463527683
0.381000000000000172,-15.776054313117484185
0.382000000000000173,-15.628946069937933672
0.383000000000000174,-15.480879023321431731
0.384000000000000175,-15.331840631526535645
0.385000000000000175,-15.181821813542791588
0.386000000000000176,-15.030816923436663757
0.387000000000000177,-14.878823713964241193
0.388000000000000178,-14.725843290223412652
0.389000000000000179,-14.571880054098803825
0.390000000000000180,-14.416941640233090993
0.391000000000000181,-14.261038844236342271
0.392000000000000182,-14.104185543823266613
0.393000000000000183,-13.946398613544516820
0.394000000000000183,-13.787697833754942067
0.395000000000000184,-13.628105794437100684
0.396000000000000185,-13.467647794473844414
0.397000000000000186,-13.306351736939021180
0.398000000000000187,-13.144248020950254130
0.399000000000000188,-12.981369430602786252
0.400000000000000189,-12.817751021478724027
0.401000000000000190,-12.653430005200858588
0.402000000000000191,-12.488445632476285141
0.403000000000000191,-12.322839075050405100
0.404000000000000192,-12.156653306968397743
0.405000000000000193,-11.989932985517748776
0.406000000000000194,-11.822724332202543707
0.407000000000000195,-11.655075014078070339
0.408000000000000196,-11.487034025752016930
0.409000000000000197,-11.318651572337813604
0.410000000000000198,-11.149978953624859912
0.411000000000000199,-10.981068449710296164
0.412000000000000199,-10.811973208317770201
0.413000000000000200,-10.642747134010203780
0.414000000000000201,-10.473444779485211242
0.415000000000000202,-10.304121239124743425
0.416000000000000203,-10.134832044954116270
0.417000000000000204,-9.965633065149228642
0.418000000000000205,-9.796580405216015919
0.419000000000000206,-9.627730311951482989
0.420000000000000207,-9.459139080281527612
0.421000000000000207,-9.290862963058270196
0.422000000000000208,-9.122958083886199887
0.423000000000000209,-8.955480353035389030
0.424000000000000210,-8.788485386488321893
0.425000000000000211,-8.622028428156280455
0.426000000000000212,-8.456164275291573773
0.427000000000000213,-8.290947207112033368
0.428000000000000214,-8.126430916645803748
0.429000000000000214,-7.962668445795837435
0.430000000000000215,-7.799712123615965886
0.431000000000000216,-7.637613507783356681
0.432000000000000217,-7.476423329245032612
0.433000000000000218,-7.316191440010515024
0.434000000000000219,-7.156966764056440056
0.435000000000000220,-6.998797251304134548
0.436000000000000221,-6.841729834625941642
0.437000000000000222,-6.685810389831980061
0.438000000000000222,-6.531083698584896347
0.439000000000000223,-6.377593414186544685
0.440000000000000224,-6.225382030177283532
0.441000000000000225,-6.074490851685615311
0.442000000000000226,-5.924959969463635012
0.443000000000000227,-5.776828236540924699
0.444000000000000228,-5.630133247428178223
0.445000000000000229,-5.484911319799755880
0.446000000000000230,-5.341197478583166180
0.447000000000000230,-5.199025442382260387
0.448000000000000231,-5.058427612160039111
0.449000000000000232,-4.919435062106196632
0.450000000000000233,-4.782077532614257720
0.451000000000000234,-4.646383425292620828
0.452000000000000235,-4.512379799933976976
0.453000000000000236,-4.380092373367418190
0.454000000000000237,-4.249545520118091169
0.455000000000000238,-4.120762274799231406
0.456000000000000238,-3.993764336162460182
0.457000000000000239,-3.868572072732262335
0.458000000000000240,-3.745204529952085526
0.459000000000000241,-3.623679438769492833
0.460000000000000242,-3.504013225589761582
0.461000000000000243,-3.386221023527437701
0.462000000000000244,-3.270316684887364822
0.463000000000000245,-3.156312794807155875
0.464000000000000246,-3.044220685995021825
0.465000000000000246,-2.934050454497838079
0.466000000000000247,-2.825810976435805255
0.467000000000000248,-2.719509925641517167
0.468000000000000249,-2.615153792142903555
0.469000000000000250,-2.512747901430668396
0.470000000000000251,-2.412296434452804395
0.471000000000000252,-2.313802448279955737
0.472000000000000253,-2.217267897387338316
0.473000000000000254,-2.122693655500241139
0.474000000000000254,-2.030079537951903212
0.475000000000000255,-1.939424324504152919
0.476000000000000256,-1.850725782582710366
0.477000000000000257,-1.763980690880917468
0.478000000000000258,-1.679184863286884211
0.479000000000000259,-1.596333173091057933
0.480000000000000260,-1.515419577432524534
0.481000000000000261,-1.436437141943958107
0.482000000000000262,-1.359378065556948290
0.483000000000000262,-1.284233705430580574
0.484000000000000263,-1.210994601968018447
0.485000000000000264,-1.139650503887106314
0.486000000000000265,-1.070190393312662414
0.487000000000000266,-1.002602510859463170
0.488000000000000267,-0.936874380676327667
0.489000000000000268,-0.872992835423354263
0.490000000000000269,-0.810944041155313711
0.491000000000000270,-0.750713522086042362
0.492000000000000270,-0.692286185209492144
0.493000000000000271,-0.635646344754866810
0.494000000000000272,-0.580777746454094634
0.495000000000000273,-0.527663591601382320
0.496000000000000274,-0.476286560885775034
0.497000000000000275,-0.426628837978561049
0.498000000000000276,-0.378672132858851540
0.499000000000000277,-0.332397704861421450
0.500000000000000222,-0.287786385432204472
0.501000000000000334,-0.244818600577679402
0.502000000000000224,-0.203474392995606129
0.503000000000000336,-0.163733443875173690
0.504000000000000226,-0.125575094356064787
0.505000000000000338,-0.088978366636238176
0.506000000000000227,-0.053921984719780415
0.507000000000000339,-0.020384394796266581
0.508000000000000229,0.011656214755389216
0.509000000000000341,0.042221893745430186
0.510000000000000231,0.071334910939709409
0.511000000000000343,0.099017735219458600
0.512000000000000233,0.125293017138577545
0.513000000000000345,0.150183570882386069
0.514000000000000234,0.173712356630749520
0.515000000000000346,0.195902463328393089
0.516000000000000236,0.216777091864044813
0.517000000000000348,0.236359538659990764
0.518000000000000238,0.254673179672825378
0.519000000000000350,0.271741454805751737
0.520000000000000240,0.287587852732298088
0.521000000000000352,0.302235896130885306
0.522000000000000242,0.315709127329215800
0.523000000000000353,0.328031094357029152
0.524000000000000243,0.339225337405446969
0.525000000000000355,0.349315375690708529
0.526000000000000245,0.358324694719709680
0.527000000000000357,0.366276733954589317
0.528000000000000247,0.373194874873049254
0.529000000000000359,0.379102429421106946
0.530000000000000249,0.384022628854410686
0.531000000000000361,0.387978612964227920
0.532000000000000250,0.390993419683816235
0.533000000000000362,0.393089975070791353
0.534000000000000252,0.394291083660846142
0.535000000000000364,0.394619419187882348
0.536000000000000254,0.394097515665727871
0.537000000000000366,0.392747758826094584
0.538000000000000256,0.390592377907565014
0.539000000000000368,0.387653437790137279
0.540000000000000258,0.383952831469730416
0.541000000000000369,0.379512272866997624
0.542000000000000259,0.374353289964691638
0.543000000000000371,0.368497218267670124
0.544000000000000261,0.361965194579637273
0.545000000000000373,0.354778151090628435
0.546000000000000263,0.346956809769178531
0.547000000000000375,0.338521677053019387
0.548000000000000265,0.329493038832286811
0.549000000000000377,0.319890955718903247
0.550000000000000266,0.309735258596162688
0.551000000000000378,0.299045544442074485
0.552000000000000268,0.287841172420479352
0.553000000000000380,0.276141260233596475
0.554000000000000270,0.263964680729876555
0.555000000000000382,0.251330058760931896
0.556000000000000272,0.238255768281432856
0.557000000000000384,0.224759929685821203
0.558000000000000274,0.210860407375699943
0.559000000000000385,0.196574807551903874
0.560000000000000275,0.181920476225170213
0.561000000000000387,0.166914497439433290
0.562000000000000277,0.151573691701897412
0.563000000000000389,0.135914614613861839
0.564000000000000279,0.119953555696633865
0.565000000000000391,0.103706537406631577
0.566000000000000281,0.087189314334142051
0.567000000000000393,0.070417372579923559
0.568000000000000282,0.053405929304246480
0.569000000000000394,0.036169932442769739
0.570000000000000284,0.018724060583977263
0.571000000000000396,0.001082723002632213
0.572000000000000286,-0.016739940155803202
0.573000000000000398,-0.034730057545108252
0.574000000000000288,-0.052874026147595690
0.575000000000000400,-0.071158510667936589
0.576000000000000290,-0.089570442796210986
0.577000000000000401,-0.108097020345301179
0.578000000000000291,-0.126725706267198313
0.579000000000000403,-0.145444227552978089
0.580000000000000293,-0.164240574021018659
0.581000000000000405,-0.183102996998059764
0.582000000000000295,-0.202020007897295878
0.583000000000000407,-0.220980376698133613
0.584000000000000297,-0.239973130331566142
0.585000000000000409,-0.258987550975578018
0.586000000000000298,-0.278013174264385543
0.587000000000000410,-0.297039787415773027
0.588000000000000300,-0.316057427280134084
0.589000000000000412,-0.335056378315269021
0.590000000000000302,-0.354027170490436860
0.591000000000000414,-0.372960577123509607
0.592000000000000304,-0.391847612654538935
0.593000000000000416,-0.410679530359405631
0.594000000000000306,-0.429447820006762959
0.595000000000000417,-0.448144205461697864
0.596000000000000307,-0.466760642239141155
0.597000000000000419,-0.485289315010347444
0.598000000000000309,-0.503722635065361635
0.599000000000000421,-0.522053237734406150
0.600000000000000311,-0.540273979771167867
0.601000000000000423,-0.558377936700739763
0.602000000000000313,-0.576358400134863169
0.603000000000000425,-0.594208875057257835
0.604000000000000314,-0.611923077081458322
0.605000000000000426,-0.629494929683781845
0.606000000000000316,-0.646918561413725279
0.607000000000000428,-0.664188303084210951
0.608000000000000318,-0.681298684943931976
0.609000000000000430,-0.698244433834027789
0.610000000000000320,-0.715020470331107272
0.611000000000000432,-0.731621905878888201
0.612000000000000322,-0.748044039910203185
0.613000000000000433,-0.764282356961518250
0.614000000000000323,-0.780332523781690268
0.615000000000000435,-0.796190386436842479
0.616000000000000325,-0.811851967413004139
0.617000000000000437,-0.827313462718336390
0.618000000000000327,-0.842571238986394300
0.619000000000000439,-0.857621830582117495
0.620000000000000329,-0.872461936711968256
0.621000000000000441,-0.887088418539694556
0.622000000000000330,-0.901498296309098279
0.623000000000000442,-0.915688746475159854
0.624000000000000332,-0.929657098844722363
0.625000000000000444,-0.943400833728119670
0.626000000000000334,-0.956917579102722238
0.627000000000000446,-0.970205107789729126
0.628000000000000336,-0.983261334645133211
0.629000000000000448,-0.996084313765988716
0.630000000000000338,-1.008672235712886778
0.631000000000000449,-1.021023424749687658
0.632000000000000339,-1.033136336101290187
0.633000000000000451,-1.045009553230376698
0.634000000000000341,-1.056641785133877853
0.635000000000000453,-1.068031863660058312
0.636000000000000343,-1.079178740846719275
0.637000000000000455,-1.090081486281538448
0.638000000000000345,-1.100739284484842040
0.639000000000000457,-1.111151432315763632
0.640000000000000346,-1.121317336402103404
0.641000000000000458,-1.131236510594657796
0.642000000000000348,-1.140908573446327567
0.643000000000000460,-1.150333245716693487
0.644000000000000350,-1.159510347902333871
0.645000000000000462,-1.168439797793444868
0.646000000000000352,-1.177121608057020152
0.647000000000000464,-1.185555883847114744
0.648000000000000353,-1.193742820442343033
0.649000000000000465,-1.201682700911096191
0.650000000000000355,-1.209375893804606417
0.651000000000000467,-1.216822850878227724
0.652000000000000357,-1.224024104841100691
0.653000000000000469,-1.230980267134413220
0.654000000000000359,-1.237692025738482027
0.655000000000000471,-1.244160143008757213
0.656000000000000361,-1.250385453540916902
0.657000000000000473,-1.256368862065202263
0.658000000000000362,-1.262111341370021345
0.659000000000000474,-1.267613930254956278
0.660000000000000364,-1.272877731513209598
0.661000000000000476,-1.277903909943554739
