# Ag332_CAFF-AC
# h[nm],U(h)[kJ/mol]
0.149999999999999994,134.458326864569670533
0.150999999999999995,126.663963108875080366
0.151999999999999996,122.307014338451452318
0.152999999999999997,118.727942431971456472
0.153999999999999998,114.941591619627473619
0.154999999999999999,110.757665843573732900
0.156000000000000000,106.302168032262173369
0.157000000000000001,101.776278781478467295
0.158000000000000002,97.350224437097594432
0.159000000000000002,93.129479837735217984
0.160000000000000003,89.156186068389814636
0.161000000000000004,85.424739067954917004
0.162000000000000005,81.900381842136468435
0.163000000000000006,78.535508338398614114
0.164000000000000007,75.281726521810725217
0.165000000000000008,72.097498470664774572
0.166000000000000009,68.952004872005801417
0.167000000000000010,65.826171638796324714
0.168000000000000010,62.711798266920268929
0.169000000000000011,59.609593001361453446
0.170000000000000012,56.526737205242433504
0.171000000000000013,53.474418631895787257
0.172000000000000014,50.465613998138067586
0.173000000000000015,47.513274153849607728
0.174000000000000016,44.628970895692518184
0.175000000000000017,41.821999609087036731
0.176000000000000018,39.098891264752737129
0.177000000000000018,36.463265351676611203
0.178000000000000019,33.915947026588938229
0.179000000000000020,31.455272786784242101
0.180000000000000021,29.077515868650358755
0.181000000000000022,26.777372699564033098
0.182000000000000023,24.548463169324946875
0.183000000000000024,22.383808921756429555
0.184000000000000025,20.276264454840163154
0.185000000000000026,18.218885076702324710
0.186000000000000026,16.205223475653152576
0.187000000000000027,14.229552788750794434
0.188000000000000028,12.287018678078315048
0.189000000000000029,10.373726201782568879
0.190000000000000030,8.486769388983436357
0.191000000000000031,6.624212596497090821
0.192000000000000032,4.785033138323896651
0.193000000000000033,2.969034517803890605
0.194000000000000034,1.176739017589720993
0.195000000000000034,-0.590732449472601728
0.196000000000000035,-2.331786342574161175
0.197000000000000036,-4.044482555111682309
0.198000000000000037,-5.726655843519744771
0.199000000000000038,-7.376028986015244371
0.200000000000000039,-8.990315012568355968
0.201000000000000040,-10.567306724630954662
0.202000000000000041,-12.104952487287366836
0.203000000000000042,-13.601417923217550054
0.204000000000000042,-15.055133668789050461
0.205000000000000043,-16.464829773588057549
0.206000000000000044,-17.829557644520313886
0.207000000000000045,-19.148700664770498037
0.208000000000000046,-20.421974767810699092
0.209000000000000047,-21.649420328910046862
0.210000000000000048,-22.831386762549463754
0.211000000000000049,-23.968511194483856031
0.212000000000000050,-25.061692521751883334
0.213000000000000050,-26.112062091526688334
0.214000000000000051,-27.120952128092135069
0.215000000000000052,-28.089862923087459023
0.216000000000000053,-29.020429683121715669
0.217000000000000054,-29.914389805562507263
0.218000000000000055,-30.773551231490131386
0.219000000000000056,-31.599762407398930719
0.220000000000000057,-32.394884276432826198
0.221000000000000058,-33.160764617322271874
0.222000000000000058,-33.899214955808176342
0.223000000000000059,-34.611990189768334858
0.224000000000000060,-35.300770995746397318
0.225000000000000061,-35.967149021046587620
0.226000000000000062,-36.612614811701021722
0.227000000000000063,-37.238548381968307410
0.228000000000000064,-37.846212294977036095
0.229000000000000065,-38.436747096004502566
0.230000000000000066,-39.011168918934018279
0.231000000000000066,-39.570369071909503589
0.232000000000000067,-40.115115399335003588
0.233000000000000068,-40.646055213408786244
0.234000000000000069,-41.163719588618945977
0.235000000000000070,-41.668528816389340363
0.236000000000000071,-42.160798823720149642
0.237000000000000072,-42.640748368649283861
0.238000000000000073,-43.108506836141302188
0.239000000000000073,-43.564122470128431530
0.240000000000000074,-44.007570890474212888
0.241000000000000075,-44.438763757239350127
0.242000000000000076,-44.857557458497900882
0.243000000000000077,-45.263761711814844091
0.244000000000000078,-45.657147983134862557
0.245000000000000079,-46.037457640065966302
0.246000000000000080,-46.404409769228706750
0.247000000000000081,-46.757708599368527302
0.248000000000000081,-47.097050483213081407
0.249000000000000082,-47.422130401539163813
0.250000000000000111,-47.732647962560456278
0.251000000000000112,-48.028312878535771802
0.252000000000000113,-48.308849909433192238
0.253000000000000114,-48.574003270566997514
0.254000000000000115,-48.823540507389495247
0.255000000000000115,-49.057255846082256312
0.256000000000000116,-49.274973033301606051
0.257000000000000117,-49.476547682425298547
0.258000000000000118,-49.661869146968953714
0.259000000000000119,-49.830861944542022002
0.260000000000000120,-49.983486756841003285
0.261000000000000121,-50.119741032780972034
0.262000000000000122,-50.239659222998696464
0.263000000000000123,-50.343312674664069561
0.264000000000000123,-50.430809215863284578
0.265000000000000124,-50.502292458808419440
0.266000000000000125,-50.557940850827620238
0.267000000000000126,-50.597966501537584350
0.268000000000000127,-50.622613813834348662
0.269000000000000128,-50.632157945391028875
0.270000000000000129,-50.626903126258113730
0.271000000000000130,-50.607180856950222392
0.272000000000000131,-50.573348010099444139
0.273000000000000131,-50.525784857384628879
0.274000000000000132,-50.464893042029885351
0.275000000000000133,-50.391093515721912866
0.276000000000000134,-50.304824457343471522
0.277000000000000135,-50.206539189472252360
0.278000000000000136,-50.096704107165209052
0.279000000000000137,-49.975796632147307719
0.280000000000000138,-49.844303204161732879
0.281000000000000139,-49.702717319921298156
0.282000000000000139,-49.551537628837181160
0.283000000000000140,-49.391266093493150890
0.284000000000000141,-49.222406221687478478
0.285000000000000142,-49.045461375781769675
0.286000000000000143,-48.860933164078957702
0.287000000000000144,-48.669319918001392011
0.288000000000000145,-48.471115257956746802
0.289000000000000146,-48.266806749960814216
0.290000000000000147,-48.056874654335111074
0.291000000000000147,-47.841790767108207660
0.292000000000000148,-47.622017354125162569
0.293000000000000149,-47.398006177303365405
0.294000000000000150,-47.170197611966457885
0.295000000000000151,-46.939019853736439813
0.296000000000000152,-46.704888213064940317
0.297000000000000153,-46.468204495137214849
0.298000000000000154,-46.229356462579531239
0.299000000000000155,-45.988717378145750558
0.300000000000000155,-45.746645624342015424
0.301000000000000156,-45.503484396773103526
0.302000000000000157,-45.259561467852279293
0.303000000000000158,-45.015189017409468875
0.304000000000000159,-44.770663526655326336
0.305000000000000160,-44.526265731908424073
0.306000000000000161,-44.282260634469466254
0.307000000000000162,-44.038897563024363535
0.308000000000000163,-43.796410284977156380
0.309000000000000163,-43.555017163151276804
0.310000000000000164,-43.314921354351220373
0.311000000000000165,-43.076311046344521571
0.312000000000000166,-42.839359729904735730
0.313000000000000167,-42.604226502646952213
0.314000000000000168,-42.371056401487862786
0.315000000000000169,-42.139980760670574966
0.316000000000000170,-41.911117592408736243
0.317000000000000171,-41.684571987323650433
0.318000000000000171,-41.460436531971524232
0.319000000000000172,-41.238791740884479964
0.320000000000000173,-41.019706500676065275
0.321000000000000174,-40.803238523891863565
0.322000000000000175,-40.589434810414040555
0.323000000000000176,-40.378332114358173044
0.324000000000000177,-40.169957414527480921
0.325000000000000178,-39.964328386615449062
0.326000000000000179,-39.761453875471872266
0.327000000000000179,-39.561334365867622864
0.328000000000000180,-39.363962450311774433
0.329000000000000181,-39.169323292589453445
0.330000000000000182,-38.977395085799592778
0.331000000000000183,-38.788149503779109750
0.332000000000000184,-38.601552144903635622
0.333000000000000185,-38.417562967353916292
0.334000000000000186,-38.236136715032046141
0.335000000000000187,-38.057223333402689036
0.336000000000000187,-37.880768374620949146
0.337000000000000188,-37.706713391390152879
0.338000000000000189,-37.534996319071957771
0.339000000000000190,-37.365551845643153683
0.340000000000000191,-37.198311769164341456
0.341000000000000192,-37.033205342490340684
0.342000000000000193,-36.870159605012815973
0.343000000000000194,-36.709099701284188200
0.344000000000000195,-36.549949186423475567
0.345000000000000195,-36.392630318255633881
0.346000000000000196,-36.237064336181148860
0.347000000000000197,-36.083171726815052693
0.348000000000000198,-35.930872476473744825
0.349000000000000199,-35.780086310623246959
0.350000000000000200,-35.630732920435676192
0.351000000000000201,-35.482732176629674825
0.352000000000000202,-35.336004330797500472
0.353000000000000203,-35.190470204445617242
0.354000000000000203,-35.046051365996838456
0.355000000000000204,-34.902670296020716023
0.356000000000000205,-34.760250540976173284
0.357000000000000206,-34.618716855764368745
0.358000000000000207,-34.477995335401935506
0.359000000000000208,-34.338013536135719050
0.360000000000000209,-34.198700586328477868
0.361000000000000210,-34.059987287451804150
0.362000000000000210,-33.921806205528085343
0.363000000000000211,-33.784091753367107458
0.364000000000000212,-33.646780263945416323
0.365000000000000213,-33.509810055277675644
0.366000000000000214,-33.373121487129694174
0.367000000000000215,-33.236657009921202643
0.368000000000000216,-33.100361206165082706
0.369000000000000217,-32.964180824786431856
0.370000000000000218,-32.828064808661608254
0.371000000000000218,-32.691964315712255029
0.372000000000000219,-32.555832733885011976
0.373000000000000220,-32.419625690341561608
0.374000000000000221,-32.283301055177176409
0.375000000000000222,-32.146818939979766583
0.376000000000000223,-32.010141691534116148
0.377000000000000224,-31.873233880968360410
0.378000000000000225,-31.736062288632268746
0.379000000000000226,-31.598595884988764482
0.380000000000000226,-31.460805807792148414
0.381000000000000227,-31.322665335817440280
0.382000000000000228,-31.184149859397706450
0.383000000000000229,-31.045236848016863007
0.384000000000000230,-30.905905815196870634
0.385000000000000231,-30.766138280910308112
0.386000000000000232,-30.625917731739274785
0.387000000000000233,-30.485229578994211153
0.388000000000000234,-30.344061114996613071
0.389000000000000234,-30.202401467722030048
0.390000000000000235,-30.060241553989943242
0.391000000000000236,-29.917574031380201660
0.392000000000000237,-29.774393249046358534
0.393000000000000238,-29.630695197588853063
0.394000000000000239,-29.486477458142427821
0.395000000000000240,-29.341739150824839300
0.396000000000000241,-29.196480882686206115
0.397000000000000242,-29.050704695290569646
0.398000000000000242,-28.904414012054370886
0.399000000000000243,-28.757613585459360195
0.400000000000000244,-28.610309444250191291
0.401000000000000245,-28.462508840721064018
0.402000000000000246,-28.314220198188461808
0.403000000000000247,-28.165453058741217518
0.404000000000000248,-28.016218031352991602
0.405000000000000249,-27.866526740436448506
0.406000000000000250,-27.716391774912459312
0.407000000000000250,-27.565826637862659965
0.408000000000000251,-27.414845696827889299
0.409000000000000252,-27.263464134810799777
0.410000000000000253,-27.111697902035000851
0.411000000000000254,-26.959563668509510137
0.412000000000000255,-26.807078777442200135
0.413000000000000256,-26.654261199541913641
0.414000000000000257,-26.501129488244565380
0.415000000000000258,-26.347702735895399684
0.416000000000000258,-26.194000530914884450
0.417000000000000259,-26.040042915972918536
0.418000000000000260,-25.885850347192604914
0.419000000000000261,-25.731443654401211063
0.420000000000000262,-25.576844002443568371
0.421000000000000263,-25.422072853569964934
0.422000000000000264,-25.267151930907644442
0.423000000000000265,-25.112103183023105402
0.424000000000000266,-24.956948749579652258
0.425000000000000266,-24.801710928092166597
0.426000000000000267,-24.646412141779453719
0.427000000000000268,-24.491074908512171504
0.428000000000000269,-24.335721810852710689
0.429000000000000270,-24.180375467181413285
0.430000000000000271,-24.025058503902265272
0.431000000000000272,-23.869793528719267073
0.432000000000000273,-23.714603104973750902
0.433000000000000274,-23.559509727031283433
0.434000000000000274,-23.404535796705694395
0.435000000000000275,-23.249703600706826734
0.436000000000000276,-23.095035289097531006
0.437000000000000277,-22.940552854744304057
0.438000000000000278,-22.786278113745485285
0.439000000000000279,-22.632232686820195511
0.440000000000000280,-22.478437981639956433
0.441000000000000281,-22.324915176085134760
0.442000000000000282,-22.171685202407420689
0.443000000000000282,-22.018768732278850564
0.444000000000000283,-21.866186162708110885
0.445000000000000284,-21.713957602803965585
0.446000000000000285,-21.562102861365595174
0.447000000000000286,-21.410641435279543998
0.448000000000000287,-21.259592498702364338
0.449000000000000288,-21.108974893008550566
0.450000000000000289,-20.958807117482518123
0.451000000000000290,-20.809107320733993163
0.452000000000000290,-20.659893292815830534
0.453000000000000291,-20.511182458023281328
0.454000000000000292,-20.362991868354004765
0.455000000000000293,-20.215338197608016202
0.456000000000000294,-20.068237736106965485
0.457000000000000295,-19.921706386012282053
0.458000000000000296,-19.775759657221925636
0.459000000000000297,-19.630412663825623554
0.460000000000000298,-19.485680121098653217
0.461000000000000298,-19.341576343014686756
0.462000000000000299,-19.198115240258211145
0.463000000000000300,-19.055310318717321394
0.464000000000000301,-18.913174678438320342
0.465000000000000302,-18.771721013023430658
0.466000000000000303,-18.630961609453358108
0.467000000000000304,-18.490908348316988707
0.468000000000000305,-18.351572704430587635
0.469000000000000306,-18.212965747829240826
0.470000000000000306,-18.075098145113887682
0.471000000000000307,-17.937980161137044632
0.472000000000000308,-17.801621661011630238
0.473000000000000309,-17.666032112426599099
0.474000000000000310,-17.531220588254264214
0.475000000000000311,-17.397195769434173229
0.476000000000000312,-17.263965948119064819
0.477000000000000313,-17.131539031068200529
0.478000000000000314,-16.999922543274596620
0.479000000000000314,-16.869123631812399822
0.480000000000000315,-16.739149069891212207
0.481000000000000316,-16.610005261104699770
0.482000000000000317,-16.481698243860968489
0.483000000000000318,-16.354233695982628660
0.484000000000000319,-16.227616939464937218
0.485000000000000320,-16.101852945380663584
0.486000000000000321,-15.976946338920660295
0.487000000000000322,-15.852901404559531784
0.488000000000000322,-15.729722091336146406
0.489000000000000323,-15.607412018239099183
0.490000000000000324,-15.485974479687509842
0.491000000000000325,-15.365412451097878233
0.492000000000000326,-15.245728594528069166
0.493000000000000327,-15.126925264389964099
0.494000000000000328,-15.009004513222325983
0.495000000000000329,-14.891968097516022240
0.496000000000000330,-14.775817483583949752
0.497000000000000330,-14.660553853468238472
0.498000000000000331,-14.546178110877709955
0.499000000000000332,-14.432690887148925896
0.500000000000000333,-14.320092547224117396
0.501000000000000334,-14.208383195639971319
0.502000000000000335,-14.097562682521239452
0.503000000000000336,-13.987630609573562523
0.504000000000000337,-13.878586336070023677
0.505000000000000338,-13.770428984826239116
0.506000000000000338,-13.663157448159173768
0.507000000000000339,-13.556770393824882248
0.508000000000000340,-13.451266270930727131
0.509000000000000341,-13.346643315817980024
0.510000000000000342,-13.242899557910561725
0.511000000000000343,-13.140032825526352767
0.512000000000000344,-13.038040751647304916
0.513000000000000345,-12.936920779645031843
0.514000000000000346,-12.836670168958779215
0.515000000000000346,-12.737286000722551904
0.516000000000000347,-12.638765183338723119
0.517000000000000348,-12.541104457995524868
0.518000000000000349,-12.444300404125703707
0.519000000000000350,-12.348349444804345154
0.520000000000000351,-12.253247852083427816
0.521000000000000352,-12.158991752261325558
0.522000000000000353,-12.065577131085294837
0.523000000000000353,-11.972999838885195700
0.524000000000000354,-11.881255595637108868
0.525000000000000355,-11.790339995955104513
0.526000000000000356,-11.700248514010107570
0.527000000000000357,-11.610976508374628580
0.528000000000000358,-11.522519226792121927
0.529000000000000359,-11.434871810870371078
0.530000000000000360,-11.348029300697692889
0.531000000000000361,-11.261986639381539987
0.532000000000000361,-11.176738677508685882
0.533000000000000362,-11.092280177526509632
0.534000000000000363,-11.008605818045063884
0.535000000000000364,-10.925710198059332967
0.536000000000000365,-10.843587841091700597
0.537000000000000366,-10.762233199254263027
0.538000000000000367,-10.681640657230902391
0.539000000000000368,-10.601804536179248117
0.540000000000000369,-10.522719097552329259
0.541000000000000369,-10.444378546840239252
0.542000000000000370,-10.366777037231930336
0.543000000000000371,-10.289908673197269096
0.544000000000000372,-10.213767513989829183
0.545000000000000373,-10.138347577070652150
0.546000000000000374,-10.063642841453397381
0.547000000000000375,-9.989647250971325221
0.548000000000000376,-9.916354717466713709
0.549000000000000377,-9.843759123903152997
0.550000000000000377,-9.771854327401232609
0.551000000000000378,-9.700634162198451094
0.552000000000000379,-9.630092442533866759
0.553000000000000380,-9.560222965458178734
0.554000000000000381,-9.491019513570012833
0.555000000000000382,-9.422475857679227573
0.556000000000000383,-9.354585759397812339
0.557000000000000384,-9.287342973659480805
0.558000000000000385,-9.220741251168554697
0.559000000000000385,-9.154774340779100683
0.560000000000000386,-9.089435991805187243
0.561000000000000387,-9.024719956263169252
0.562000000000000388,-8.960619991046872457
0.563000000000000389,-8.897129860036610438
0.564000000000000390,-8.834243336143034142
0.565000000000000391,-8.771954203286703944
0.566000000000000392,-8.710256258314354127
0.567000000000000393,-8.649143312852917376
0.568000000000000393,-8.588609195102092642
0.569000000000000394,-8.528647751566671431
0.570000000000000395,-8.469252848729519556
0.571000000000000396,-8.410418374666116748
0.572000000000000397,-8.352138240601869157
0.573000000000000398,-8.294406382413017198
0.574000000000000399,-8.237216762072250731
0.575000000000000400,-8.180563369039992594
0.576000000000000401,-8.124440221602373668
0.577000000000000401,-8.068841368156949301
0.578000000000000402,-8.013760888447075459
0.579000000000000403,-7.959192894746000668
0.580000000000000404,-7.905131532991747534
0.581000000000000405,-7.851570983873616960
0.582000000000000406,-7.798505463871445720
0.583000000000000407,-7.745929226248547295
0.584000000000000408,-7.693836561999337853
0.585000000000000409,-7.642221800752584393
0.586000000000000409,-7.591079311631307114
0.587000000000000410,-7.540403504070248175
0.588000000000000411,-7.490188828591854531
0.589000000000000412,-7.440429777541792689
0.590000000000000413,-7.391120885784810746
0.591000000000000414,-7.342256731361994859
0.592000000000000415,-7.293831936110289682
0.593000000000000416,-7.245841166245145182
0.594000000000000417,-7.198279132907257072
0.595000000000000417,-7.151140592674342322
0.596000000000000418,-7.104420348038560817
0.597000000000000419,-7.058113247850888783
0.598000000000000420,-7.012214187732833004
0.599000000000000421,-6.966718110456703528
0.600000000000000422,-6.921620006295026606
0.601000000000000423,-6.876914913340104185
0.602000000000000424,-6.832597917794399400
0.603000000000000425,-6.788664154232582959
0.604000000000000425,-6.745108805836109056
0.605000000000000426,-6.701927104600945206
