# Ag332_CYTOSINE
# h[nm],U(h)[kJ/mol]
0.149999999999999994,103.093390358681659791
0.150999999999999995,97.836777357375169117
0.151999999999999996,93.777416859154570261
0.152999999999999997,90.048829193625152811
0.153999999999999998,86.348972535498802472
0.154999999999999999,82.628521254865887613
0.156000000000000000,78.928846413638467538
0.157000000000000001,75.305526774933426282
0.158000000000000002,71.798322811594630366
0.159000000000000002,68.424523192177957753
0.160000000000000003,65.182552971563282540
0.161000000000000004,62.058820556038696736
0.162000000000000005,59.034380513659094447
0.163000000000000006,56.090028422879299796
0.164000000000000007,53.209526834749809154
0.165000000000000008,50.381176718008170212
0.166000000000000009,47.598141769208005769
0.167000000000000010,44.857954962990447711
0.168000000000000010,42.161578107745775412
0.169000000000000011,39.512297690425796759
0.170000000000000012,36.914651616274369417
0.171000000000000013,34.373504727025718353
0.172000000000000014,31.893330956146279220
0.173000000000000015,29.477716820827630784
0.174000000000000016,27.129072599260336318
0.175000000000000017,24.848521092042606284
0.176000000000000018,22.635926330934477591
0.177000000000000018,20.490023294729596159
0.178000000000000019,18.408612404234567350
0.179000000000000020,16.388787575193418888
0.180000000000000021,14.427172646199684536
0.181000000000000022,12.520147194284874104
0.182000000000000023,10.664048542342806414
0.183000000000000024,8.855341826670144911
0.184000000000000025,7.090754180194193346
0.185000000000000026,5.367372368082107492
0.186000000000000026,3.682705635902947527
0.187000000000000027,2.034717190676797571
0.188000000000000028,0.421828748783163676
0.189000000000000029,-1.157096925168001000
0.190000000000000030,-2.702790479229362663
0.191000000000000031,-4.215622637683265950
0.192000000000000032,-5.695658686469142751
0.193000000000000033,-7.142716942355090914
0.194000000000000034,-8.556427974553461269
0.195000000000000034,-9.936291970393623885
0.196000000000000035,-11.281732240280653912
0.197000000000000036,-12.592143416903379460
0.198000000000000037,-13.866933403836421590
0.199000000000000038,-15.105558560770237619
0.200000000000000039,-16.307551973574202719
0.201000000000000040,-17.472544948321708347
0.202000000000000041,-18.600282093250783078
0.203000000000000042,-19.690630517274556155
0.204000000000000042,-20.743583785094976690
0.205000000000000043,-21.759261334707790780
0.206000000000000044,-22.737904090670586044
0.207000000000000045,-23.679867003189244201
0.208000000000000046,-24.585609215608677403
0.209000000000000047,-25.455682517350609828
0.210000000000000048,-26.290718681076317154
0.211000000000000049,-27.091416216455019850
0.212000000000000050,-27.858527002239458881
0.213000000000000050,-28.592843186521974985
0.214000000000000051,-29.295184674563834903
0.215000000000000052,-29.966387456357246322
0.216000000000000053,-30.607292963487374493
0.217000000000000054,-31.218738587862254974
0.218000000000000055,-31.801549444049850734
0.219000000000000056,-32.356531412576480022
0.220000000000000057,-32.884465463630064619
0.221000000000000058,-33.386103229002181081
0.222000000000000058,-33.862163764494901841
0.223000000000000059,-34.313331424985662466
0.224000000000000060,-34.740254759408685459
0.225000000000000061,-35.143546322546576732
0.226000000000000062,-35.523783294183459702
0.227000000000000063,-35.881508793313557248
0.228000000000000064,-36.217233775192553935
0.229000000000000065,-36.531439401567396885
0.230000000000000066,-36.824579778948404396
0.231000000000000066,-37.097084965873101225
0.232000000000000067,-37.349364157360462002
0.233000000000000068,-37.581808962827089715
0.234000000000000069,-37.794796702328916638
0.235000000000000070,-37.988693654844780667
0.236000000000000071,-38.163858201210992149
0.237000000000000072,-38.320643813066268990
0.238000000000000073,-38.459401847625862558
0.239000000000000073,-38.580484116152661045
0.240000000000000074,-38.684245201546666237
0.241000000000000075,-38.771044507462484319
0.242000000000000076,-38.841248027747482752
0.243000000000000077,-38.895229830745719823
0.244000000000000078,-38.933373258125570260
0.245000000000000079,-38.956071842365794566
0.246000000000000080,-38.963729950891995202
0.247000000000000081,-38.956763168116317786
0.248000000000000081,-38.935598429326901737
0.249000000000000082,-38.900673922536647353
0.250000000000000111,-38.852438776072901305
0.251000000000000112,-38.791352550907959085
0.252000000000000113,-38.717884557543285950
0.253000000000000114,-38.632513017702549973
0.254000000000000115,-38.535724091209722530
0.255000000000000115,-38.428010788263065933
0.256000000000000116,-38.309871786906057878
0.257000000000000117,-38.181810174879451836
0.258000000000000118,-38.044332134246744204
0.259000000000000119,-37.897945586253683814
0.260000000000000120,-37.743158812840121641
0.261000000000000121,-37.580479070094369831
0.262000000000000122,-37.410411207754471263
0.263000000000000123,-37.233456307635847793
0.264000000000000123,-37.050110352623747190
0.265000000000000124,-36.860862936623519204
0.266000000000000125,-36.666196024634174933
0.267000000000000126,-36.466582770905596078
0.268000000000000127,-36.262486401973603733
0.269000000000000128,-36.054359170246456756
0.270000000000000129,-35.842641382747181922
0.271000000000000130,-35.627760508606790779
0.272000000000000131,-35.410130367955318320
0.273000000000000131,-35.190150403974904236
0.274000000000000132,-34.968205039063761319
0.275000000000000133,-34.744663115312427237
0.276000000000000134,-34.519877418813067038
0.277000000000000135,-34.294184286710652998
0.278000000000000136,-34.067903295356508409
0.279000000000000137,-33.841337027442321528
0.280000000000000138,-33.614770915569927467
0.281000000000000139,-33.388473159349182140
0.282000000000000139,-33.162694712808821862
0.283000000000000140,-32.937669338650401585
0.284000000000000141,-32.713613725670221299
0.285000000000000142,-32.490727665514711475
0.286000000000000143,-32.269194284818667029
0.287000000000000144,-32.049180328697858045
0.288000000000000145,-31.830836491526810050
0.289000000000000146,-31.614297790923462372
0.290000000000000147,-31.399683980883231982
0.291000000000000147,-31.187100000052019766
0.292000000000000148,-30.976636451198025668
0.293000000000000149,-30.768370108033121113
0.294000000000000150,-30.562364445642735689
0.295000000000000151,-30.358670190907808717
0.296000000000000152,-30.157325889438073574
0.297000000000000153,-29.958358485684186689
0.298000000000000154,-29.761783913051338857
0.299000000000000155,-29.567607691000027614
0.300000000000000155,-29.375825526286753586
0.301000000000000156,-29.186423915668239459
0.302000000000000157,-28.999380747565385974
0.303000000000000158,-28.814665900356025929
0.304000000000000159,-28.632241835138266595
0.305000000000000160,-28.452064180976556429
0.306000000000000161,-28.274082310811024854
0.307000000000000162,-28.098239906375134467
0.308000000000000163,-27.924475510627150499
0.309000000000000163,-27.752723066356793424
0.310000000000000164,-27.582912439779068592
0.311000000000000165,-27.414969928071684535
0.312000000000000166,-27.248818749952022245
0.313000000000000167,-27.084379518521490837
0.314000000000000168,-26.921570695731766421
0.315000000000000169,-26.760309027946561855
0.316000000000000170,-26.600509962185725499
0.317000000000000171,-26.442088042744348542
0.318000000000000171,-26.284957287979047180
0.319000000000000172,-26.129031547146542636
0.320000000000000173,-25.974224837265648347
0.321000000000000174,-25.820451660053727494
0.322000000000000175,-25.667627299062036883
0.323000000000000176,-25.515668097202063080
0.324000000000000177,-25.364491714915921250
0.325000000000000178,-25.214017369299927651
0.326000000000000179,-25.064166054540731210
0.327000000000000179,-24.914860744067745202
0.328000000000000180,-24.766026574866017995
0.329000000000000181,-24.617591014428558793
0.330000000000000182,-24.469484010857037504
0.331000000000000183,-24.321638126646696776
0.332000000000000184,-24.173988656712573686
0.333000000000000185,-24.026473731232592002
0.334000000000000186,-23.879034403897701822
0.335000000000000187,-23.731614726169873109
0.336000000000000187,-23.584161808157524831
0.337000000000000188,-23.436625866722089029
0.338000000000000189,-23.288960261432677612
0.339000000000000190,-23.141121518985102057
0.340000000000000191,-22.993069346698938205
0.341000000000000192,-22.844766635702807633
0.342000000000000193,-22.696179454410021492
0.343000000000000194,-22.547277032880415959
0.344000000000000195,-22.398031738652694145
0.345000000000000195,-22.248419044622249174
0.346000000000000196,-22.098417489525665758
0.347000000000000197,-21.948008631580776751
0.348000000000000198,-21.797176995816236911
0.349000000000000199,-21.645910015609580057
0.350000000000000200,-21.494197968937150733
0.351000000000000201,-21.342033909822529125
0.352000000000000202,-21.189413595453402195
0.353000000000000203,-21.036335409419713471
0.354000000000000203,-20.882800281508252738
0.355000000000000204,-20.728811604471207630
0.356000000000000205,-20.574375148168428495
0.357000000000000206,-20.419498971465650072
0.358000000000000207,-20.264193332252247615
0.359000000000000208,-20.108470595925648894
0.360000000000000209,-19.952345142670953493
0.361000000000000210,-19.795833273847499356
0.362000000000000210,-19.638953117776839719
0.363000000000000211,-19.481724535209899329
0.364000000000000212,-19.324169024734484168
0.365000000000000213,-19.166309628368203732
0.366000000000000214,-19.008170837566204625
0.367000000000000215,-18.849778499857603009
0.368000000000000216,-18.691159726309745537
0.369000000000000217,-18.532342800004691696
0.370000000000000218,-18.373357085698735602
0.371000000000000218,-18.214232940821553086
0.372000000000000219,-18.055001627959093469
0.373000000000000220,-17.895695228951346678
0.374000000000000221,-17.736346560724104648
0.375000000000000222,-17.576989092962268302
0.376000000000000223,-17.417656867720776148
0.377000000000000224,-17.258384421059115965
0.378000000000000225,-17.099206706774577214
0.379000000000000226,-16.940159022300129266
0.380000000000000226,-16.781276936823321222
0.381000000000000227,-16.622596221673965999
0.382000000000000228,-16.464152783019923021
0.383000000000000229,-16.305982596902584447
0.384000000000000230,-16.148121646635878790
0.385000000000000231,-15.990605862586193098
0.386000000000000232,-15.833471064343360268
0.387000000000000233,-15.676752905287106188
0.388000000000000234,-15.520486819547352653
0.389000000000000234,-15.364707971351586835
0.390000000000000235,-15.209451206747010232
0.391000000000000236,-15.054751007681153041
0.392000000000000237,-14.900641448419497337
0.393000000000000238,-14.747156154275558038
0.394000000000000239,-14.594328262624188142
0.395000000000000240,-14.442190386166435800
0.396000000000000241,-14.290774578410454509
0.397000000000000242,-14.140112301330509226
0.398000000000000242,-13.990234395163691161
0.399000000000000243,-13.841171050301273482
0.400000000000000244,-13.692951781229870889
0.401000000000000245,-13.545605402475910495
0.402000000000000246,-13.399160006504953202
0.403000000000000247,-13.253642943526182663
0.404000000000000248,-13.109080803151428540
0.405000000000000249,-12.965499397856845576
0.406000000000000250,-12.822923748194529736
0.407000000000000250,-12.681378069700993905
0.408000000000000251,-12.540885761448583580
0.409000000000000252,-12.401469396185992977
0.410000000000000253,-12.263150712013292321
0.411000000000000254,-12.125950605537489935
0.412000000000000255,-11.989889126454043478
0.413000000000000256,-11.854985473500466497
0.414000000000000257,-11.721257991727920711
0.415000000000000258,-11.588724171037588562
0.416000000000000258,-11.457400645928656147
0.417000000000000259,-11.327303196405445362
0.418000000000000260,-11.198446749991978422
0.419000000000000261,-11.070845384802593614
0.420000000000000262,-10.944512333618433786
0.421000000000000263,-10.819459988920065996
0.422000000000000264,-10.695699908827531743
0.423000000000000265,-10.573242823899935416
0.424000000000000266,-10.452098644747842116
0.425000000000000266,-10.332276470412448788
0.426000000000000267,-10.213784597466599280
0.427000000000000268,-10.096630529794021314
0.428000000000000269,-9.980820989003758470
0.429000000000000270,-9.866361925438326352
0.430000000000000271,-9.753258529734893045
0.431000000000000272,-9.641515244900011439
0.432000000000000273,-9.531135778859706420
0.433000000000000274,-9.422123117447556595
0.434000000000000274,-9.314479537794790431
0.435000000000000275,-9.208206622087484305
0.436000000000000276,-9.103305271657076148
0.437000000000000277,-8.999775721371440440
0.438000000000000278,-8.897617554295152331
0.439000000000000279,-8.796829716588515424
0.440000000000000280,-8.697410532615917234
0.441000000000000281,-8.599357720235532909
0.442000000000000282,-8.502668406243156340
0.443000000000000282,-8.407339141944152772
0.444000000000000283,-8.313365918828621304
0.445000000000000284,-8.220744184325845083
0.446000000000000285,-8.129468857615023580
0.447000000000000286,-8.039534345470666921
0.448000000000000287,-7.950934558121457663
0.449000000000000288,-7.863662925102961943
0.450000000000000289,-7.777712411085002664
0.451000000000000290,-7.693075531655788168
0.452000000000000290,-7.609744369045648327
0.453000000000000291,-7.527710587774125273
0.454000000000000292,-7.446965450205110137
0.455000000000000293,-7.367499831995418802
0.456000000000000294,-7.289304237423213984
0.457000000000000295,-7.212368814583266285
0.458000000000000296,-7.136683370437036267
0.459000000000000297,-7.062237385706143122
0.460000000000000298,-6.989020029598618677
0.461000000000000298,-6.917020174357981332
0.462000000000000299,-6.846226409625993270
0.463000000000000300,-6.776627056610398547
0.464000000000000301,-6.708210182049794135
0.465000000000000302,-6.640963611968359714
0.466000000000000303,-6.574874945213659672
0.467000000000000304,-6.509931566771385292
0.468000000000000305,-6.446120660851605066
0.469000000000000306,-6.383429223741287295
0.470000000000000306,-6.321844076418783764
0.471000000000000307,-6.261351876926031679
0.472000000000000308,-6.201939132495198237
0.473000000000000309,-6.143592211426384786
0.474000000000000310,-6.086297354713979146
0.475000000000000311,-6.030040687419274015
0.476000000000000312,-5.974808229787669234
0.477000000000000313,-5.920585908108796147
0.478000000000000314,-5.867359565318693626
0.479000000000000314,-5.815114971343215977
0.480000000000000315,-5.763837833182212655
0.481000000000000316,-5.713513804734533075
0.482000000000000317,-5.664128496363951548
0.483000000000000318,-5.615667484206563920
0.484000000000000319,-5.568116319220413502
0.485000000000000320,-5.521460535978420126
0.486000000000000321,-5.475685661205805133
0.487000000000000322,-5.430777222063555953
0.488000000000000322,-5.386720754179627590
0.489000000000000323,-5.343501809429805682
0.490000000000000324,-5.301105963470330806
0.491000000000000325,-5.259518823024562195
0.492000000000000326,-5.218726032926104708
0.493000000000000327,-5.178713282921053818
0.494000000000000328,-5.139466314232051580
0.495000000000000329,-5.100970925887081897
0.496000000000000330,-5.063212980815966269
0.497000000000000330,-5.026178411717690864
0.498000000000000331,-4.989853226701824518
0.499000000000000332,-4.954223514707287279
0.500000000000000333,-4.919275450701916519
0.501000000000000334,-4.884995300666314932
0.502000000000000335,-4.851369426365501170
0.503000000000000336,-4.818384289912055252
0.504000000000000337,-4.786026458124348792
0.505000000000000338,-4.754282606683648993
0.506000000000000338,-4.723139524093861397
0.507000000000000339,-4.692584115447666626
0.508000000000000340,-4.662603406002968853
0.509000000000000341,-4.633184544573436980
0.510000000000000342,-4.604314806737083821
0.511000000000000343,-4.575981597866727313
0.512000000000000344,-4.548172455986276397
0.513000000000000345,-4.520875054456707787
0.514000000000000346,-4.494077204495708244
0.515000000000000346,-4.467766857534810399
0.516000000000000347,-4.441932107417928322
0.517000000000000348,-4.416561192445275452
0.518000000000000349,-4.391642497266352585
0.519000000000000350,-4.367164554626008943
0.520000000000000351,-4.343116046967343991
0.521000000000000352,-4.319485807895217633
0.522000000000000353,-4.296262823504194195
0.523000000000000353,-4.273436233574599896
0.524000000000000354,-4.250995332640481017
0.525000000000000355,-4.228929570933036786
0.526000000000000356,-4.207228555203229803
0.527000000000000357,-4.185882049427138263
0.528000000000000358,-4.164879975397616008
0.529000000000000359,-4.144212413205710099
0.530000000000000360,-4.123869601615402836
0.531000000000000361,-4.103841938334985784
0.532000000000000361,-4.084119980188509302
0.533000000000000362,-4.064694443190562723
0.534000000000000363,-4.045556202527739842
0.535000000000000364,-4.026696292449887693
0.536000000000000365,-4.008105906074427516
0.537000000000000366,-3.989776395106776619
0.538000000000000367,-3.971699269479955774
0.539000000000000368,-3.953866196916403730
0.540000000000000369,-3.936269002414920060
0.541000000000000369,-3.918899667665662889
0.542000000000000370,-3.901750330396027699
0.543000000000000371,-3.884813283650172533
0.544000000000000372,-3.868080975004983824
0.545000000000000373,-3.851546005725077659
0.546000000000000374,-3.835201129859520996
0.547000000000000375,-3.819039253282775270
0.548000000000000376,-3.803053432682470536
0.549000000000000377,-3.787236874496342942
0.550000000000000377,-3.771582933800797122
0.551000000000000378,-3.756085113153458277
0.552000000000000379,-3.740737061391944618
0.553000000000000380,-3.725532572391139219
0.554000000000000381,-3.710465583781105803
0.555000000000000382,-3.695530175627835145
0.556000000000000383,-3.680720569078788085
0.557000000000000384,-3.666031124975385858
0.558000000000000385,-3.651456342434308944
0.559000000000000385,-3.636990857399599264
0.560000000000000386,-3.622629441167343423
0.561000000000000387,-3.608366998884863452
0.562000000000000388,-3.594198568026089724
0.563000000000000389,-3.580119316844857735
0.564000000000000390,-3.566124542807815878
0.565000000000000391,-3.552209671008546454
0.566000000000000392,-3.538370252564470686
0.567000000000000393,-3.524601962998068050
0.568000000000000393,-3.510900600603882538
0.569000000000000394,-3.497262084802757354
0.570000000000000395,-3.483682454484697821
0.571000000000000396,-3.470157866341660569
0.572000000000000397,-3.456684593191654109
0.573000000000000398,-3.443259022295313887
0.574000000000000399,-3.429877653666256521
0.575000000000000400,-3.416537098376340342
0.576000000000000401,-3.403234076856969104
0.577000000000000401,-3.389965417197585928
0.578000000000000402,-3.376728053442354938
0.579000000000000403,-3.363519023886086590
0.580000000000000404,-3.350335469370400610
0.581000000000000405,-3.337174631581055539
0.582000000000000406,-3.324033851347343749
0.583000000000000407,-3.310910566944490707
0.584000000000000408,-3.297802312399832569
0.585000000000000409,-3.284706715803619836
0.586000000000000409,-3.271621497625232244
0.587000000000000410,-3.258544469035531854
0.588000000000000411,-3.245473530236076876
0.589000000000000412,-3.232406668795893445
0.590000000000000413,-3.219341957996433301
0.591000000000000414,-3.206277555185387484
0.592000000000000415,-3.193211700139908960
0.593000000000000416,-3.180142713439842339
0.594000000000000417,-3.167068994851505614
0.595000000000000417,-3.153989021722535036
0.596000000000000418,-3.140901347388271869
0.597000000000000419,-3.127804599590205292
0.598000000000000420,-3.114697478906840900
0.599000000000000421,-3.101578757197505976
0.600000000000000422,-3.088447276059404611
0.601000000000000423,-3.075301945298353878
0.602000000000000424,-3.062141741413524798
0.603000000000000425,-3.048965706096551820
0.604000000000000425,-3.035772944745269708
0.605000000000000426,-3.022562624992435332
0.606000000000000427,-3.009333975249671944
0.607000000000000428,-2.996086283266854000
