# Ag332_TANNIC-ARM-NEUTRAL-AC
# h[nm],U(h)[kJ/mol]
0.149999999999999994,102.511960989563590374
0.150999999999999995,97.152204206661068042
0.151999999999999996,92.734922396441717751
0.152999999999999997,88.601575177688204121
0.153999999999999998,84.496256933588909988
0.154999999999999999,80.360979649125326318
0.156000000000000000,76.220988303956161758
0.157000000000000001,72.124736595836878905
0.158000000000000002,68.115881089370475365
0.159000000000000002,64.223102459622637639
0.160000000000000003,60.459098030193537454
0.161000000000000004,56.823657239554144383
0.162000000000000005,53.307984138853342415
0.163000000000000006,49.898815872314088438
0.164000000000000007,46.581707218575104434
0.165000000000000008,43.343313143828211764
0.166000000000000009,40.172739912316302480
0.167000000000000010,37.062139771054901871
0.168000000000000010,34.006751998978288043
0.169000000000000011,31.004580336707640242
0.170000000000000012,28.055865559450801072
0.171000000000000013,25.162475115261621283
0.172000000000000014,22.327296360929580032
0.173000000000000015,19.553689386692770569
0.174000000000000016,16.845030950496525435
0.175000000000000017,14.204362633659565418
0.176000000000000018,11.634143341163881047
0.177000000000000018,9.136097794266765604
0.178000000000000019,6.711147742541569983
0.179000000000000020,4.359410364241980140
0.180000000000000021,2.080247956668814346
0.181000000000000022,-0.127646089857511136
0.182000000000000023,-2.266138384790683080
0.183000000000000024,-4.337534999214627263
0.184000000000000025,-6.344458426495672043
0.185000000000000026,-8.289729056985951416
0.186000000000000026,-10.176256241580180273
0.187000000000000027,-12.006942317994759861
0.188000000000000028,-13.784601540921766372
0.189000000000000029,-15.511894695662116206
0.190000000000000030,-17.191279270397167522
0.191000000000000031,-18.824974390472931418
0.192000000000000032,-20.414939249059344206
0.193000000000000033,-21.962863470498053431
0.194000000000000034,-23.470167684236550087
0.195000000000000034,-24.938012539190662409
0.196000000000000035,-26.367314424355242863
0.197000000000000036,-27.758766258581381692
0.198000000000000037,-29.112861851266124802
0.199000000000000038,-30.429922500279552366
0.200000000000000039,-31.710124670974852990
0.201000000000000040,-32.953527780626991728
0.202000000000000041,-34.160101288631857130
0.203000000000000042,-35.329750458887872355
0.204000000000000042,-36.462340313346857101
0.205000000000000043,-37.557717432545238978
0.206000000000000044,-38.615729378932726945
0.207000000000000045,-39.636241621782957623
0.208000000000000046,-40.619151928836586762
0.209000000000000047,-41.564402260487845808
0.210000000000000048,-42.471988258489808743
0.211000000000000049,-43.341966464218245392
0.212000000000000050,-44.174459432996613373
0.213000000000000050,-44.969658932348878011
0.214000000000000051,-45.727827424798810796
0.215000000000000052,-46.449298041369338819
0.216000000000000053,-47.134473251559157347
0.217000000000000054,-47.783822430469577114
0.218000000000000055,-48.397878514981940157
0.219000000000000056,-48.977233929374293098
0.220000000000000057,-49.522535947328471195
0.221000000000000058,-50.034481642590371564
0.222000000000000058,-50.513812565197945048
0.223000000000000059,-50.961309264641890593
0.224000000000000060,-51.377785765964247844
0.225000000000000061,-51.764084089925958665
0.226000000000000062,-52.121068894213252065
0.227000000000000063,-52.449622299371831957
0.228000000000000064,-52.750638950869266353
0.229000000000000065,-53.025021357460971672
0.230000000000000066,-53.273675535901965361
0.231000000000000066,-53.497506983013899173
0.232000000000000067,-53.697416988158522599
0.233000000000000068,-53.874299292249361315
0.234000000000000069,-54.029037093499177047
0.235000000000000070,-54.162500395090170002
0.236000000000000071,-54.275543685795469173
0.237000000000000072,-54.369003941207424191
0.238000000000000073,-54.443698930560614713
0.239000000000000073,-54.500425812104346335
0.240000000000000074,-54.539959998511349681
0.241000000000000075,-54.563054272832495428
0.242000000000000076,-54.570438134958990872
0.243000000000000077,-54.562817358373671084
0.244000000000000078,-54.540873737101627228
0.245000000000000079,-54.505265003157376213
0.246000000000000080,-54.456624895384436513
0.247000000000000081,-54.395563361349204001
0.248000000000000081,-54.322666874847740814
0.249000000000000082,-54.238498852577095022
0.250000000000000111,-54.143600154584461848
0.251000000000000112,-54.038489654208675006
0.252000000000000113,-53.923664864353824555
0.253000000000000114,-53.799602608056702024
0.254000000000000115,-53.666759722423158507
0.255000000000000115,-53.525573786091186435
0.256000000000000116,-53.376463861427353663
0.257000000000000117,-53.219831243666909870
0.258000000000000118,-53.056060210158840107
0.259000000000000119,-52.885518763776040885
0.260000000000000120,-52.708559365389660911
0.261000000000000121,-52.525519651085502915
0.262000000000000122,-52.336723130520354630
0.263000000000000123,-52.142479863474022750
0.264000000000000123,-51.943087112253671478
0.265000000000000124,-51.738829968147811655
0.266000000000000125,-51.529981950615685093
0.267000000000000126,-51.316805578329805826
0.268000000000000127,-51.099552911573965730
0.269000000000000128,-50.878466065834565768
0.270000000000000129,-50.653777696715117429
0.271000000000000130,-50.425711456553955259
0.272000000000000131,-50.194482423338364185
0.273000000000000131,-49.960297502685406812
0.274000000000000132,-49.723355803805432629
0.275000000000000133,-49.483848990481632768
0.276000000000000134,-49.241961608188766775
0.277000000000000135,-48.997871388542328930
0.278000000000000136,-48.751749532315280078
0.279000000000000137,-48.503760972287714992
0.280000000000000138,-48.254064617207220067
0.281000000000000139,-48.002813578134812644
0.282000000000000139,-47.750155378437909803
0.283000000000000140,-47.496232148667345996
0.284000000000000141,-47.241180807522027862
0.285000000000000142,-46.985133230065230237
0.286000000000000143,-46.728216404310700227
0.287000000000000144,-46.470552577245811676
0.288000000000000145,-46.212259391306155010
0.289000000000000146,-45.953450012258947766
0.290000000000000147,-45.694233249395196594
0.291000000000000147,-45.434713668871999914
0.292000000000000148,-45.174991700987320087
0.293000000000000149,-44.915163742111538170
0.294000000000000150,-44.655322251942038747
0.295000000000000151,-44.395555846691777901
0.296000000000000152,-44.135949388767230062
0.297000000000000153,-43.876584073439481415
0.298000000000000154,-43.617537512960907975
0.299000000000000155,-43.358883818532632404
0.300000000000000155,-43.100693680481569459
0.301000000000000156,-42.843034446963415007
0.302000000000000157,-42.585970201466572860
0.303000000000000158,-42.329561839355491770
0.304000000000000159,-42.073867143655157008
0.305000000000000160,-41.818940860247046487
0.306000000000000161,-41.564834772616080727
0.307000000000000162,-41.311597776260988724
0.308000000000000163,-41.059275952854960678
0.309000000000000163,-40.807912644220998288
0.310000000000000164,-40.557548526165717817
0.311000000000000165,-40.308221682196673896
0.312000000000000166,-40.059967677132519270
0.313000000000000167,-39.812819630600188248
0.314000000000000168,-39.566808290400928172
0.315000000000000169,-39.321962105716359304
0.316000000000000170,-39.078307300115909584
0.317000000000000171,-38.835867944319474532
0.318000000000000171,-38.594666028662381052
0.319000000000000172,-38.354721535204816973
0.320000000000000173,-38.116052509423724359
0.321000000000000174,-37.878675131421786659
0.322000000000000175,-37.642603786586690262
0.323000000000000176,-37.407851135632469664
0.324000000000000177,-37.174428183953935445
0.325000000000000178,-36.942344350226150596
0.326000000000000179,-36.711607534181588619
0.327000000000000179,-36.482224183498885850
0.328000000000000180,-36.254199359739388342
0.329000000000000181,-36.027536803270123755
0.330000000000000182,-35.802238997113953189
0.331000000000000183,-35.578307229671786160
0.332000000000000184,-35.355741656263752759
0.333000000000000185,-35.134541359440817132
0.334000000000000186,-34.914704408021250970
0.335000000000000187,-34.696227914810286563
0.336000000000000187,-34.479108092965482513
0.337000000000000188,-34.263340310973383396
0.338000000000000189,-34.048919146208007191
0.339000000000000190,-33.835838437044557736
0.340000000000000191,-33.624091333505951695
0.341000000000000192,-33.413670346424297009
0.342000000000000193,-33.204567395101420857
0.343000000000000194,-32.996773853458115866
0.344000000000000195,-32.790280594663684610
0.345000000000000195,-32.585078034241810485
0.346000000000000196,-32.381156171651426234
0.347000000000000197,-32.178504630344562543
0.348000000000000198,-31.977112696306402739
0.349000000000000199,-31.776969355084766278
0.350000000000000200,-31.578063327320261777
0.351000000000000201,-31.380383102789512151
0.352000000000000202,-31.183916972976891913
0.353000000000000203,-30.988653062192675236
0.354000000000000203,-30.794579357256971264
0.355000000000000204,-30.601683735770865979
0.356000000000000205,-30.409953992998378425
0.357000000000000206,-30.219377867384025649
0.358000000000000207,-30.029943064732027125
0.359000000000000208,-29.841637281075328758
0.360000000000000209,-29.654448224262967670
0.361000000000000210,-29.468363634295638320
0.362000000000000210,-29.283371302440535544
0.363000000000000211,-29.099459089156670899
0.364000000000000212,-28.916614940863411221
0.365000000000000213,-28.734826905584515799
0.366000000000000214,-28.554083147501518880
0.367000000000000215,-28.374371960449472851
0.368000000000000216,-28.195681780389474369
0.369000000000000217,-28.018001196891599847
0.370000000000000218,-27.841318963662530450
0.371000000000000218,-27.665624008151819879
0.372000000000000219,-27.490905440270875459
0.373000000000000220,-27.317152560258421090
0.374000000000000221,-27.144354865726011639
0.375000000000000222,-26.972502057916948104
0.376000000000000223,-26.801584047211413520
0.377000000000000224,-26.631590957910525219
0.378000000000000225,-26.462513132331231702
0.379000000000000226,-26.294341134243676805
0.380000000000000226,-26.127065751682330585
0.381000000000000227,-25.960677999160793661
0.382000000000000228,-25.795169119320899398
0.383000000000000229,-25.630530584044699083
0.384000000000000230,-25.466754095058291796
0.385000000000000231,-25.303831584055352266
0.386000000000000232,-25.141755212367492334
0.387000000000000233,-24.980517370207973471
0.388000000000000234,-24.820110675514477805
0.389000000000000234,-24.660527972416378617
0.390000000000000235,-24.501762329349997316
0.391000000000000236,-24.343807036846335734
0.392000000000000237,-24.186655605013221759
0.393000000000000238,-24.030301760734584349
0.394000000000000239,-23.874739444607651961
0.395000000000000240,-23.719962807638800939
0.396000000000000241,-23.565966207717909953
0.397000000000000242,-23.412744205890028582
0.398000000000000242,-23.260291562442919400
0.399000000000000243,-23.108603232827825025
0.400000000000000244,-22.957674363430353282
0.401000000000000245,-22.807500287207822964
0.402000000000000246,-22.658076519208282917
0.403000000000000247,-22.509398751985933984
0.404000000000000248,-22.361462850927360080
0.405000000000000249,-22.214264849501581978
0.406000000000000250,-22.067800944447093059
0.407000000000000250,-21.922067490907728882
0.408000000000000251,-21.777060997529062547
0.409000000000000252,-21.632778121526321513
0.410000000000000253,-21.489215663733894246
0.411000000000000254,-21.346370563646605234
0.412000000000000255,-21.204239894461590410
0.413000000000000256,-21.062820858129860824
0.414000000000000257,-20.922110780425267507
0.415000000000000258,-20.782107106038981925
0.416000000000000258,-20.642807393706398500
0.417000000000000259,-20.504209311373173819
0.418000000000000260,-20.366310631406868481
0.419000000000000261,-20.229109225859666310
0.420000000000000262,-20.092603061787848162
0.421000000000000263,-19.956790196632976375
0.422000000000000264,-19.821668773669092189
0.423000000000000265,-19.687237017520480720
0.424000000000000266,-19.553493229753733829
0.425000000000000266,-19.420435784547528613
0.426000000000000267,-19.288063124443404206
0.427000000000000268,-19.156373756180308021
0.428000000000000269,-19.025366246615586618
0.429000000000000270,-18.895039218734495989
0.430000000000000271,-18.765391347750416173
0.431000000000000272,-18.636421357297354717
0.432000000000000273,-18.508128015716195591
0.433000000000000274,-18.380510132436135962
0.434000000000000274,-18.253566554451971626
0.435000000000000275,-18.127296162898350218
0.436000000000000276,-18.001697869721475342
0.437000000000000277,-17.876770614448478369
0.438000000000000278,-17.752513361054944596
0.439000000000000279,-17.628925094930593787
0.440000000000000280,-17.506004819942738493
0.441000000000000281,-17.383751555597644511
0.442000000000000282,-17.262164334299093582
0.443000000000000282,-17.141242198703771749
0.444000000000000283,-17.020984199172669804
0.445000000000000284,-16.901389391317991340
0.446000000000000285,-16.782456833644260996
0.447000000000000286,-16.664185585283174618
0.448000000000000287,-16.546574703820574825
0.449000000000000288,-16.429623243214869888
0.450000000000000289,-16.313330251805293614
0.451000000000000290,-16.197694770408933351
0.452000000000000290,-16.082715830505030397
0.453000000000000291,-15.968392452505137058
0.454000000000000292,-15.854723644107744818
0.455000000000000293,-15.741708398735628549
0.456000000000000294,-15.629345694054586957
0.457000000000000295,-15.517634490571790451
0.458000000000000296,-15.406573730312112858
0.459000000000000297,-15.296162335570866020
0.460000000000000298,-15.186399207741107631
0.461000000000000298,-15.077283226213856082
0.462000000000000299,-14.968813247349563866
0.463000000000000300,-14.860988103518881331
0.464000000000000301,-14.753806602211167132
0.465000000000000302,-14.647267525208917505
0.466000000000000303,-14.541369627826236766
0.467000000000000304,-14.436111638209704111
0.468000000000000305,-14.331492256699865706
0.469000000000000306,-14.227510155251454904
0.470000000000000306,-14.124163976910832474
0.471000000000000307,-14.021452335348561391
0.472000000000000308,-13.919373814445753723
0.473000000000000309,-13.817926967932169902
0.474000000000000310,-13.717110319074507174
0.475000000000000311,-13.616922360413159510
0.476000000000000312,-13.517361553545859110
0.477000000000000313,-13.418426328956325477
0.478000000000000314,-13.320115085886550688
0.479000000000000314,-13.222426192250964050
0.480000000000000315,-13.125357984590909410
0.481000000000000316,-13.028908768067950064
0.482000000000000317,-12.933076816494331496
0.483000000000000318,-12.837860372399253706
0.484000000000000319,-12.743257647129293986
0.485000000000000320,-12.649266820981733161
0.486000000000000321,-12.555886043369163474
0.487000000000000322,-12.463113433014086695
0.488000000000000322,-12.370947078172083167
0.489000000000000323,-12.279385036882285220
0.490000000000000324,-12.188425337243732116
0.491000000000000325,-12.098065977716462527
0.492000000000000326,-12.008304927445911048
0.493000000000000327,-11.919140126609558905
0.494000000000000328,-11.830569486784545674
0.495000000000000329,-11.742590891335147774
0.496000000000000330,-11.655202195818871402
0.497000000000000330,-11.568401228410211345
0.498000000000000331,-11.482185790340864173
0.499000000000000332,-11.396553656355465023
0.500000000000000333,-11.311502575181725305
0.501000000000000334,-11.227030270014079605
0.502000000000000335,-11.143134439009759973
0.503000000000000336,-11.059812755796604833
0.504000000000000337,-10.977062869991364380
0.505000000000000338,-10.894882407727926932
0.506000000000000338,-10.813268972194473250
0.507000000000000339,-10.732220144178745258
0.508000000000000340,-10.651733482620684867
0.509000000000000341,-10.571806525171675517
0.510000000000000342,-10.492436788759581745
0.511000000000000343,-10.413621770158956181
0.512000000000000344,-10.335358946565657234
0.513000000000000345,-10.257645776175262853
0.514000000000000346,-10.180479698764621332
0.515000000000000346,-10.103858136275954749
0.516000000000000347,-10.027778493402774274
0.517000000000000348,-9.952238158177383553
0.518000000000000349,-9.877234502558929208
0.519000000000000350,-9.802764883021952258
0.520000000000000351,-9.728826641144635801
0.521000000000000352,-9.655417104196372335
0.522000000000000353,-9.582533585724201330
0.523000000000000353,-9.510173386137585894
0.524000000000000354,-9.438333793291301177
0.525000000000000355,-9.367012083065743511
0.526000000000000356,-9.296205519944571449
0.527000000000000357,-9.225911357589124506
0.528000000000000358,-9.156126839409321150
0.529000000000000359,-9.086849199130726973
0.530000000000000360,-9.018075661357473294
0.531000000000000361,-8.949803442130717102
0.532000000000000361,-8.882029749482347469
0.533000000000000362,-8.814751783983712841
0.534000000000000363,-8.747966739289111615
0.535000000000000364,-8.681671802673747607
0.536000000000000365,-8.615864155566013594
0.537000000000000366,-8.550540974073886247
0.538000000000000367,-8.485699429505107361
0.539000000000000368,-8.421336688881222443
0.540000000000000369,-8.357449915445000599
0.541000000000000369,-8.294036269161368935
0.542000000000000370,-8.231092907211499110
0.543000000000000371,-8.168616984480019383
0.544000000000000372,-8.106605654035215380
0.545000000000000373,-8.045056067602109451
0.546000000000000374,-7.983965376028246297
0.547000000000000375,-7.923330729742187550
0.548000000000000376,-7.863149279204622033
0.549000000000000377,-7.803418175351960251
0.550000000000000377,-7.744134570032343845
0.551000000000000378,-7.685295616434103749
0.552000000000000379,-7.626898469506533829
0.553000000000000380,-7.568940286372985327
0.554000000000000381,-7.511418226736168435
0.555000000000000382,-7.454329453275827966
0.556000000000000383,-7.397671132038470709
0.557000000000000384,-7.341440432819460682
0.558000000000000385,-7.285634529537214910
0.559000000000000385,-7.230250600599665844
0.560000000000000386,-7.175285829262899817
0.561000000000000387,-7.120737403982035474
0.562000000000000388,-7.066602518754343976
0.563000000000000389,-7.012878373454627834
0.564000000000000390,-6.959562174162863712
0.565000000000000391,-6.906651133484215777
0.566000000000000392,-6.854142470861349423
0.567000000000000393,-6.802033412879202601
0.568000000000000393,-6.750321193562122346
0.569000000000000394,-6.699003054663532630
0.570000000000000395,-6.648076245948170815
0.571000000000000396,-6.597538025466823441
0.572000000000000397,-6.547385659823814485
0.573000000000000398,-6.497616424437120841
0.574000000000000399,-6.448227603791340634
0.575000000000000400,-6.399216491683421104
0.576000000000000401,-6.350580391461344121
0.577000000000000401,-6.302316616255806636
0.578000000000000402,-6.254422489204900515
0.579000000000000403,-6.206895343671955168
0.580000000000000404,-6.159732523456588282
0.581000000000000405,-6.112931382999037488
0.582000000000000406,-6.066489287577835121
0.583000000000000407,-6.020403613500946882
0.584000000000000408,-5.974671748290454332
0.585000000000000409,-5.929291090860822955
0.586000000000000409,-5.884259051690873932
0.587000000000000410,-5.839573052989566193
0.588000000000000411,-5.795230528855632279
0.589000000000000412,-5.751228925431176364
0.590000000000000413,-5.707565701049315265
0.591000000000000414,-5.664238326375986787
0.592000000000000415,-5.621244284545975134
0.593000000000000416,-5.578581071293238658
0.594000000000000417,-5.536246195075659848
0.595000000000000417,-5.494237177194347233
0.596000000000000418,-5.452551551907417249
0.597000000000000419,-5.411186866538613138
0.598000000000000420,-5.370140681580546804
0.599000000000000421,-5.329410570792940227
0.600000000000000422,-5.288994121295729656
0.601000000000000423,-5.248888933657285705
0.602000000000000424,-5.209092621977744031
0.603000000000000425,-5.169602813967570043
0.604000000000000425,-5.130417151021465116
0.605000000000000426,-5.091533288287652503
