# ZnS-sphalerite-110-coated_CS-1143-AC
# h[nm],U(h)[kJ/mol]
0.149999999999999994,87.776474212590954949
0.150999999999999995,86.193295417062316233
0.151999999999999996,84.619895651592798913
0.152999999999999997,83.091529728217366824
0.153999999999999998,81.610606944292442222
0.154999999999999999,80.167497571814962498
0.156000000000000000,78.750727923128067687
0.157000000000000001,77.351235480723147475
0.158000000000000002,75.963509000263528037
0.159000000000000002,74.585264666640227915
0.160000000000000003,73.216578116765305140
0.161000000000000004,71.858948276854732740
0.162000000000000005,70.514508808316733735
0.163000000000000006,69.185457933888272919
0.164000000000000007,67.873702719899284830
0.165000000000000008,66.580680689348071155
0.166000000000000009,65.307311728164989972
0.167000000000000010,64.054035406265853680
0.168000000000000010,62.820896379481624194
0.169000000000000011,61.607649668172200563
0.170000000000000012,60.413866320267615606
0.171000000000000013,59.239027342600387271
0.172000000000000014,58.082599533835967520
0.173000000000000015,56.944091022967924687
0.174000000000000016,55.823087119229363395
0.175000000000000017,54.719268780360515336
0.176000000000000018,53.632416874542272467
0.177000000000000018,52.562405686016802520
0.178000000000000019,51.509188993702352377
0.179000000000000020,50.472781691470530063
0.180000000000000021,49.453239434296996535
0.181000000000000022,48.450638268635252359
0.182000000000000023,47.465055693208299203
0.183000000000000024,46.496554131913327979
0.184000000000000025,45.545167401893039028
0.185000000000000026,44.610890434035873398
0.186000000000000026,43.693672249642141026
0.187000000000000027,42.793412010362018805
0.188000000000000028,41.909957830714901661
0.189000000000000029,41.043107964272692811
0.190000000000000030,40.192613936500542593
0.191000000000000031,39.358185190354390670
0.192000000000000032,38.539494826983073494
0.193000000000000033,37.736186056302997827
0.194000000000000034,36.947879014985495871
0.195000000000000034,36.174177657814844622
0.196000000000000035,35.414676478766551782
0.197000000000000036,34.668966867763494122
0.198000000000000037,33.936642955917569964
0.199000000000000038,33.217306844838311974
0.200000000000000039,32.510573153496970633
0.201000000000000040,31.816072848798732764
0.202000000000000041,31.133456353381085080
0.203000000000000042,30.462395946394202895
0.204000000000000042,29.802587490464180320
0.205000000000000043,29.153751531131071317
0.206000000000000044,28.515633824282929254
0.207000000000000045,27.888005352997566888
0.208000000000000046,27.270661898265263545
0.209000000000000047,26.663423228796705899
0.210000000000000048,26.066131973973359237
0.211000000000000049,25.478652241393913158
0.212000000000000050,24.900868036773772474
0.213000000000000050,24.332681539489367850
0.214000000000000051,23.774011282097085029
0.215000000000000052,23.224790276926448485
0.216000000000000053,22.684964127536815681
0.217000000000000054,22.154489157584585257
0.218000000000000055,21.633330584589881340
0.219000000000000056,21.121460761305201004
0.220000000000000057,20.618857502932296910
0.221000000000000058,20.125502514352216821
0.222000000000000058,19.641379927843903630
0.223000000000000059,19.166474958482282887
0.224000000000000060,18.700772681520781759
0.225000000000000061,18.244256933565317524
0.226000000000000062,17.796909337217563518
0.227000000000000063,17.358708447082037196
0.228000000000000064,16.929629013567634388
0.229000000000000065,16.509641359740328426
0.230000000000000066,16.098710865573259809
0.231000000000000066,15.696797553261223612
0.232000000000000067,15.303855766793503790
0.233000000000000068,14.919833938682490526
0.234000000000000069,14.544674436602040402
0.235000000000000070,14.178313482673953416
0.236000000000000071,13.820681138233382512
0.237000000000000072,13.471701347081992850
0.238000000000000073,13.131292030486738653
0.239000000000000073,12.799365227484809537
0.240000000000000074,12.475827274396912969
0.241000000000000075,12.160579017822506387
0.242000000000000076,11.853516055778840155
0.243000000000000077,11.554529002043102182
0.244000000000000078,11.263503769156629986
0.245000000000000079,10.980321865945040116
0.246000000000000080,10.704860705794564169
0.247000000000000081,10.436993922297299164
0.248000000000000081,10.176591689235545246
0.249000000000000082,9.923521042214073162
0.250000000000000111,9.677646199568032515
0.251000000000000112,9.438828880472938110
0.252000000000000113,9.206928618459581770
0.253000000000000114,8.981803068793412947
0.254000000000000115,8.763308308411881242
0.255000000000000115,8.551299127327892435
0.256000000000000116,8.345629310601578865
0.257000000000000117,8.146151910157790610
0.258000000000000118,7.952719505884208395
0.259000000000000119,7.765184455584981826
0.260000000000000120,7.583399133489102439
0.261000000000000121,7.407216157122542555
0.262000000000000122,7.236488602448761576
0.263000000000000123,7.071070207266056507
0.264000000000000123,6.910815562921655442
0.265000000000000124,6.755580294464538227
0.266000000000000125,6.605221229410688011
0.267000000000000126,6.459596555338608326
0.268000000000000127,6.318565966568621128
0.269000000000000128,6.181990800209296033
0.270000000000000129,6.049734161877545091
0.271000000000000130,5.921661041417090487
0.272000000000000131,5.797638418953750872
0.273000000000000131,5.677535361635352551
0.274000000000000132,5.561223111410344089
0.275000000000000133,5.448575164202123844
0.276000000000000134,5.339467340836758780
0.277000000000000135,5.233777850080187477
0.278000000000000136,5.131387344137538165
0.279000000000000137,5.032178966962278288
0.280000000000000138,4.936038395716943583
0.281000000000000139,4.842853875719887569
0.282000000000000139,4.752516249204797205
0.283000000000000140,4.664918978211114009
0.284000000000000141,4.579958161914660764
0.285000000000000142,4.497532548698521815
0.286000000000000143,4.417543543254766725
0.287000000000000144,4.339895208998195919
0.288000000000000145,4.264494266063532102
0.289000000000000146,4.191250085148227278
0.290000000000000147,4.120074677453387402
0.291000000000000147,4.050882680966286564
0.292000000000000148,3.983591343318545253
0.293000000000000149,3.918120501445406578
0.294000000000000150,3.854392558262683899
0.295000000000000151,3.792332456569444954
0.296000000000000152,3.731867650376415213
0.297000000000000153,3.672928073851867481
0.298000000000000154,3.615446108069181097
0.299000000000000155,3.559356545732599297
0.300000000000000155,3.504596554050465329
0.301000000000000156,3.451105635918182202
0.302000000000000157,3.398825589566238481
0.303000000000000158,3.347700466822085552
0.304000000000000159,3.297676530128159644
0.305000000000000160,3.248702208452245888
0.306000000000000161,3.200728052220277675
0.307000000000000162,3.153706687395849695
0.308000000000000163,3.107592768825118590
0.309000000000000163,3.062342932960286479
0.310000000000000164,3.017915750069504188
0.311000000000000165,2.974271676035950662
0.312000000000000166,2.931373003843814828
0.313000000000000167,2.889183814844054954
0.314000000000000168,2.847669929888145823
0.315000000000000169,2.806798860413439289
0.316000000000000170,2.766539759559297984
0.317000000000000171,2.726863373388888068
0.318000000000000171,2.687741992287439263
0.319000000000000172,2.649149402603470538
0.320000000000000173,2.611060838595846256
0.321000000000000174,2.573452934745513510
0.322000000000000175,2.536303678487138669
0.323000000000000176,2.499592363412253437
0.324000000000000177,2.463299542992062996
0.325000000000000178,2.427406984864718176
0.326000000000000179,2.391897625728491406
0.327000000000000179,2.356755526879280360
0.328000000000000180,2.321965830427751953
0.329000000000000181,2.287514716228401745
0.330000000000000182,2.253389359550187265
0.331000000000000183,2.219577889515358837
0.332000000000000184,2.186069348330732964
0.333000000000000185,2.152853651332959029
0.334000000000000186,2.119921547866900902
0.335000000000000187,2.087264583013971997
0.336000000000000187,2.054875060184895297
0.337000000000000188,2.022746004589370816
0.338000000000000189,1.990871127592852785
0.339000000000000190,1.959244791968824062
0.340000000000000191,1.927861978053052594
0.341000000000000192,1.896718250804405148
0.342000000000000193,1.865809727775240123
0.343000000000000194,1.835133047992604016
0.344000000000000195,1.804685341750153160
0.345000000000000195,1.774464201308946887
0.346000000000000196,1.744467652504207766
0.347000000000000197,1.714694127253594713
0.348000000000000198,1.685142436961449608
0.349000000000000199,1.655811746812300145
0.350000000000000200,1.626701550945786945
0.351000000000000201,1.597811648504232185
0.352000000000000202,1.569142120543125740
0.353000000000000203,1.540693307793893796
0.354000000000000203,1.512465789267562144
0.355000000000000204,1.484460361687181207
0.356000000000000205,1.456678019736194818
0.357000000000000206,1.429119937109244454
0.358000000000000207,1.401787448351522247
0.359000000000000208,1.374682031472091115
0.360000000000000209,1.347805291316175769
0.361000000000000210,1.321158943681169928
0.362000000000000210,1.294744800160518627
0.363000000000000211,1.268564753699521708
0.364000000000000212,1.242620764846718906
0.365000000000000213,1.216914848684358841
0.366000000000000214,1.191449062421244820
0.367000000000000215,1.166225493631133592
0.368000000000000216,1.141246249119665546
0.369000000000000217,1.116513444402919220
0.370000000000000218,1.092029193780408081
0.371000000000000218,1.067795600985551374
0.372000000000000219,1.043814750396509394
0.373000000000000220,1.020088698790386106
0.374000000000000221,0.996619467623902411
0.375000000000000222,0.973409035823734170
0.376000000000000223,0.950459333069721302
0.377000000000000224,0.927772233554496006
0.378000000000000225,0.905349550203056408
0.379000000000000226,0.883193029336135083
0.380000000000000226,0.861304345761252699
0.381000000000000227,0.839685098275768205
0.382000000000000228,0.818336805566246661
0.383000000000000229,0.797260902488859169
0.384000000000000230,0.776458736715755049
0.385000000000000231,0.755931565732499755
0.386000000000000232,0.735680554172141621
0.387000000000000233,0.715706771471531278
0.388000000000000234,0.696011189836031052
0.389000000000000234,0.676594682498809386
0.390000000000000235,0.657458022261450337
0.391000000000000236,0.638601880302718028
0.392000000000000237,0.620026825242776414
0.393000000000000238,0.601733322450340613
0.394000000000000239,0.583721733580696567
0.395000000000000240,0.565992316332709744
0.396000000000000241,0.548545224413344856
0.397000000000000242,0.531380507698509974
0.398000000000000242,0.514498112579342526
0.399000000000000243,0.497897882483414211
0.400000000000000244,0.481579558560609189
0.401000000000000245,0.465542780523717947
0.402000000000000246,0.449787087634227478
0.403000000000000247,0.434311919823921699
0.404000000000000248,0.419116618943360497
0.405000000000000249,0.404200430128511479
0.406000000000000250,0.389562503277197436
0.407000000000000250,0.375201894627213317
0.408000000000000251,0.361117568428356683
0.409000000000000252,0.347308398700845067
0.410000000000000253,0.333773171072890951
0.411000000000000254,0.320510584690491984
0.412000000000000255,0.307519254192764879
0.413000000000000256,0.294797711746381197
0.414000000000000257,0.282344409133027774
0.415000000000000258,0.270157719883908687
0.416000000000000258,0.258235941455749463
0.417000000000000259,0.246577297442831800
0.418000000000000260,0.235179939819960188
0.419000000000000261,0.224041951211410406
0.420000000000000262,0.213161347181204969
0.421000000000000263,0.202536078540190623
0.422000000000000264,0.192164033665757572
0.423000000000000265,0.182043040830082242
0.424000000000000266,0.172170870533086440
0.425000000000000266,0.162545237836509759
0.426000000000000267,0.153163804695604450
0.427000000000000268,0.144024182285239444
0.428000000000000269,0.135123933317329387
0.429000000000000270,0.126460574346683174
0.430000000000000271,0.118031578062575443
0.431000000000000272,0.109834375563446954
0.432000000000000273,0.101866358612376209
0.433000000000000274,0.094124881871039179
0.434000000000000274,0.086607265110079726
0.435000000000000275,0.079310795393947406
0.436000000000000276,0.072232729238354929
0.437000000000000277,0.065370294738716250
0.438000000000000278,0.058720693667982091
0.439000000000000279,0.052281103542450677
0.440000000000000280,0.046048679654242530
0.441000000000000281,0.040020557069263683
0.442000000000000282,0.034193852589506246
0.443000000000000282,0.028565666678795853
0.444000000000000283,0.023133085351007131
0.445000000000000284,0.017893182020030363
0.446000000000000285,0.012843019310772075
0.447000000000000286,0.007979650830536044
0.448000000000000287,0.003300122900358282
0.449000000000000288,-0.001198523754250669
0.450000000000000289,-0.005519252353465465
0.451000000000000290,-0.009665028454500391
0.452000000000000290,-0.013638818384440476
0.453000000000000291,-0.017443587714633547
0.454000000000000292,-0.021082299776816259
0.455000000000000293,-0.024557914220957190
0.456000000000000294,-0.027873385614838188
0.457000000000000295,-0.031031662085298971
0.458000000000000296,-0.034035684001006851
0.459000000000000297,-0.036888382696620516
0.460000000000000298,-0.039592679238114006
0.461000000000000298,-0.042151483229017073
0.462000000000000299,-0.044567691657300214
0.463000000000000300,-0.046844187782542422
0.464000000000000301,-0.048983840063063645
0.465000000000000302,-0.050989501122604516
0.466000000000000303,-0.052864006756138560
0.467000000000000304,-0.054610174974372948
0.468000000000000305,-0.056230805086461277
0.469000000000000306,-0.057728676820422375
0.470000000000000306,-0.059106549480783421
0.471000000000000307,-0.060367161142840596
0.472000000000000308,-0.061513227883054175
0.473000000000000309,-0.062547443044964360
0.474000000000000310,-0.063472476540037265
0.475000000000000311,-0.064290974182863142
0.476000000000000312,-0.065005557060081195
0.477000000000000313,-0.065618820932411254
0.478000000000000314,-0.066133335669139065
0.479000000000000314,-0.066551644714466063
0.480000000000000315,-0.066876264585011530
0.481000000000000316,-0.067109684397874764
0.482000000000000317,-0.067254365428550941
0.483000000000000318,-0.067312740698079132
0.484000000000000319,-0.067287214588732255
0.485000000000000320,-0.067180162487597617
0.486000000000000321,-0.066993930457389800
0.487000000000000322,-0.066730834933814792
0.488000000000000322,-0.066393162448818627
0.489000000000000323,-0.065983169379090253
0.490000000000000324,-0.065503081719125514
0.491000000000000325,-0.064955094878211828
0.492000000000000326,-0.064341373500663934
0.493000000000000327,-0.063664051308698344
0.494000000000000328,-0.062925230967252860
0.495000000000000329,-0.062126983970165028
0.496000000000000330,-0.061271350547015581
0.497000000000000330,-0.060360339590094861
0.498000000000000331,-0.059395928600762371
0.499000000000000332,-0.058380063654694322
0.500000000000000333,-0.057314659385349562
0.501000000000000334,-0.056201598985061052
0.502000000000000335,-0.055042734223186687
0.503000000000000336,-0.053839885480720009
0.504000000000000337,-0.052594841800795503
0.505000000000000338,-0.051309360954510955
0.506000000000000338,-0.049985169521530495
0.507000000000000339,-0.048623962984908210
0.508000000000000340,-0.047227405839584513
0.509000000000000341,-0.045797131714069919
0.510000000000000342,-0.044334743504733501
0.511000000000000343,-0.042841813522252400
0.512000000000000344,-0.041319883649666010
0.513000000000000345,-0.039770465511578167
0.514000000000000346,-0.038195040654038892
0.515000000000000346,-0.036595060734588847
0.516000000000000347,-0.034971947722039841
0.517000000000000348,-0.033327094105558806
0.518000000000000349,-0.031661863112551855
0.519000000000000350,-0.029977588934991896
0.520000000000000351,-0.028275576963701865
0.521000000000000352,-0.026557104030248312
0.522000000000000353,-0.024823418655973838
0.523000000000000353,-0.023075741307834095
0.524000000000000354,-0.021315264660634204
0.525000000000000355,-0.019543153865286177
0.526000000000000356,-0.017760546822728363
0.527000000000000357,-0.015968554463173044
0.528000000000000358,-0.014168261030302753
0.529000000000000359,-0.012360724370115150
0.530000000000000360,-0.010546976224056915
0.531000000000000361,-0.008728022526168755
0.532000000000000361,-0.006904843703894792
0.533000000000000362,-0.005078394982288947
0.534000000000000363,-0.003249606691300433
0.535000000000000364,-0.001419384575891169
0.536000000000000365,0.000411389891329716
0.537000000000000366,0.002241859195174833
0.538000000000000367,0.004071189460962010
0.539000000000000368,0.005898570135781811
0.540000000000000369,0.007723213668286255
0.541000000000000369,0.009544355187134545
0.542000000000000370,0.011361252178406334
0.543000000000000371,0.013173184162134954
0.544000000000000372,0.014979452368204926
0.545000000000000373,0.016779379411804917
0.546000000000000374,0.018572308968633287
0.547000000000000375,0.020357605450054050
0.548000000000000376,0.022134653678356719
0.549000000000000377,0.023902858562331188
0.550000000000000377,0.025661644773293892
0.551000000000000378,0.027410456421758145
0.552000000000000379,0.029148756734863678
0.553000000000000380,0.030876027734756305
0.554000000000000381,0.032591769918042093
0.555000000000000382,0.034295501936423299
0.556000000000000383,0.035986760278729511
0.557000000000000384,0.037665098954357656
0.558000000000000385,0.039330089178349195
0.559000000000000385,0.040981319058142909
0.560000000000000386,0.042618393282147470
0.561000000000000387,0.044240932810231094
0.562000000000000388,0.045848574566234854
0.563000000000000389,0.047440971132578391
0.564000000000000390,0.049017790447087831
0.565000000000000391,0.050578715502095029
0.566000000000000392,0.052123444045913694
0.567000000000000393,0.053651688286743202
0.568000000000000393,0.055163174599110555
0.569000000000000394,0.056657643232874658
0.570000000000000395,0.058134848024884223
0.571000000000000396,0.059594556113357844
0.572000000000000397,0.061036547654995735
0.573000000000000398,0.062460615544944267
0.574000000000000399,0.063866565139590728
0.575000000000000400,0.065254213982299317
0.576000000000000401,0.066623391532088932
0.577000000000000401,0.067973938895286246
0.578000000000000402,0.069305708560231327
0.579000000000000403,0.070618564135042999
0.580000000000000404,0.071912380088447983
0.581000000000000405,0.073187041493762053
0.582000000000000406,0.074442443775987008
0.583000000000000407,0.075678492462089478
0.584000000000000408,0.076895102934447790
0.585000000000000409,0.078092200187507468
0.586000000000000409,0.079269718587652513
0.587000000000000410,0.080427601636282264
0.588000000000000411,0.081565801736155519
0.589000000000000412,0.082684279960940105
0.590000000000000413,0.083783005828039700
0.591000000000000414,0.084861957074658240
0.592000000000000415,0.085921119437110685
0.593000000000000416,0.086960486433400430
0.594000000000000417,0.087980059149042500
0.595000000000000417,0.088979846026110962
0.596000000000000418,0.089959862655567907
0.597000000000000419,0.090920131572781102
0.598000000000000420,0.091860682056303183
0.599000000000000421,0.092781549929838378
0.600000000000000422,0.093682777367424239
0.601000000000000423,0.094564412701811332
0.602000000000000424,0.095426510236003140
0.603000000000000425,0.096269130057959271
0.604000000000000425,0.097092337858461331
0.605000000000000426,0.097896204752088073
0.606000000000000427,0.098680807101290985
0.607000000000000428,0.099446226343604449
0.608000000000000429,0.100192548821852662
0.609000000000000430,0.100919865617485449
0.610000000000000431,0.101628272386868487
0.611000000000000432,0.102317869200618583
0.612000000000000433,0.102988760385912134
0.613000000000000433,0.103641054371729616
0.614000000000000434,0.104274863537044432
0.615000000000000435,0.104890304061918682
0.616000000000000436,0.105487495781470791
0.617000000000000437,0.106066562042682916
0.618000000000000438,0.106627629564047283
0.619000000000000439,0.107170828298007018
