# ZnS-sphalerite-110-coated_URACILLACTAM
# h[nm],U(h)[kJ/mol]
0.149999999999999994,153.538381965495744907
0.150999999999999995,150.661227322927572914
0.151999999999999996,147.965163688368591011
0.152999999999999997,145.319917661040562962
0.153999999999999998,142.690638185370090696
0.154999999999999999,140.080627489288048082
0.156000000000000000,137.503044732845154385
0.157000000000000001,134.968784689625351803
0.158000000000000002,132.482820321098017757
0.159000000000000002,130.044521978178266863
0.160000000000000003,127.649467189059834027
0.161000000000000004,125.291464305976518290
0.162000000000000005,122.964217992193852069
0.163000000000000006,120.662454244707959106
0.164000000000000007,118.382520912676270086
0.165000000000000008,116.122565730905421333
0.166000000000000009,113.882417576466991704
0.167000000000000010,111.663288518960783335
0.168000000000000010,109.467392347984031176
0.169000000000000011,107.297549792262429946
0.170000000000000012,105.156826862170376558
0.171000000000000013,103.048232982666192470
0.172000000000000014,100.974490488622208773
0.173000000000000015,98.937876388334331068
0.174000000000000016,96.940130409699662550
0.175000000000000017,94.982419439782987070
0.176000000000000018,93.065346784586139961
0.177000000000000018,91.188994538700512749
0.178000000000000019,89.352988213833185682
0.179000000000000020,87.556574205221110674
0.180000000000000021,85.798702362763407336
0.181000000000000022,84.078107661544407847
0.182000000000000023,82.393386592727438256
0.183000000000000024,80.743065337353513655
0.184000000000000025,79.125658001970691657
0.185000000000000026,77.539714175796959239
0.186000000000000026,75.983855823619364855
0.187000000000000027,74.456804078209515296
0.188000000000000028,72.957396868344275731
0.189000000000000029,71.484598543485304845
0.190000000000000030,70.037502763255801597
0.191000000000000031,68.615329936366450170
0.192000000000000032,67.217420443771231930
0.193000000000000033,65.843224785210210825
0.194000000000000034,64.492291663958368986
0.195000000000000034,63.164254885139712314
0.196000000000000035,61.858819798873881268
0.197000000000000036,60.575749878571059526
0.198000000000000037,59.314853892337474406
0.199000000000000038,58.075974005273053535
0.200000000000000039,56.858975044484814987
0.201000000000000040,55.663735067777054155
0.202000000000000041,54.490137301205209042
0.203000000000000042,53.338063449352418388
0.204000000000000042,52.207388334227609050
0.205000000000000043,51.097975782759995411
0.206000000000000044,50.009675657491357015
0.207000000000000045,48.942321908736502678
0.208000000000000046,47.895731517704874136
0.209000000000000047,46.869704197451042660
0.210000000000000048,45.864022720763998109
0.211000000000000049,44.878453750060558036
0.212000000000000050,43.912749053005789790
0.213000000000000050,42.966646998082005382
0.214000000000000051,42.039874235933247348
0.215000000000000052,41.132147484433858153
0.216000000000000053,40.243175347584397628
0.217000000000000054,39.372660110155962343
0.218000000000000055,38.520299461205510738
0.219000000000000056,37.685788109970751236
0.220000000000000057,36.868819267090657377
0.221000000000000058,36.069085972517591188
0.222000000000000058,35.286282258849134053
0.223000000000000059,34.520104145131057294
0.224000000000000060,33.770250461490611826
0.225000000000000061,33.036423509313955549
0.226000000000000062,32.318329565147962512
0.227000000000000063,31.615679239165551451
0.228000000000000064,30.928187700969111518
0.229000000000000065,30.255574786802192477
0.230000000000000066,29.597565002983390769
0.231000000000000066,28.953887440647491758
0.232000000000000067,28.324275616756626306
0.233000000000000068,27.708467255900007586
0.234000000000000069,27.106204026701327336
0.235000000000000070,26.517231245756704539
0.236000000000000071,25.941297560987852222
0.237000000000000072,25.378154625159233149
0.238000000000000073,24.827556769116171154
0.239000000000000073,24.289260683087196213
0.240000000000000074,23.763025113185122450
0.241000000000000075,23.248610579063274884
0.242000000000000076,22.745779117553070137
0.243000000000000077,22.254294056041072025
0.244000000000000078,21.773919818349845912
0.245000000000000079,21.304421764973096032
0.246000000000000080,20.845566068688338390
0.247000000000000081,20.397119625829901679
0.248000000000000081,19.958850002853345984
0.249000000000000082,19.530525417257731391
0.250000000000000111,19.111914751450477468
0.251000000000000112,18.702787597739416015
0.252000000000000113,18.302914332310884049
0.253000000000000114,17.912066215798894575
0.254000000000000115,17.530015517860210394
0.255000000000000115,17.156535663040408224
0.256000000000000116,16.791401395138727537
0.257000000000000117,16.434388957250199326
0.258000000000000118,16.085276284676215397
0.259000000000000119,15.743843207943630347
0.260000000000000120,15.409871663251871965
0.261000000000000121,15.083145907774213157
0.262000000000000122,14.763452737366330680
0.263000000000000123,14.450581704380255132
0.264000000000000123,14.144325333439436321
0.265000000000000124,13.844479333198384197
0.266000000000000125,13.550842802283952437
0.267000000000000126,13.263218427793432852
0.268000000000000127,12.981412674902193416
0.269000000000000128,12.705235966311983375
0.270000000000000129,12.434502850444562938
0.271000000000000130,12.169032157455045962
0.272000000000000131,11.908647142302950073
0.273000000000000131,11.653175614275120608
0.274000000000000132,11.402450052503199984
0.275000000000000133,11.156307707157640863
0.276000000000000134,10.914590686130733133
0.277000000000000135,10.677146027142256912
0.278000000000000136,10.443825755311962666
0.279000000000000137,10.214486926344784834
0.280000000000000138,9.988991655566378469
0.281000000000000139,9.767207133128319896
0.282000000000000139,9.549005625775333073
0.283000000000000140,9.334264465630372598
0.284000000000000141,9.122866026508468451
0.285000000000000142,8.914697688316881141
0.286000000000000143,8.709651790137797889
0.287000000000000144,8.507625572621549281
0.288000000000000145,8.308521110342047322
0.289000000000000146,8.112245234785055104
0.290000000000000147,7.918709448650888660
0.291000000000000147,7.727829832160476364
0.292000000000000148,7.539526942054469494
0.293000000000000149,7.353725703972493477
0.294000000000000150,7.170355298892142848
0.295000000000000151,6.989349044296501390
0.296000000000000152,6.810644270724933058
0.297000000000000153,6.634182194344857564
0.298000000000000154,6.459907786162865762
0.299000000000000155,6.287769638471941036
0.300000000000000155,6.117719829108322571
0.301000000000000156,5.949713784066975819
0.302000000000000157,5.783710138998388040
0.303000000000000158,5.619670600083060741
0.304000000000000159,5.457559804752388111
0.305000000000000160,5.297345182696981070
0.306000000000000161,5.138996817575433695
0.307000000000000162,4.982487309808425913
0.308000000000000163,4.827791640815440211
0.309000000000000163,4.674887039023589708
0.310000000000000164,4.523752847951065803
0.311000000000000165,4.374370396641123371
0.312000000000000166,4.226722872696653255
0.313000000000000167,4.080795198140201308
0.314000000000000168,3.936573908300030844
0.315000000000000169,3.794047033899286880
0.316000000000000170,3.653203986502814082
0.317000000000000171,3.514035447454693095
0.318000000000000171,3.376533260418958626
0.319000000000000172,3.240690327616312594
0.320000000000000173,3.106500509831326973
0.321000000000000174,2.973958530247043264
0.322000000000000175,2.843059882147414896
0.323000000000000176,2.713800740512712917
0.324000000000000177,2.586177877518497148
0.325000000000000178,2.460188581935580210
0.326000000000000179,2.335830582415643786
0.327000000000000179,2.213101974636127345
0.328000000000000180,2.092001152267120911
0.329000000000000181,1.972526741713590770
0.330000000000000182,1.854677540577439832
0.331000000000000183,1.738452459775907455
0.332000000000000184,1.623850469245841976
0.333000000000000185,1.510870547156955457
0.334000000000000186,1.399511632551483364
0.335000000000000187,1.289772581322959910
0.336000000000000187,1.181652125442224532
0.337000000000000188,1.075148835335638653
0.338000000000000189,0.970261085316900251
0.339000000000000190,0.866987021971729832
0.340000000000000191,0.765324535392725380
0.341000000000000192,0.665271233159934194
0.342000000000000193,0.566824416961996369
0.343000000000000194,0.469981061751790663
0.344000000000000195,0.374737797330748634
0.345000000000000195,0.281090892255497327
0.346000000000000196,0.189036239961675012
0.347000000000000197,0.098569346999999835
0.348000000000000198,0.009685323281030200
0.349000000000000199,-0.077621125773728122
0.350000000000000200,-0.163355705275224666
0.351000000000000201,-0.247524535203840212
0.352000000000000202,-0.330134153137030650
0.353000000000000203,-0.411191515462804691
0.354000000000000203,-0.490703997171898387
0.355000000000000204,-0.568679390319066003
0.356000000000000205,-0.645125901241657695
0.357000000000000206,-0.720052146621122602
0.358000000000000207,-0.793467148470151873
0.359000000000000208,-0.865380328125946008
0.360000000000000209,-0.935801499327198139
0.361000000000000210,-1.004740860449464757
0.362000000000000210,-1.072208985971225825
0.363000000000000211,-1.138216817239786849
0.364000000000000212,-1.202775652603718770
0.365000000000000213,-1.265897136975501880
0.366000000000000214,-1.327593250885516607
0.367000000000000215,-1.387876299085608611
0.368000000000000216,-1.446758898758049083
0.369000000000000217,-1.504253967382607415
0.370000000000000218,-1.560374710312392610
0.371000000000000218,-1.615134608106033154
0.372000000000000219,-1.668547403661627682
0.373000000000000220,-1.720627089195301052
0.374000000000000221,-1.771387893104738875
0.375000000000000222,-1.820844266755755836
0.376000000000000223,-1.869010871227886117
0.377000000000000224,-1.915902564052410995
0.378000000000000225,-1.961534385974388339
0.379000000000000226,-2.005921547767960167
0.380000000000000226,-2.049079417132493308
0.381000000000000227,-2.091023505694693085
0.382000000000000228,-2.131769456140538921
0.383000000000000229,-2.171333029498585088
0.384000000000000230,-2.209730092594684780
0.385000000000000231,-2.246976605696616502
0.386000000000000232,-2.283088610365151094
0.387000000000000233,-2.318082217527036359
0.388000000000000234,-2.351973595783420468
0.389000000000000234,-2.384778959966336931
0.390000000000000235,-2.416514559954090480
0.391000000000000236,-2.447196669755459020
0.392000000000000237,-2.476841576871223971
0.393000000000000238,-2.505465571940531877
0.394000000000000239,-2.533084938678324960
0.395000000000000240,-2.559715944109307806
0.396000000000000241,-2.585374829102736971
0.397000000000000242,-2.610077799211445893
0.398000000000000242,-2.633841015817826481
0.399000000000000243,-2.656680587588372777
0.400000000000000244,-2.678612562237946193
0.401000000000000245,-2.699652918604050544
0.402000000000000246,-2.719817559030662579
0.403000000000000247,-2.739122302060794656
0.404000000000000248,-2.757582875436124237
0.405000000000000249,-2.775214909401696239
0.406000000000000250,-2.792033930313026602
0.407000000000000250,-2.808055354542671189
0.408000000000000251,-2.823294482682732642
0.409000000000000252,-2.837766494039516196
0.410000000000000253,-2.851486441416104078
0.411000000000000254,-2.864469246178386719
0.412000000000000255,-2.876729693599666682
0.413000000000000256,-2.888282428478924579
0.414000000000000257,-2.899141951027246478
0.415000000000000258,-2.909322613017146786
0.416000000000000258,-2.918838614188891789
0.417000000000000259,-2.927703998908142147
0.418000000000000260,-2.935932653068838771
0.419000000000000261,-2.943538301235303134
0.420000000000000262,-2.950534504017306769
0.421000000000000263,-2.956934655671941137
0.422000000000000264,-2.962751981925813460
0.423000000000000265,-2.967999538011333094
0.424000000000000266,-2.972690206910677979
0.425000000000000266,-2.976836697800933074
0.426000000000000267,-2.980451544694120436
0.427000000000000268,-2.983547105265629718
0.428000000000000269,-2.986135559864725675
0.429000000000000270,-2.988228910700795105
0.430000000000000271,-2.989838981198993828
0.431000000000000272,-2.990977415519140870
0.432000000000000273,-2.991655678231576410
0.433000000000000274,-2.991885054143992750
0.434000000000000274,-2.991676648273118300
0.435000000000000275,-2.991041385955351739
0.436000000000000276,-2.989990013090515930
0.437000000000000277,-2.988533096512909548
0.438000000000000278,-2.986681024484050706
0.439000000000000279,-2.984444007301560564
0.440000000000000280,-2.981832078018691767
0.441000000000000281,-2.978855093269197063
0.442000000000000282,-2.975522734192364460
0.443000000000000282,-2.971844507452990669
0.444000000000000283,-2.967829746351454023
0.445000000000000284,-2.963487612018907758
0.446000000000000285,-2.958827094692866311
0.447000000000000286,-2.953857015068670488
0.448000000000000287,-2.948586025722139681
0.449000000000000288,-2.943022612599232257
0.450000000000000289,-2.937175096568319876
0.451000000000000290,-2.931051635030999858
0.452000000000000290,-2.924660223587489671
0.453000000000000291,-2.918008697752603631
0.454000000000000292,-2.911104734718688913
0.455000000000000293,-2.903955855161755917
0.456000000000000294,-2.896569425087378580
0.457000000000000295,-2.888952657712928307
0.458000000000000296,-2.881112615382835251
0.459000000000000297,-2.873056211513775438
0.460000000000000298,-2.864790212566657779
0.461000000000000298,-2.856321240042530185
0.462000000000000299,-2.847655772499570137
0.463000000000000300,-2.838800147588383727
0.464000000000000301,-2.829760564103097842
0.465000000000000302,-2.820543084045662674
0.466000000000000303,-2.811153634700997550
0.467000000000000304,-2.801598010720674381
0.468000000000000305,-2.791881876212928493
0.469000000000000306,-2.782010766836884752
0.470000000000000306,-2.771990091899060538
0.471000000000000307,-2.761825136450066775
0.472000000000000308,-2.751521063379872345
0.473000000000000309,-2.741082915509752471
0.474000000000000310,-2.730515617679313500
0.475000000000000311,-2.719823978827016209
0.476000000000000312,-2.709012694062736593
0.477000000000000313,-2.698086346730896867
0.478000000000000314,-2.687049410462846399
0.479000000000000314,-2.675906251217297971
0.480000000000000315,-2.664661129307489773
0.481000000000000316,-2.653318201414118782
0.482000000000000317,-2.641881522582842035
0.483000000000000318,-2.630355048205458957
0.484000000000000319,-2.618742635983804856
0.485000000000000320,-2.607048047875496710
0.486000000000000321,-2.595274952020743431
0.487000000000000322,-2.583426924649464329
0.488000000000000322,-2.571507451967963043
0.489000000000000323,-2.559519932024660882
0.490000000000000324,-2.547467676554143523
0.491000000000000325,-2.535353912799083176
0.492000000000000326,-2.523181785309474900
0.493000000000000327,-2.510954357718818475
0.494000000000000328,-2.498674614496750657
0.495000000000000329,-2.486345462677859608
0.496000000000000330,-2.473969733566243168
0.497000000000000330,-2.461550184415698617
0.498000000000000331,-2.449089500085058102
0.499000000000000332,-2.436590294668719459
0.500000000000000333,-2.424055113102013159
0.501000000000000334,-2.411486432741293484
0.502000000000000335,-2.398886664918705947
0.503000000000000336,-2.386258156471471104
0.504000000000000337,-2.373603191245680311
0.505000000000000338,-2.360923991574512826
0.506000000000000338,-2.348222719730935992
0.507000000000000339,-2.335501479354873400
0.508000000000000340,-2.322762316854825926
0.509000000000000341,-2.310007222784167702
0.510000000000000342,-2.297238133191991771
0.511000000000000343,-2.284456930948789655
0.512000000000000344,-2.271665447046956388
0.513000000000000345,-2.258865461876323089
0.514000000000000346,-2.246058706474890698
0.515000000000000346,-2.233246863754857703
0.516000000000000347,-2.220431569704167440
0.517000000000000348,-2.207614414563824567
0.518000000000000349,-2.194796943981058845
0.519000000000000350,-2.181980660138717276
0.520000000000000351,-2.169167022860942318
0.521000000000000352,-2.156357450695573164
0.522000000000000353,-2.143553321973316272
0.523000000000000353,-2.130755975844105254
0.524000000000000354,-2.117966713290850400
0.525000000000000355,-2.105186798120839420
0.526000000000000356,-2.092417457935087377
0.527000000000000357,-2.079659885075963111
0.528000000000000358,-2.066915237553289764
0.529000000000000359,-2.054184639949329316
0.530000000000000360,-2.041469184302845630
0.531000000000000361,-2.028769930972642577
0.532000000000000361,-2.016087909480820173
0.533000000000000362,-2.003424119336095099
0.534000000000000363,-1.990779530837484046
0.535000000000000364,-1.978155085858682938
0.536000000000000365,-1.965551698613423159
0.537000000000000366,-1.952970256402184246
0.538000000000000367,-1.940411620340484644
0.539000000000000368,-1.927876626069213728
0.540000000000000369,-1.915366084447150286
0.541000000000000369,-1.902880782226169298
0.542000000000000370,-1.890421482709279344
0.543000000000000371,-1.877988926391955360
0.544000000000000372,-1.865583831586992813
0.545000000000000373,-1.853206895033246981
0.546000000000000374,-1.840858792488540674
0.547000000000000375,-1.828540179307059477
0.548000000000000376,-1.816251691001578461
0.549000000000000377,-1.803993943790783039
0.550000000000000377,-1.791767535132016365
0.551000000000000378,-1.779573044239730395
0.552000000000000379,-1.767411032590007425
0.553000000000000380,-1.755282044411356157
0.554000000000000381,-1.743186607162134694
0.555000000000000382,-1.731125231994933289
0.556000000000000383,-1.719098414208065195
0.557000000000000384,-1.707106633684643882
0.558000000000000385,-1.695150355319340552
0.559000000000000385,-1.683230029433238073
0.560000000000000386,-1.671346092176998255
0.561000000000000387,-1.659498965922610481
0.562000000000000388,-1.647689059643999698
0.563000000000000389,-1.635916769286782424
0.564000000000000390,-1.624182478127376372
0.565000000000000391,-1.612486557121775466
0.566000000000000392,-1.600829365244195612
0.567000000000000393,-1.589211249815907445
0.568000000000000393,-1.577632546824395465
0.569000000000000394,-1.566093581233179766
0.570000000000000395,-1.554594667282524156
0.571000000000000396,-1.543136108781171023
0.572000000000000397,-1.531718199389486390
0.573000000000000398,-1.520341222894081357
0.574000000000000399,-1.509005453474264957
0.575000000000000400,-1.497711155960429918
0.576000000000000401,-1.486458586084659084
0.577000000000000401,-1.475247990723771663
0.578000000000000402,-1.464079608134926991
0.579000000000000403,-1.452953668184055802
0.580000000000000404,-1.441870392567337289
0.581000000000000405,-1.430829995025823864
0.582000000000000406,-1.419832681553494957
0.583000000000000407,-1.408878650598855753
0.584000000000000408,-1.397968093260316014
0.585000000000000409,-1.387101193475488659
0.586000000000000409,-1.376278128204575513
0.587000000000000410,-1.365499067608081818
0.588000000000000411,-1.354764175218890809
0.589000000000000412,-1.344073608109028317
0.590000000000000413,-1.333427517051111844
0.591000000000000414,-1.322826046674762335
0.592000000000000415,-1.312269335618074573
0.593000000000000416,-1.301757516674282078
0.594000000000000417,-1.291290716933787053
0.595000000000000417,-1.280869057921741883
0.596000000000000418,-1.270492655731158660
0.597000000000000419,-1.260161621151921540
0.598000000000000420,-1.249876059795580918
0.599000000000000421,-1.239636072216270701
0.600000000000000422,-1.229441754027728928
0.601000000000000423,-1.219293196016597802
0.602000000000000424,-1.209190484252147701
0.603000000000000425,-1.199133700192488661
0.604000000000000425,-1.189122920787398119
0.605000000000000426,-1.179158218577895267
0.606000000000000427,-1.169239661792678131
0.607000000000000428,-1.159367314441414276
0.608000000000000429,-1.149541236405212441
0.609000000000000430,-1.139761483524087904
0.610000000000000431,-1.130028107681793959
0.611000000000000432,-1.120341156887900702
0.612000000000000433,-1.110700675357318534
0.613000000000000433,-1.101106703587350300
