# ZnS-sphalerite-110-coated_BSAI14
# h[nm],U(h)[kJ/mol]
0.149999999999999994,146.634474501449119543
0.150999999999999995,144.047689200766370732
0.151999999999999996,141.219535695591474678
0.152999999999999997,138.363162970697260334
0.153999999999999998,135.556996326416708598
0.154999999999999999,132.817375413421956409
0.156000000000000000,130.136694933528588081
0.157000000000000001,127.501813553216763353
0.158000000000000002,124.901698275779011738
0.159000000000000002,122.329593943354254293
0.160000000000000003,119.782718782509249422
0.161000000000000004,117.261096082367700433
0.162000000000000005,114.766312891443632793
0.163000000000000006,112.300534390746150848
0.164000000000000007,109.865857911204130914
0.165000000000000008,107.463974207571411057
0.166000000000000009,105.096059582337943539
0.167000000000000010,102.762816468049095420
0.168000000000000010,100.464591784138434605
0.169000000000000011,98.201520268530131830
0.170000000000000012,95.973657975255719066
0.171000000000000013,93.781086414934492268
0.172000000000000014,91.623979445645503006
0.173000000000000015,89.502633041506129530
0.174000000000000016,87.417462987160618582
0.175000000000000017,85.368978043347766516
0.176000000000000018,83.357736873757744434
0.177000000000000018,81.384296604782079498
0.178000000000000019,79.449159781591959018
0.179000000000000020,77.552725043727690490
0.180000000000000021,75.695245323788867609
0.181000000000000022,73.876795939606296315
0.182000000000000023,72.097253701122028247
0.183000000000000024,70.356287135243661623
0.184000000000000025,68.653357156817875762
0.185000000000000026,66.987726969889777706
0.186000000000000026,65.358479644925566276
0.187000000000000027,63.764541651979584458
0.188000000000000028,62.204710602045018675
0.189000000000000029,60.677685525285596668
0.190000000000000030,59.182098164847801058
0.191000000000000031,57.716543961989415834
0.192000000000000032,56.279611630399777766
0.193000000000000033,54.869910447410248366
0.194000000000000034,53.486094614115003765
0.195000000000000034,52.126884245770114035
0.196000000000000035,50.791082741939462153
0.197000000000000036,49.477590449049756671
0.198000000000000037,48.185414664719850464
0.199000000000000038,46.913676143456740419
0.200000000000000039,45.661612348233617809
0.201000000000000040,44.428577754056256310
0.202000000000000041,43.214041550357713106
0.203000000000000042,42.017583111678163732
0.204000000000000042,40.838885613402311492
0.205000000000000043,39.677728164108110320
0.206000000000000044,38.533976810932230705
0.207000000000000045,37.407574751675518598
0.208000000000000046,36.298532059287374807
0.209000000000000047,35.206915192742989973
0.210000000000000048,34.132836534745692347
0.211000000000000049,33.076444162463587872
0.212000000000000050,32.037912023706908826
0.213000000000000050,31.017430658408766675
0.214000000000000051,30.015198574610128190
0.215000000000000052,29.031414359822782956
0.216000000000000053,28.066269582945700733
0.217000000000000054,27.119942519004645476
0.218000000000000055,26.192592708932398438
0.219000000000000056,25.284356349382267837
0.220000000000000057,24.395342493072284640
0.221000000000000058,23.525630028257737081
0.222000000000000058,22.675265396434557630
0.223000000000000059,21.844261000094014946
0.224000000000000060,21.032594247055470760
0.225000000000000061,20.240207174380181243
0.226000000000000062,19.467006592893614680
0.227000000000000063,18.712864692701131730
0.228000000000000064,17.977620050568937415
0.229000000000000065,17.261078981463668924
0.230000000000000066,16.563017178728280498
0.231000000000000066,15.883181590151343343
0.232000000000000067,15.221292480422182081
0.233000000000000068,14.577045634023201970
0.234000000000000069,13.950114656382179845
0.235000000000000070,13.340153334994269585
0.236000000000000071,12.746798026142887039
0.237000000000000072,12.169670036730126483
0.238000000000000073,11.608377974516001174
0.239000000000000073,11.062520043715139195
0.240000000000000074,10.531686266371202976
0.241000000000000075,10.015460613201499385
0.242000000000000076,9.513423030653409995
0.243000000000000077,9.025151353729835790
0.244000000000000078,8.550223096716949911
0.245000000000000079,8.088217116281228414
0.246000000000000080,7.638715143497625704
0.247000000000000081,7.201303183231033245
0.248000000000000081,6.775572780929043581
0.249000000000000082,6.361122158304871377
0.250000000000000111,5.957557220606602755
0.251000000000000112,5.564492439197403328
0.252000000000000113,5.181551614021872254
0.253000000000000114,4.808368521225009573
0.254000000000000115,4.444587451730397376
0.255000000000000115,4.089863646993265434
0.256000000000000116,3.743863638431233820
0.257000000000000117,3.406265497216344862
0.258000000000000118,3.076759001199325105
0.259000000000000119,2.755045725740673745
0.260000000000000120,2.440839065156662713
0.261000000000000121,2.133864191361540374
0.262000000000000122,1.833857956108481346
0.263000000000000123,1.540568743012485475
0.264000000000000123,1.253756275283745891
0.265000000000000124,0.973191384820037086
0.266000000000000125,0.698655748005597488
0.267000000000000126,0.429941593249767551
0.268000000000000127,0.166851384974296302
0.269000000000000128,-0.090802511569357952
0.270000000000000129,-0.343198180600250591
0.271000000000000130,-0.590504517499218284
0.272000000000000131,-0.832881598484360497
0.273000000000000131,-1.070481055175947827
0.274000000000000132,-1.303446451257424865
0.275000000000000133,-1.531913658729300298
0.276000000000000134,-1.756011231529549743
0.277000000000000135,-1.975860774556696287
0.278000000000000136,-2.191577306380552592
0.279000000000000137,-2.403269614158562550
0.280000000000000138,-2.611040599493368752
0.281000000000000139,-2.814987614170363361
0.282000000000000139,-3.015202784900810506
0.283000000000000140,-3.211773326369016246
0.284000000000000141,-3.404781842039541040
0.285000000000000142,-3.594306612324332129
0.286000000000000143,-3.780421869839716287
0.287000000000000144,-3.963198061599995103
0.288000000000000145,-4.142702098099542596
0.289000000000000146,-4.318997589327411291
0.290000000000000147,-4.492145067841030404
0.291000000000000147,-4.662202199096284971
0.292000000000000148,-4.829223979293631785
0.293000000000000149,-4.993262921051890402
0.294000000000000150,-5.154369227266228926
0.295000000000000151,-5.312590953543322669
0.296000000000000152,-5.467974159636186826
0.297000000000000153,-5.620563050324589582
0.298000000000000154,-5.770400106204117030
0.299000000000000155,-5.917526204859266059
0.300000000000000155,-6.061980732903237801
0.301000000000000156,-6.203801689370118666
0.302000000000000157,-6.343025780944991254
0.303000000000000158,-6.479688509513209738
0.304000000000000159,-6.613824252503698986
0.305000000000000160,-6.745466336491704240
0.306000000000000161,-6.874647104515270613
0.307000000000000162,-7.001397977546593765
0.308000000000000163,-7.125749510544698850
0.309000000000000163,-7.247731443500208925
0.310000000000000164,-7.367372747866245852
0.311000000000000165,-7.484701668751900350
0.312000000000000166,-7.599745763236947838
0.313000000000000167,-7.712531935147948658
0.314000000000000168,-7.823086466617532153
0.315000000000000169,-7.931435046730125116
0.316000000000000170,-8.037602797539076249
0.317000000000000171,-8.141614297721867288
0.318000000000000171,-8.243493604122203777
0.319000000000000172,-8.343264271410703259
0.320000000000000173,-8.440949370078449476
0.321000000000000174,-8.536571502961587399
0.322000000000000175,-8.630152820479219500
0.323000000000000176,-8.721715034751600371
0.324000000000000177,-8.811279432751129903
0.325000000000000178,-8.898866888624587190
0.326000000000000179,-8.984497875312186466
0.327000000000000179,-9.068192475576028144
0.328000000000000180,-9.149970392539191977
0.329000000000000181,-9.229850959825323997
0.330000000000000182,-9.307853151378065348
0.331000000000000183,-9.383995591030366512
0.332000000000000184,-9.458296561884035114
0.333000000000000185,-9.530774015551902068
0.334000000000000186,-9.601445581307050503
0.335000000000000187,-9.670328575176187158
0.336000000000000187,-9.737440009008054176
0.337000000000000188,-9.802796599541091283
0.338000000000000189,-9.866414777489756815
0.339000000000000190,-9.928310696663549706
0.340000000000000191,-9.988500243128072498
0.341000000000000192,-10.046999044414103963
0.342000000000000193,-10.103822478776310234
0.343000000000000194,-10.158985684500681401
0.344000000000000195,-10.212503569256346836
0.345000000000000195,-10.264390819485766926
0.346000000000000196,-10.314661909824376806
0.347000000000000197,-10.363331112539615475
0.348000000000000198,-10.410412506977552383
0.349000000000000199,-10.455919989003929160
0.350000000000000200,-10.499867280425917215
0.351000000000000201,-10.542267938379675130
0.352000000000000202,-10.583135364668519784
0.353000000000000203,-10.622482815036249804
0.354000000000000203,-10.660323408359769104
0.355000000000000204,-10.696670135745248942
0.356000000000000205,-10.731535869512232040
0.357000000000000206,-10.764933372050439431
0.358000000000000207,-10.796875304533964268
0.359000000000000208,-10.827374235478515629
0.360000000000000209,-10.856442649127748368
0.361000000000000210,-10.884092953654953106
0.362000000000000210,-10.910337489167725167
0.363000000000000211,-10.935188535503348461
0.364000000000000212,-10.958658319803777914
0.365000000000000213,-10.980759023859707924
0.366000000000000214,-11.001502791214097243
0.367000000000000215,-11.020901734016327111
0.368000000000000216,-11.038967939619212189
0.369000000000000217,-11.055713476911515514
0.370000000000000218,-11.071150402380029121
0.371000000000000218,-11.085290765895571496
0.372000000000000219,-11.098146616218567573
0.373000000000000220,-11.109730006220454257
0.374000000000000221,-11.120052997817955642
0.375000000000000222,-11.129127666618114034
0.376000000000000223,-11.136966106272884858
0.377000000000000224,-11.143580432542499636
0.378000000000000225,-11.148982787067893696
0.379000000000000226,-11.153185340852788343
0.380000000000000226,-11.156200297457182558
0.381000000000000227,-11.158039895904005689
0.382000000000000228,-11.158716413301899451
0.383000000000000229,-11.158242167187205851
0.384000000000000230,-11.156629517588900313
0.385000000000000231,-11.153890868820926840
0.386000000000000232,-11.150038671006402780
0.387000000000000233,-11.145085421339107512
0.388000000000000234,-11.139043665087505985
0.389000000000000234,-11.131925996347566965
0.390000000000000235,-11.123745058550293052
0.391000000000000236,-11.114513544730765915
0.392000000000000237,-11.104244197565330765
0.393000000000000238,-11.092949809184174725
0.394000000000000239,-11.080643220766338786
0.395000000000000240,-11.067337321924865634
0.396000000000000241,-11.053045049889531626
0.397000000000000242,-11.037779388494950439
0.398000000000000242,-11.021553366981988731
0.399000000000000243,-11.004380058620313321
0.400000000000000244,-10.986272579160134555
0.401000000000000245,-10.967244085121235386
0.402000000000000246,-10.947307771927249576
0.403000000000000247,-10.926476871893310516
0.404000000000000248,-10.904764652075124687
0.405000000000000249,-10.882184411987447348
0.406000000000000250,-10.858749481199927445
0.407000000000000250,-10.834473216818221175
0.408000000000000251,-10.809369000858128018
0.409000000000000252,-10.783450237520575854
0.410000000000000253,-10.756730350374919425
0.411000000000000254,-10.729222779458147841
0.412000000000000255,-10.700940978297262873
0.413000000000000256,-10.671898410862205253
0.414000000000000257,-10.642108548456135964
0.415000000000000258,-10.611584866550304085
0.416000000000000258,-10.580340841569986665
0.417000000000000259,-10.548389947638241892
0.418000000000000260,-10.515745653283847361
0.419000000000000261,-10.482421418119635348
0.420000000000000262,-10.448430689497273605
0.421000000000000263,-10.413786899144451326
0.422000000000000264,-10.378503459789975238
0.423000000000000265,-10.342593761782373107
0.424000000000000266,-10.306071169707347934
0.425000000000000266,-10.268949019009012247
0.426000000000000267,-10.231240612619945551
0.427000000000000268,-10.192959217604725453
0.428000000000000269,-10.154118061821440833
0.429000000000000270,-10.114730330605524955
0.430000000000000271,-10.074809163480001217
0.431000000000000272,-10.034367650896118818
0.432000000000000273,-9.993418831008030523
0.433000000000000274,-9.951975686485205586
0.434000000000000274,-9.910051141365766370
0.435000000000000275,-9.867658057954072248
0.436000000000000276,-9.824809233765531502
0.437000000000000277,-9.781517398521334172
0.438000000000000278,-9.737795211195919620
0.439000000000000279,-9.693655257119591084
0.440000000000000280,-9.649110045138534986
0.441000000000000281,-9.604172004834421017
0.442000000000000282,-9.558853483805636486
0.443000000000000282,-9.513166745011849557
0.444000000000000283,-9.467123964183675966
0.445000000000000284,-9.420737227298928929
0.446000000000000285,-9.374018528126788041
0.447000000000000286,-9.326979765841310055
0.448000000000000287,-9.279632742705064885
0.449000000000000288,-9.231989161824223800
0.450000000000000289,-9.184060624975654008
0.451000000000000290,-9.135858630506900724
0.452000000000000290,-9.087394571309625135
0.453000000000000291,-9.038679732866906846
0.454000000000000292,-8.989725291374963234
0.455000000000000293,-8.940542311939285725
0.456000000000000294,-8.891141746845644178
0.457000000000000295,-8.841534433905826162
0.458000000000000296,-8.791731094878167951
0.459000000000000297,-8.741742333962763567
0.460000000000000298,-8.691578636371092514
0.461000000000000298,-8.641250366969886798
0.462000000000000299,-8.590767768998768261
0.463000000000000300,-8.540140962861263674
0.464000000000000301,-8.489379944988719728
0.465000000000000302,-8.438494586776522866
0.466000000000000303,-8.387494633591950688
0.467000000000000304,-8.336389703853029687
0.468000000000000305,-8.285189288177594591
0.469000000000000306,-8.233902748601746424
0.470000000000000306,-8.182539317866950768
0.471000000000000307,-8.131108098774664228
0.472000000000000308,-8.079618063607812317
0.473000000000000309,-8.028078053617933918
0.474000000000000310,-7.976496778577043756
0.475000000000000311,-7.924882816393127527
0.476000000000000312,-7.873244612788323771
0.477000000000000313,-7.821590481038414921
0.478000000000000314,-7.769928601772714494
0.479000000000000314,-7.718267022833115831
0.480000000000000315,-7.666613659191019003
0.481000000000000316,-7.614976292921132206
0.482000000000000317,-7.563362573230675068
0.483000000000000318,-7.511780016542982885
0.484000000000000319,-7.460236006634050732
0.485000000000000320,-7.408737794820957845
0.486000000000000321,-7.357292500200708574
0.487000000000000322,-7.305907109938388544
0.488000000000000322,-7.254588479603147455
0.489000000000000323,-7.203343333550973782
0.490000000000000324,-7.152178265352763908
0.491000000000000325,-7.101099738266493766
0.492000000000000326,-7.050114085752146487
0.493000000000000327,-6.999227512028244114
0.494000000000000328,-6.948446092668471685
0.495000000000000329,-6.897775775237393603
0.496000000000000330,-6.847222379963717742
0.497000000000000330,-6.796791600450103665
0.498000000000000331,-6.746489004417982827
0.499000000000000332,-6.696320034486451966
0.500000000000000333,-6.646290008983759989
0.501000000000000334,-6.596404122790235469
0.502000000000000335,-6.546667448211515250
0.503000000000000336,-6.497084935880789835
0.504000000000000337,-6.447661415688924258
0.505000000000000338,-6.398401597741248281
0.506000000000000338,-6.349310073339910154
0.507000000000000339,-6.300391315990597541
0.508000000000000340,-6.251649682432518063
0.509000000000000341,-6.203089413690611842
0.510000000000000342,-6.154714636148727713
0.511000000000000343,-6.106529362642904246
0.512000000000000344,-6.058537493573489030
0.513000000000000345,-6.010742818035219592
0.514000000000000346,-5.963149014964201911
0.515000000000000346,-5.915759654300719816
0.516000000000000347,-5.868578198166952475
0.517000000000000348,-5.821608002058693110
0.518000000000000349,-5.774852316049948087
0.519000000000000350,-5.728314286009730694
0.520000000000000351,-5.681996954829889646
0.521000000000000352,-5.635903263663345264
0.522000000000000353,-5.590036053171643537
0.523000000000000353,-5.544398064781087321
0.524000000000000354,-5.498991941946695050
0.525000000000000355,-5.453820231422975340
0.526000000000000356,-5.408885384540913499
0.527000000000000357,-5.364189758490373272
0.528000000000000358,-5.319735617607031841
0.529000000000000359,-5.275525134663332949
0.530000000000000360,-5.231560392162546869
0.531000000000000361,-5.187843383635407868
0.532000000000000361,-5.144376014938536024
0.533000000000000362,-5.101160105554081170
0.534000000000000363,-5.058197389889916629
0.535000000000000364,-5.015489518579753891
0.536000000000000365,-4.973038059782625808
0.537000000000000366,-4.930844500481147641
0.538000000000000367,-4.888910247777929818
0.539000000000000368,-4.847236630189759587
0.540000000000000369,-4.805824898938824141
0.541000000000000369,-4.764676229240673244
0.542000000000000370,-4.723791721588250780
0.543000000000000371,-4.683172403031659492
0.544000000000000372,-4.642819228453136660
0.545000000000000373,-4.602733081836833051
0.546000000000000374,-4.562914777532926180
0.547000000000000375,-4.523365061515708163
0.548000000000000376,-4.484084612635277800
0.549000000000000377,-4.445074043862383029
0.550000000000000377,-4.406333903526117091
0.551000000000000378,-4.367864676544090052
0.552000000000000379,-4.329666785644806559
0.553000000000000380,-4.291740592581830605
0.554000000000000381,-4.254086399339509050
0.555000000000000382,-4.216704449330003435
0.556000000000000383,-4.179594928581193081
0.557000000000000384,-4.142757966915420198
0.558000000000000385,-4.106193639118600025
0.559000000000000385,-4.069901966099624957
0.560000000000000386,-4.033882916039763344
0.561000000000000387,-3.998136405531851345
0.562000000000000388,-3.962662300709089980
0.563000000000000389,-3.927460418363244887
0.564000000000000390,-3.892530527052093792
0.565000000000000391,-3.857872348195926726
0.566000000000000392,-3.823485557162957349
0.567000000000000393,-3.789369784343539660
0.568000000000000393,-3.755524616212961408
0.569000000000000394,-3.721949596382764902
0.570000000000000395,-3.688644226640515278
0.571000000000000396,-3.655607967977753781
0.572000000000000397,-3.622840241606245737
0.573000000000000398,-3.590340429962250113
0.574000000000000399,-3.558107877698885257
0.575000000000000400,-3.526141892666387001
0.576000000000000401,-3.494441746880270649
0.577000000000000401,-3.463006677477389328
0.578000000000000402,-3.431835887659695494
0.579000000000000403,-3.400928547625789555
0.580000000000000404,-3.370283795490220058
0.581000000000000405,-3.339900738190412888
0.582000000000000406,-3.309778452381328062
0.583000000000000407,-3.279915985317731320
0.584000000000000408,-3.250312355724163105
0.585000000000000409,-3.220966554652540559
0.586000000000000409,-3.191877546327404058
0.587000000000000410,-3.163044268978894902
0.588000000000000411,-3.134465635663342908
0.589000000000000412,-3.106140535071649555
0.590000000000000413,-3.078067832325337427
0.591000000000000414,-3.050246369760424514
0.592000000000000415,-3.022674967699096715
0.593000000000000416,-2.995352425209210523
0.594000000000000417,-2.968277520851694717
0.595000000000000417,-2.941449013415978087
0.596000000000000418,-2.914865642643261090
0.597000000000000419,-2.888526129938036924
0.598000000000000420,-2.862429179067562224
0.599000000000000421,-2.836573476849648223
0.600000000000000422,-2.810957693828620929
0.601000000000000423,-2.785580484939649715
0.602000000000000424,-2.760440490161473193
0.603000000000000425,-2.735536335157601417
0.604000000000000425,-2.710866631906067692
0.605000000000000426,-2.686429979317845884
0.606000000000000427,-2.662224963844013637
0.607000000000000428,-2.638250160071637929
0.608000000000000429,-2.614504131308733825
0.609000000000000430,-2.590985430158037950
0.610000000000000431,-2.567692599080041660
