# ZnS-sphalerite-110-coated_BSAIV8
# h[nm],U(h)[kJ/mol]
0.149999999999999994,156.370150711236760799
0.150999999999999995,153.336293831244290686
0.151999999999999996,150.302023038981985792
0.152999999999999997,147.316495918069421123
0.153999999999999998,144.394117029164817723
0.154999999999999999,141.533677042338496221
0.156000000000000000,138.728399525742304377
0.157000000000000001,135.970771890273510962
0.158000000000000002,133.254521676390169205
0.159000000000000002,130.575135780714504108
0.160000000000000003,127.929718742562997136
0.161000000000000004,125.316619440679033914
0.162000000000000005,122.735038623873421670
0.163000000000000006,120.184706661765858371
0.164000000000000007,117.665655307979818645
0.165000000000000008,115.178075728870382477
0.166000000000000009,112.722242830102345579
0.167000000000000010,110.298483943258247564
0.168000000000000010,107.907172807829923045
0.169000000000000011,105.548734415672853970
0.170000000000000012,103.223651031125200461
0.171000000000000013,100.932463783301813010
0.172000000000000014,98.675767370353838714
0.173000000000000015,96.454197611679916236
0.174000000000000016,94.268412956349877163
0.175000000000000017,92.119071775845711159
0.176000000000000018,90.006807511193457572
0.177000000000000018,87.932203663820445172
0.178000000000000019,85.895770342698227751
0.179000000000000020,83.897923704354425922
0.180000000000000021,81.938969216698296805
0.181000000000000022,80.019089288866155130
0.182000000000000023,78.138335465794895640
0.183000000000000024,76.296625102592983581
0.184000000000000025,74.493742214803432944
0.185000000000000026,72.729342044535840728
0.186000000000000026,71.002958783286558742
0.187000000000000027,69.314015841939195184
0.188000000000000028,67.661838047949700581
0.189000000000000029,66.045665170124806309
0.190000000000000030,64.464666214388600451
0.191000000000000031,62.917953992159802112
0.192000000000000032,61.404599530219037717
0.193000000000000033,59.923645962169338475
0.194000000000000034,58.474121612830757044
0.195000000000000034,57.055052055202040151
0.196000000000000035,55.665470982882347073
0.197000000000000036,54.304429797724651507
0.198000000000000037,52.971005862233766948
0.199000000000000038,51.664309408544774271
0.200000000000000039,50.383489130806175638
0.201000000000000040,49.127736515778401838
0.202000000000000041,47.896288987974870111
0.203000000000000042,46.688431961345209231
0.204000000000000042,45.503499900027790659
0.205000000000000043,44.340876496793832473
0.206000000000000044,43.199994080163804711
0.207000000000000045,42.080332360468830188
0.208000000000000046,40.981416621967341030
0.209000000000000047,39.902815463066225732
0.210000000000000048,38.844138180231361446
0.211000000000000049,37.805031883732155507
0.212000000000000050,36.785178425311343631
0.213000000000000050,35.784291209516737808
0.214000000000000051,34.802111952018378815
0.215000000000000052,33.838407439969202528
0.216000000000000053,32.892966341502855698
0.217000000000000054,31.965596103914386106
0.218000000000000055,31.056119973023822212
0.219000000000000056,30.164374159732879832
0.220000000000000057,29.290205173878156586
0.221000000000000058,28.433467340181852734
0.222000000000000058,27.594020506385334102
0.223000000000000059,26.771727949519611656
0.224000000000000060,25.966454482685172422
0.225000000000000061,25.178064761654233905
0.226000000000000062,24.406421788034503351
0.227000000000000063,23.651385603604715868
0.228000000000000064,22.912812168710448901
0.229000000000000065,22.190552416249907708
0.230000000000000066,21.484451471748506890
0.231000000000000066,20.794348029274424050
0.232000000000000067,20.120073872453453134
0.233000000000000068,19.461453529562042775
0.234000000000000069,18.818304051583574221
0.235000000000000070,18.190434902173741705
0.236000000000000071,17.577647948671760503
0.237000000000000072,16.979737543588868220
0.238000000000000073,16.396490686384801450
0.239000000000000073,15.827687255788736920
0.240000000000000074,15.273100303412679324
0.241000000000000075,14.732496399934202458
0.242000000000000076,14.205636025675252299
0.243000000000000077,13.692273997964452548
0.244000000000000078,13.192159928235493993
0.245000000000000079,12.705038702373395054
0.246000000000000080,12.230650978370167792
0.247000000000000081,11.768733695884947110
0.248000000000000081,11.319020592818336723
0.249000000000000082,10.881242724503993102
0.250000000000000111,10.455128981588133641
0.251000000000000112,10.040406603111447836
0.252000000000000113,9.636801681722996449
0.253000000000000114,9.244039658346547839
0.254000000000000115,8.861845803981113434
0.255000000000000115,8.489945686653967982
0.256000000000000116,8.128065621854005940
0.257000000000000117,7.775933105057636574
0.258000000000000118,7.433277225220265905
0.259000000000000119,7.099829058342858268
0.260000000000000120,6.775322040438013005
0.261000000000000121,6.459492319414398942
0.262000000000000122,6.152079085572112582
0.263000000000000123,5.852824880558062048
0.264000000000000123,5.561475884768666056
0.265000000000000124,5.277782183310348429
0.266000000000000125,5.001498010735872413
0.267000000000000126,4.732381974869443120
0.268000000000000127,4.470197260114564308
0.269000000000000128,4.214711810709592221
0.270000000000000129,3.965698494455411893
0.271000000000000130,3.722935247489782995
0.272000000000000131,3.486205200724572073
0.273000000000000131,3.255296788595618551
0.274000000000000132,3.030003840801760440
0.275000000000000133,2.810125657729289461
0.276000000000000134,2.595467070272755361
0.277000000000000135,2.385838484772585755
0.278000000000000136,2.181055913794256007
0.279000000000000137,1.980940993474701539
0.280000000000000138,1.785320988159034616
0.281000000000000139,1.594028783044166842
0.282000000000000139,1.406902865537760006
0.283000000000000140,1.223787296029397620
0.284000000000000141,1.044531668758137632
0.285000000000000142,0.868991063445457512
0.286000000000000143,0.697025988346382186
0.287000000000000144,0.528502315354138164
0.288000000000000145,0.363291207774661395
0.289000000000000146,0.201269041368563967
0.290000000000000147,0.042317319237328024
0.291000000000000147,-0.113677418889313667
0.292000000000000148,-0.266823692429368986
0.293000000000000149,-0.417225180273056773
0.294000000000000150,-0.564980825162433753
0.295000000000000151,-0.710184941653953739
0.296000000000000152,-0.852927327212775865
0.297000000000000153,-0.993293376008755446
0.298000000000000154,-1.131364195004683548
0.299000000000000155,-1.267216721947867608
0.300000000000000155,-1.400923844896318826
0.301000000000000156,-1.532554522930328789
0.302000000000000157,-1.662173907719942889
0.303000000000000158,-1.789843465637343867
0.304000000000000159,-1.915621100121848830
0.305000000000000160,-2.039561274022964277
0.306000000000000161,-2.161715131664422085
0.307000000000000162,-2.282130620389087206
0.308000000000000163,-2.400852611360765998
0.309000000000000163,-2.517923019414896491
0.310000000000000164,-2.633380921765313687
0.311000000000000165,-2.747262675388934206
0.312000000000000166,-2.859602032924411397
0.313000000000000167,-2.970430256934328828
0.314000000000000168,-3.079776232393559354
0.315000000000000169,-3.187666577278930102
0.316000000000000170,-3.294125751147319647
0.317000000000000171,-3.399176161600672597
0.318000000000000171,-3.502838268547266320
0.319000000000000172,-3.605130686179240485
0.320000000000000173,-3.706070282595905319
0.321000000000000174,-3.805672277012000393
0.322000000000000175,-3.903950334498925478
0.323000000000000176,-4.000916658215379229
0.324000000000000177,-4.096582079091894535
0.325000000000000178,-4.190956142941172580
0.326000000000000179,-4.284047194973487294
0.327000000000000179,-4.375862461702769046
0.328000000000000180,-4.466408130235591578
0.329000000000000181,-4.555689424941038013
0.330000000000000182,-4.643710681504789939
0.331000000000000183,-4.730475418376350660
0.332000000000000184,-4.815986405622593836
0.333000000000000185,-4.900245731205638222
0.334000000000000186,-4.983254864707099330
0.335000000000000187,-5.065014718524408543
0.336000000000000187,-5.145525706568795599
0.337000000000000188,-5.224787800497137980
0.338000000000000189,-5.302800583513493926
0.339000000000000190,-5.379563301778384599
0.340000000000000191,-5.455074913466305020
0.341000000000000192,-5.529334135514490711
0.342000000000000193,-5.602339488107453747
0.343000000000000194,-5.674089336943990425
0.344000000000000195,-5.744581933334361068
0.345000000000000195,-5.813815452177330201
0.346000000000000196,-5.881788027867239421
0.347000000000000197,-5.948497788182736556
0.348000000000000198,-6.013942886209333594
0.349000000000000199,-6.078121530348647994
0.350000000000000200,-6.141032012467773527
0.351000000000000201,-6.202672734242458574
0.352000000000000202,-6.263042231748029209
0.353000000000000203,-6.322139198352123124
0.354000000000000203,-6.379962505963348463
0.355000000000000204,-6.436511224689555277
0.356000000000000205,-6.491784640959622266
0.357000000000000206,-6.545782274162124104
0.358000000000000207,-6.598503891853638947
0.359000000000000208,-6.649949523589389955
0.360000000000000209,-6.700119473428166827
0.361000000000000210,-6.749014331162652702
0.362000000000000210,-6.796634982326002827
0.363000000000000211,-6.842982617024420122
0.364000000000000212,-6.888058737644985108
0.365000000000000213,-6.931865165486851943
0.366000000000000214,-6.974404046363375187
0.367000000000000215,-7.015677855221480463
0.368000000000000216,-7.055689399824082386
0.369000000000000217,-7.094441823539833436
0.370000000000000218,-7.131938607284053155
0.371000000000000218,-7.168183570653201109
0.372000000000000219,-7.203180872294540293
0.373000000000000220,-7.236935009551508813
0.374000000000000221,-7.269450817424129241
0.375000000000000222,-7.300733466882820544
0.376000000000000223,-7.330788462573055497
0.377000000000000224,-7.359621639946903215
0.378000000000000225,-7.387239161856709480
0.379000000000000226,-7.413647514644861936
0.380000000000000226,-7.438853503762868691
0.381000000000000227,-7.462864248951335711
0.382000000000000228,-7.485687179012080250
0.383000000000000229,-7.507330026201927353
0.384000000000000230,-7.527800820277062321
0.385000000000000231,-7.547107882215803087
0.386000000000000232,-7.565259817646295737
0.387000000000000233,-7.582265510005131048
0.388000000000000234,-7.598134113451365579
0.389000000000000234,-7.612875045560008047
0.390000000000000235,-7.626497979817530748
0.391000000000000236,-7.639012837941457690
0.392000000000000237,-7.650429782044938065
0.393000000000000238,-7.660759206666403642
0.394000000000000239,-7.670011730683408580
0.395000000000000240,-7.678198189129085804
0.396000000000000241,-7.685329624928638914
0.397000000000000242,-7.691417280572496296
0.398000000000000242,-7.696472589742072046
0.399000000000000243,-7.700507168903105715
0.400000000000000244,-7.703532808880950711
0.401000000000000245,-7.705561466431419149
0.402000000000000246,-7.706605255819916067
0.403000000000000247,-7.706676440421131424
0.404000000000000248,-7.705787424350711845
0.405000000000000249,-7.703950744139762996
0.406000000000000250,-7.701179060462310488
0.407000000000000250,-7.697485149925332060
0.408000000000000251,-7.692881896930316543
0.409000000000000252,-7.687382285614745570
0.410000000000000253,-7.680999391881295324
0.411000000000000254,-7.673746375522140895
0.412000000000000255,-7.665636472445013005
0.413000000000000256,-7.656682987007461527
0.414000000000000257,-7.646899284464910629
0.415000000000000258,-7.636298783538068236
0.416000000000000258,-7.624894949104401576
0.417000000000000259,-7.612701285018232511
0.418000000000000260,-7.599731327063503628
0.419000000000000261,-7.585998636042842413
0.420000000000000262,-7.571516791006234648
0.421000000000000263,-7.556299382622273519
0.422000000000000264,-7.540360006694434958
0.423000000000000265,-7.523712257824766603
0.424000000000000266,-7.506369723226905322
0.425000000000000266,-7.488345976689960715
0.426000000000000267,-7.469654572694741645
0.427000000000000268,-7.450309040683333883
0.428000000000000269,-7.430322879482842424
0.429000000000000270,-7.409709551883956635
0.430000000000000271,-7.388482479374540723
0.431000000000000272,-7.366655037028533748
0.432000000000000273,-7.344240548549921144
0.433000000000000274,-7.321252281471626766
0.434000000000000274,-7.297703442508724159
0.435000000000000275,-7.273607173065441245
0.436000000000000276,-7.248976544895088914
0.437000000000000277,-7.223824555911898315
0.438000000000000278,-7.198164126153758779
0.439000000000000279,-7.172008093894577385
0.440000000000000280,-7.145369211904787576
0.441000000000000281,-7.118260143858641698
0.442000000000000282,-7.090693460886666522
0.443000000000000282,-7.062681638271433471
0.444000000000000283,-7.034237052285080338
0.445000000000000284,-7.005371977166481301
0.446000000000000285,-6.976098582236173407
0.447000000000000286,-6.946428929147113074
0.448000000000000287,-6.916374969268908046
0.449000000000000288,-6.885948541203637419
0.450000000000000289,-6.855161368430794155
0.451000000000000290,-6.824025057079232681
0.452000000000000290,-6.792551093823772312
0.453000000000000291,-6.760750843904046903
0.454000000000000292,-6.728635549263311866
0.455000000000000293,-6.696216326804693253
0.456000000000000294,-6.663504166762510117
0.457000000000000295,-6.630509931186210792
0.458000000000000296,-6.597244352534391787
0.459000000000000297,-6.563718032376487876
0.460000000000000298,-6.529941440199590552
0.461000000000000298,-6.495924912317901700
0.462000000000000299,-6.461678650882383579
0.463000000000000300,-6.427212722987983184
0.464000000000000301,-6.392537059876076455
0.465000000000000302,-6.357661456229577013
0.466000000000000303,-6.322595569558208339
0.467000000000000304,-6.287348919671570613
0.468000000000000305,-6.251930888237433592
0.469000000000000306,-6.216350718422914312
0.470000000000000306,-6.180617514616163710
0.471000000000000307,-6.144740242225970484
0.472000000000000308,-6.108727727557199394
0.473000000000000309,-6.072588657759482977
0.474000000000000310,-6.036331580846973743
0.475000000000000311,-5.999964905786791647
0.476000000000000312,-5.963496902654028986
0.477000000000000313,-5.926935702850895993
0.478000000000000314,-5.890289299387938549
0.479000000000000314,-5.853565547225159982
0.480000000000000315,-5.816772163670775875
0.481000000000000316,-5.779916728835689632
0.482000000000000317,-5.743006686141423955
0.483000000000000318,-5.706049342879621733
0.484000000000000319,-5.669051870821009587
0.485000000000000320,-5.632021306871929589
0.486000000000000321,-5.594964553776469174
0.487000000000000322,-5.557888380862317845
0.488000000000000322,-5.520799424828408242
0.489000000000000323,-5.483704190572693982
0.490000000000000324,-5.446609052058112965
0.491000000000000325,-5.409520253215080565
0.492000000000000326,-5.372443908878716812
0.493000000000000327,-5.335386005759296779
0.494000000000000328,-5.298352403444072323
0.495000000000000329,-5.261348835429080495
0.496000000000000330,-5.224380910179188930
0.497000000000000330,-5.187454112215026392
0.498000000000000331,-5.150573803225127811
0.499000000000000332,-5.113745223202040613
0.500000000000000333,-5.076973491600833555
0.501000000000000334,-5.040263608518643856
0.502000000000000335,-5.003620455893992514
0.503000000000000336,-4.967048798724519543
0.504000000000000337,-4.930553286301836202
0.505000000000000338,-4.894138453462298699
0.506000000000000338,-4.857808721852491907
0.507000000000000339,-4.821568401208248034
0.508000000000000340,-4.785421690646014525
0.509000000000000341,-4.749372679965627064
0.510000000000000342,-4.713425350963182936
0.511000000000000343,-4.677583578753199411
0.512000000000000344,-4.641851133098888305
0.513000000000000345,-4.606231679749649643
0.514000000000000346,-4.570728781784875849
0.515000000000000346,-4.535345900963031696
0.516000000000000347,-4.500086399075215127
0.517000000000000348,-4.464953539302388030
0.518000000000000349,-4.429950487575273321
0.519000000000000350,-4.395080313936347238
0.520000000000000351,-4.360345993902949857
0.521000000000000352,-4.325750409830946275
0.522000000000000353,-4.291296352278068937
0.523000000000000353,-4.256986521366342480
0.524000000000000354,-4.222823528142941818
0.525000000000000355,-4.188809895938740979
0.526000000000000356,-4.154948061724031305
0.527000000000000357,-4.121240377460816617
0.528000000000000358,-4.087689111451009438
0.529000000000000359,-4.054296449680157899
0.530000000000000360,-4.021064497155990125
0.531000000000000361,-3.987995279241440816
0.532000000000000361,-3.955090742981558716
0.533000000000000362,-3.922352758423923724
0.534000000000000363,-3.889783119932059385
0.535000000000000364,-3.857383547491495701
0.536000000000000365,-3.825155688008018640
0.537000000000000366,-3.793101116597792810
0.538000000000000367,-3.761221337868886572
0.539000000000000368,-3.729517787194035261
0.540000000000000369,-3.697991831974088761
0.541000000000000369,-3.666644772892071025
0.542000000000000370,-3.635477845157343069
0.543000000000000371,-3.604492219739750425
0.544000000000000372,-3.573689004593411767
0.545000000000000373,-3.543069245869955530
0.546000000000000374,-3.512633929120899445
0.547000000000000375,-3.482383980489021980
0.548000000000000376,-3.452320267888532523
0.549000000000000377,-3.422443602173780075
0.550000000000000377,-3.392754738296384964
0.551000000000000378,-3.363254376450598215
0.552000000000000379,-3.333943163206782856
0.553000000000000380,-3.304821692632808894
0.554000000000000381,-3.275890507403270480
0.555000000000000382,-3.247150099896475517
0.556000000000000383,-3.218600913278925280
0.557000000000000384,-3.190243342577416819
0.558000000000000385,-3.162077735738477280
0.559000000000000385,-3.134104394675194083
0.560000000000000386,-3.106323576301315725
0.561000000000000387,-3.078735493552570812
0.562000000000000388,-3.051340316395164010
0.563000000000000389,-3.024138172821420945
0.564000000000000390,-2.997129149832526984
0.565000000000000391,-2.970313294408358118
0.566000000000000392,-2.943690614464365751
0.567000000000000393,-2.917261079795561152
0.568000000000000393,-2.891024623007505401
0.569000000000000394,-2.864981140434383455
0.570000000000000395,-2.839130493044203618
0.571000000000000396,-2.813472507330988304
0.572000000000000397,-2.788006976194203013
0.573000000000000398,-2.762733659805236108
0.574000000000000399,-2.737652286461136786
0.575000000000000400,-2.712762553425528189
0.576000000000000401,-2.688064127756798705
0.577000000000000401,-2.663556647123682009
0.578000000000000402,-2.639239720608113071
0.579000000000000403,-2.615112929495578609
0.580000000000000404,-2.591175828052993957
0.581000000000000405,-2.567427944294086828
0.582000000000000406,-2.543868780732482460
0.583000000000000407,-2.520497815122451524
0.584000000000000408,-2.497314501187506863
0.585000000000000409,-2.474318269336845511
0.586000000000000409,-2.451508527369745227
0.587000000000000410,-2.428884661168064785
0.588000000000000411,-2.406446035376810677
0.589000000000000412,-2.384191994073019849
0.590000000000000413,-2.362121861422904701
0.591000000000000414,-2.340234942327467316
0.592000000000000415,-2.318530523056648196
0.593000000000000416,-2.297007871872080109
0.594000000000000417,-2.275666239638574506
0.595000000000000417,-2.254504860424536350
0.596000000000000418,-2.233522952091171909
0.597000000000000419,-2.212719716870936715
0.598000000000000420,-2.192094341934997637
0.599000000000000421,-2.171645999950087891
0.600000000000000422,-2.151373849624702128
0.601000000000000423,-2.131277036244806133
0.602000000000000424,-2.111354692199193472
0.603000000000000425,-2.091605937494571243
0.604000000000000425,-2.072029880260483292
0.605000000000000426,-2.052625617244237866
0.606000000000000427,-2.033392234295947176
0.607000000000000428,-2.014328806843675768
0.608000000000000429,-1.995434400359079152
0.609000000000000430,-1.976708070813327556
0.610000000000000431,-1.958148865123732874
0.611000000000000432,-1.939755821590984031
0.612000000000000433,-1.921527970327205681
0.613000000000000433,-1.903464333674973918
