# ZnS-sphalerite-110-coated_ASP-AC
# h[nm],U(h)[kJ/mol]
0.149999999999999994,159.845671187878167530
0.150999999999999995,157.274116957063938571
0.151999999999999996,154.795599041397366591
0.152999999999999997,152.400341355691466561
0.153999999999999998,150.062345450171108041
0.154999999999999999,147.757436300523806949
0.156000000000000000,145.469235060558503392
0.157000000000000001,143.189433894956408722
0.158000000000000002,140.915861319905985738
0.159000000000000002,138.650109134954533374
0.160000000000000003,136.395508567965009661
0.161000000000000004,134.155710227341245400
0.162000000000000005,131.933857949417671307
0.163000000000000006,129.732235916524530239
0.164000000000000007,127.552240732285028457
0.165000000000000008,125.394543075282811628
0.166000000000000009,123.259332714862836156
0.167000000000000010,121.146572851356339129
0.168000000000000010,119.056218477895072283
0.169000000000000011,116.988376212783038000
0.170000000000000012,114.943399426458512380
0.171000000000000013,112.921923155231795022
0.172000000000000014,110.924849352306480910
0.173000000000000015,108.953295645243500189
0.174000000000000016,107.008521011212138774
0.175000000000000017,105.091840527169964048
0.176000000000000018,103.204539281351429736
0.177000000000000018,101.347793138625718257
0.178000000000000019,99.522601670501131821
0.179000000000000020,97.729736399528476909
0.180000000000000021,95.969705680776925760
0.181000000000000022,94.242736094500017430
0.182000000000000023,92.548769152226924462
0.183000000000000024,90.887471392369448608
0.184000000000000025,89.258255513999898767
0.185000000000000026,87.660310014941273948
0.186000000000000026,86.092634808486849352
0.187000000000000027,84.554080441323918649
0.188000000000000028,83.043388778866372490
0.189000000000000029,81.559233325497501710
0.190000000000000030,80.100257675673333324
0.191000000000000031,78.665110923798081899
0.192000000000000032,77.252479178813715066
0.193000000000000033,75.861112621461799677
0.194000000000000034,74.489847800576384884
0.195000000000000034,73.137625085538331859
0.196000000000000035,71.803501373960358478
0.197000000000000036,70.486658297651288763
0.198000000000000037,69.186406278276606940
0.199000000000000038,67.902184860208819828
0.200000000000000039,66.633559795726640118
0.201000000000000040,65.380217381097551765
0.202000000000000041,64.141956545290597091
0.203000000000000042,62.918679180075216095
0.204000000000000042,61.710379174729403928
0.205000000000000043,60.517130583820346601
0.206000000000000044,59.339075315429020918
0.207000000000000045,58.176410682265760954
0.208000000000000046,57.029377111445306525
0.209000000000000047,55.898246261959982917
0.210000000000000048,54.783309753452542168
0.211000000000000049,53.684868666772558754
0.212000000000000050,52.603223936746488221
0.213000000000000050,51.538667721110371644
0.214000000000000051,50.491475796941209353
0.215000000000000052,49.461901007317294443
0.216000000000000053,48.450167756331801172
0.217000000000000054,47.456467529873521016
0.218000000000000055,46.480955402580541147
0.219000000000000056,45.523747477824684893
0.220000000000000057,44.584919197203554120
0.221000000000000058,43.664504448502675871
0.222000000000000058,42.762495396110878687
0.223000000000000059,41.878842955119111480
0.224000000000000060,41.013457829484821104
0.225000000000000061,40.166212035408008774
0.226000000000000062,39.336940833160397801
0.227000000000000063,38.525444993776012836
0.228000000000000064,37.731493331018107540
0.229000000000000065,36.954825433670045243
0.230000000000000066,36.195154538273321521
0.231000000000000066,35.452170487787697084
0.232000000000000067,34.725542727141714749
0.233000000000000068,34.014923292152239753
0.234000000000000069,33.319949753725317976
0.235000000000000070,32.640248084524429828
0.236000000000000071,31.975435420343167436
0.237000000000000072,31.325122693197425150
0.238000000000000073,30.688917117622246167
0.239000000000000073,30.066424515795510786
0.240000000000000074,29.457251470897244161
0.241000000000000075,28.861007301547452641
0.242000000000000076,28.277305853242193479
0.243000000000000077,27.705767105436876818
0.244000000000000078,27.146018595315716482
0.245000000000000079,26.597696661353314340
0.246000000000000080,26.060447511533645581
0.247000000000000081,25.533928122563526841
0.248000000000000081,25.017806977622200293
0.249000000000000082,24.511764651147796457
0.250000000000000111,24.015494249894903334
0.251000000000000112,23.528701720030248623
0.252000000000000113,23.051106030381593115
0.253000000000000114,22.582439242146030267
0.254000000000000115,22.122446475409063282
0.255000000000000115,21.670885782752229431
0.256000000000000116,21.227527940044815580
0.257000000000000117,20.792156164246438976
0.258000000000000118,20.364565767703332710
0.259000000000000119,19.944563758017906707
0.260000000000000120,19.531968392119502198
0.261000000000000121,19.126608692677951495
0.262000000000000122,18.728323934488038560
0.263000000000000123,18.336963107923683225
0.264000000000000123,17.952384366021572504
0.265000000000000124,17.574454461214102707
0.266000000000000125,17.203048177194382617
0.267000000000000126,16.838047760869841341
0.268000000000000127,16.479342358846249539
0.269000000000000128,16.126827462388408918
0.270000000000000129,15.780404364326717115
0.271000000000000130,15.439979630924387521
0.272000000000000131,15.105464591290047593
0.273000000000000131,14.776774846514854289
0.274000000000000132,14.453829800334506928
0.275000000000000133,14.136552212763238145
0.276000000000000134,13.824867777820921688
0.277000000000000135,13.518704726174485486
0.278000000000000136,13.217993453240628909
0.279000000000000137,12.922666173047996807
0.280000000000000138,12.632656597933230813
0.281000000000000139,12.347899643943893722
0.282000000000000139,12.068331161643811811
0.283000000000000140,11.793887691859170630
0.284000000000000141,11.524506245767568657
0.285000000000000142,11.260124108614746774
0.286000000000000143,11.000678666244136039
0.287000000000000144,10.746107253541577364
0.288000000000000145,10.496347023829624590
0.289000000000000146,10.251334838193105981
0.290000000000000147,10.011007173676329529
0.291000000000000147,9.775300049264640023
0.292000000000000148,9.544148968544257983
0.293000000000000149,9.317488877927006641
0.294000000000000150,9.095254139326323539
0.295000000000000151,8.877378516179446066
0.296000000000000152,8.663795171725425348
0.297000000000000153,8.454436678469630095
0.298000000000000154,8.249235037791162739
0.299000000000000155,8.048121708680223918
0.300000000000000155,7.851027644626154434
0.301000000000000156,7.657883337714520344
0.302000000000000157,7.468618869030533958
0.303000000000000158,7.283163964508186261
0.304000000000000159,7.101448055406952342
0.305000000000000160,6.923400342642227479
0.306000000000000161,6.748949864239941476
0.307000000000000162,6.578025565230620764
0.308000000000000163,6.410556369343015426
0.309000000000000163,6.246471251901568600
0.310000000000000164,6.085699313375775077
0.311000000000000165,5.928169853072512652
0.312000000000000166,5.773812442504103082
0.313000000000000167,5.622556998005745932
0.314000000000000168,5.474333852215416130
0.315000000000000169,5.329073824067175558
0.316000000000000170,5.186708286985473038
0.317000000000000171,5.047169235002952448
0.318000000000000171,4.910389346557638035
0.319000000000000172,4.776302045756860792
0.320000000000000173,4.644841560925548229
0.321000000000000174,4.515942980284666675
0.322000000000000175,4.389542304632160885
0.323000000000000176,4.265576496923931593
0.324000000000000177,4.143983528675410533
0.325000000000000178,4.024702423126351292
0.326000000000000179,3.907673295131155022
0.327000000000000179,3.792837387756020640
0.328000000000000180,3.680137105581099632
0.329000000000000181,3.569516044721415149
0.330000000000000182,3.460919019594854262
0.331000000000000183,3.354292086478081192
0.332000000000000184,3.249582563903172794
0.333000000000000185,3.146739049958144907
0.334000000000000186,3.045711436563639296
0.335000000000000187,2.946450920806508389
0.336000000000000187,2.848910013417828679
0.337000000000000188,2.753042544489466614
0.338000000000000189,2.658803666528114285
0.339000000000000190,2.566149854950343645
0.340000000000000191,2.475038906125858862
0.341000000000000192,2.385429933078738074
0.342000000000000193,2.297283358958731814
0.343000000000000194,2.210560908396038027
0.344000000000000195,2.125225596854207755
0.345000000000000195,2.041241718095522018
0.346000000000000196,1.958574829873752865
0.347000000000000197,1.877191737968072260
0.348000000000000198,1.797060478671074435
0.349000000000000199,1.718150299842472917
0.350000000000000200,1.640431640638133404
0.351000000000000201,1.563876110022275778
0.352000000000000202,1.488456464168224969
0.353000000000000203,1.414146582850578593
0.354000000000000203,1.340921444928905082
0.355000000000000204,1.268757103020289545
0.356000000000000205,1.197630657454796355
0.357000000000000206,1.127520229604737523
0.358000000000000207,1.058404934675610365
0.359000000000000208,0.990264854042871456
0.360000000000000209,0.923081007215360572
0.361000000000000210,0.856835323502980417
0.362000000000000210,0.791510613462310886
0.363000000000000211,0.727090540190739931
0.364000000000000212,0.663559590535904187
0.365000000000000213,0.600903046283910336
0.366000000000000214,0.539106955386321696
0.367000000000000215,0.478158103282487423
0.368000000000000216,0.418043984370310262
0.369000000000000217,0.358752773675534986
0.370000000000000218,0.300273298766032870
0.371000000000000218,0.242595011954724271
0.372000000000000219,0.185707962831461876
0.373000000000000220,0.129602771161228869
0.374000000000000221,0.074270600183214699
0.375000000000000222,0.019703130342411869
0.376000000000000223,-0.034107466517545773
0.377000000000000224,-0.087168552473845209
0.378000000000000225,-0.139487048332704339
0.379000000000000226,-0.191069457904995937
0.380000000000000226,-0.241921891730553534
0.381000000000000227,-0.292050090234317328
0.382000000000000228,-0.341459446300084679
0.383000000000000229,-0.390155027249318831
0.384000000000000230,-0.438141596214594031
0.385000000000000231,-0.485423632899246837
0.386000000000000232,-0.532005353716229923
0.387000000000000233,-0.577890731301290872
0.388000000000000234,-0.623083513396754385
0.389000000000000234,-0.667587241104073748
0.390000000000000235,-0.711405266504403166
0.391000000000000236,-0.754540769648019305
0.392000000000000237,-0.796996774914489503
0.393000000000000238,-0.838776166746799334
0.394000000000000239,-0.879881704763537775
0.395000000000000240,-0.920316038254503588
0.396000000000000241,-0.960081720065774746
0.397000000000000242,-0.999181219881318250
0.398000000000000242,-1.037616936908984711
0.399000000000000243,-1.075391211979330297
0.400000000000000244,-1.112506339066588357
0.401000000000000245,-1.148964576241585434
0.402000000000000246,-1.184768156066855260
0.403000000000000247,-1.219919295444974683
0.404000000000000248,-1.254420204931266269
0.405000000000000249,-1.288273097522653954
0.406000000000000250,-1.321480196934581963
0.407000000000000250,-1.354043745378409991
0.408000000000000251,-1.385966010851772623
0.409000000000000252,-1.417249293954707223
0.410000000000000253,-1.447895934244466387
0.411000000000000254,-1.477908316142107159
0.412000000000000255,-1.507288874403973633
0.413000000000000256,-1.536040099171410933
0.414000000000000257,-1.564164540611822529
0.415000000000000258,-1.591664813164517467
0.416000000000000258,-1.618543599404455025
0.417000000000000259,-1.644803653537184163
0.418000000000000260,-1.670447804538073955
0.419000000000000261,-1.695478958948909654
0.420000000000000262,-1.719900103344742304
0.421000000000000263,-1.743714306483916232
0.422000000000000264,-1.766924721153740219
0.423000000000000265,-1.789534585724497973
0.424000000000000266,-1.811547225424045227
0.425000000000000266,-1.832966053345068458
0.426000000000000267,-1.853794571197059593
0.427000000000000268,-1.874036369814634284
0.428000000000000269,-1.893695129433738300
0.429000000000000270,-1.912774619747036553
0.430000000000000271,-1.931278699749457317
0.431000000000000272,-1.949211317384783371
0.432000000000000273,-1.966576509003735040
0.433000000000000274,-1.983378398643927953
0.434000000000000274,-1.999621197141707496
0.435000000000000275,-2.015309201085616841
0.436000000000000276,-2.030446791621088209
0.437000000000000277,-2.045038433115524690
0.438000000000000278,-2.059088671692816508
0.439000000000000279,-2.072602133646038958
0.440000000000000280,-2.085583523736720402
0.441000000000000281,-2.098037623388904649
0.442000000000000282,-2.109969288786023078
0.443000000000000282,-2.121383448878074507
0.444000000000000283,-2.132285103306712060
0.445000000000000284,-2.142679320255241215
0.446000000000000285,-2.152571234230475028
0.447000000000000286,-2.161966043783187352
0.448000000000000287,-2.170869009173345798
0.449000000000000288,-2.179285449986515744
0.450000000000000289,-2.187220742707155274
0.451000000000000290,-2.194680318254549345
0.452000000000000290,-2.201669659486868103
0.453000000000000291,-2.208194298678425760
0.454000000000000292,-2.214259814975251928
0.455000000000000293,-2.219871831833649889
0.456000000000000294,-2.225036014446314603
0.457000000000000295,-2.229758067160374946
0.458000000000000296,-2.234043730891400958
0.459000000000000297,-2.237898780537417753
0.460000000000000298,-2.241329022396539639
0.461000000000000298,-2.244340291591844228
0.462000000000000299,-2.246938449506816760
0.463000000000000300,-2.249129381234475478
0.464000000000000301,-2.250918993043282246
0.465000000000000302,-2.252313209862561560
0.466000000000000303,-2.253317972790117363
0.467000000000000304,-2.253939236624580289
0.468000000000000305,-2.254182967424744444
0.469000000000000306,-2.254055140098134125
0.470000000000000306,-2.253561736020891715
0.471000000000000307,-2.252708740690716471
0.472000000000000308,-2.251502141414819747
0.473000000000000309,-2.249947925034398999
0.474000000000000310,-2.248052075687155593
0.475000000000000311,-2.245820572609269483
0.476000000000000312,-2.243259387978066233
0.477000000000000313,-2.240374484796550547
0.478000000000000314,-2.237171814820777982
0.479000000000000314,-2.233657316531127535
0.480000000000000315,-2.229836913148148803
0.481000000000000316,-2.225716510693881212
0.482000000000000317,-2.221301996099152021
0.483000000000000318,-2.216599235357502362
0.484000000000000319,-2.211614071726176967
0.485000000000000320,-2.206352323974558605
0.486000000000000321,-2.200819784680390967
0.487000000000000322,-2.195022218574016026
0.488000000000000322,-2.188965360930736459
0.489000000000000323,-2.182654916011538493
0.490000000000000324,-2.176096555552080147
0.491000000000000325,-2.169295917299999044
0.492000000000000326,-2.162258603600409224
0.493000000000000327,-2.154990180029538127
0.494000000000000328,-2.147496174076189757
0.495000000000000329,-2.139782073870951873
0.496000000000000330,-2.131853326962707573
0.497000000000000330,-2.123715339142312697
0.498000000000000331,-2.115373473312850638
0.499000000000000332,-2.106833048406298925
0.500000000000000333,-2.098099338346025355
0.501000000000000334,-2.089177571054635418
0.502000000000000335,-2.080072927506780633
0.503000000000000336,-2.070790540826282111
0.504000000000000337,-2.061335495427107922
0.505000000000000338,-2.051712826197537698
0.506000000000000338,-2.041927517726973562
0.507000000000000339,-2.031984503574756573
0.508000000000000340,-2.021888665580295452
0.509000000000000341,-2.011644833213972472
0.510000000000000342,-2.001257782967966747
0.511000000000000343,-1.990732237786494441
0.512000000000000344,-1.980072866534590359
0.513000000000000345,-1.969284283504838085
0.514000000000000346,-1.958371047961287470
0.515000000000000346,-1.947337663719788114
0.516000000000000347,-1.936188578764015844
0.517000000000000348,-1.924928184896518291
0.518000000000000349,-1.913560817423875848
0.519000000000000350,-1.902090754875385148
0.520000000000000351,-1.890522218754353334
0.521000000000000352,-1.878859373321406734
0.522000000000000353,-1.867106325408867562
0.523000000000000353,-1.855267124265583600
0.524000000000000354,-1.843345761431400831
0.525000000000000355,-1.831346170640476334
0.526000000000000356,-1.819272227752727344
0.527000000000000357,-1.807127750712671288
0.528000000000000358,-1.794916499534818133
0.529000000000000359,-1.782642176315007987
0.530000000000000360,-1.770308425266794217
0.531000000000000361,-1.757918832782280116
0.532000000000000361,-1.745476927516574461
0.533000000000000362,-1.732986180495203810
0.534000000000000363,-1.720450005243727487
0.535000000000000364,-1.707871757938887569
0.536000000000000365,-1.695254737580531579
0.537000000000000366,-1.682602186183702386
0.538000000000000367,-1.669917288990076853
0.539000000000000368,-1.657203174698270498
0.540000000000000369,-1.644462915712119555
0.541000000000000369,-1.631699528406498345
0.542000000000000370,-1.618915973409826847
0.543000000000000371,-1.606115155902789748
0.544000000000000372,-1.593299925932546213
0.545000000000000373,-1.580473078741859494
0.546000000000000374,-1.567637355112501796
0.547000000000000375,-1.554795441722351068
0.548000000000000376,-1.541949971515642392
0.549000000000000377,-1.529103524085703825
0.550000000000000377,-1.516258626069706406
0.551000000000000378,-1.503417751554790627
0.552000000000000379,-1.490583322495118379
0.553000000000000380,-1.477757709139230879
0.554000000000000381,-1.464943230467220525
0.555000000000000382,-1.452142154637288129
0.556000000000000383,-1.439356699440997867
0.557000000000000384,-1.426589032766987231
0.558000000000000385,-1.413841273072414806
0.559000000000000385,-1.401115489861856744
0.560000000000000386,-1.388413704173121044
0.561000000000000387,-1.375737889069528208
0.562000000000000388,-1.363089970138246176
0.563000000000000389,-1.350471825994271180
0.564000000000000390,-1.337885288789597560
0.565000000000000391,-1.325332144727214168
0.566000000000000392,-1.312814134579509240
0.567000000000000393,-1.300332954210747349
0.568000000000000393,-1.287890255103170345
0.569000000000000394,-1.275487644886420080
0.570000000000000395,-1.263126687869964293
0.571000000000000396,-1.250808905578044694
0.572000000000000397,-1.238535777287015360
0.573000000000000398,-1.226308740564559185
0.574000000000000399,-1.214129191810617181
0.575000000000000400,-1.201998486799622290
0.576000000000000401,-1.189917941223796571
0.577000000000000401,-1.177888831237266842
0.578000000000000402,-1.165912394000609753
0.579000000000000403,-1.153989828225647329
0.580000000000000404,-1.142122294720258502
0.581000000000000405,-1.130310916932840026
0.582000000000000406,-1.118556781496317987
0.583000000000000407,-1.106860938771350389
0.584000000000000408,-1.095224403388598500
0.585000000000000409,-1.083648154789793372
0.586000000000000409,-1.072133137767372180
0.587000000000000410,-1.060680263002582446
0.588000000000000411,-1.049290407601702890
0.589000000000000412,-1.037964415630374448
0.590000000000000413,-1.026703098645697532
0.591000000000000414,-1.015507236226036003
0.592000000000000415,-1.004377576498334701
0.593000000000000416,-0.993314836662744005
0.594000000000000417,-0.982319703514456632
0.595000000000000417,-0.971392833962644531
0.596000000000000418,-0.960534855546193334
0.597000000000000419,-0.949746366946346954
0.598000000000000420,-0.939027938495889836
0.599000000000000421,-0.928380112684948910
0.600000000000000422,-0.917803404663159128
0.601000000000000423,-0.907298302738146822
0.602000000000000424,-0.896865268870237875
0.603000000000000425,-0.886504739163261002
0.604000000000000425,-0.876217124351345356
0.605000000000000426,-0.866002810281668922
0.606000000000000427,-0.855862158393069228
0.607000000000000428,-0.845795506190322732
0.608000000000000429,-0.835803167714272099
0.609000000000000430,-0.825885434007401997
0.610000000000000431,-0.816042573575123109
0.611000000000000432,-0.806274832842457378
0.612000000000000433,-0.796582436606197763
0.613000000000000433,-0.786965588482467338
0.614000000000000434,-0.777424471349619006
