# ZnS-sphalerite-110-coated_ACYLSYRINGYL-AC
# h[nm],U(h)[kJ/mol]
0.149999999999999994,170.980457752059237464
0.150999999999999995,168.041234821021305379
0.151999999999999996,165.268383663039514886
0.152999999999999997,162.519566477918033343
0.153999999999999998,159.760396851994386225
0.154999999999999999,156.999191395719151387
0.156000000000000000,154.254859731224684083
0.157000000000000001,151.543228204469926368
0.158000000000000002,148.872966659736135853
0.159000000000000002,146.246000018574420665
0.160000000000000003,143.659583202135422653
0.161000000000000004,141.108600271714067276
0.162000000000000005,138.587450125525776912
0.163000000000000006,136.091321313826654205
0.164000000000000007,133.616880228271043052
0.165000000000000008,131.162491316794273644
0.166000000000000009,128.728112211988019453
0.167000000000000010,126.314995580119514784
0.168000000000000010,123.925303578626397893
0.169000000000000011,121.561711457780504020
0.170000000000000012,119.227049873727949603
0.171000000000000013,116.924013385088230166
0.172000000000000014,114.654945990227403740
0.173000000000000015,112.421703050022941284
0.174000000000000016,110.225581714054584381
0.175000000000000017,108.067308083144098418
0.176000000000000018,105.947067897385409196
0.177000000000000018,103.864567758666339614
0.178000000000000019,101.819115153266039897
0.179000000000000020,99.809707355507001125
0.180000000000000021,97.835121322457368365
0.181000000000000022,95.893998697509104545
0.182000000000000023,93.984921879765252584
0.183000000000000024,92.106478704876096231
0.184000000000000025,90.257314587120148985
0.185000000000000026,88.436171990510459295
0.186000000000000026,86.641917847720122836
0.187000000000000027,84.873560060836879870
0.188000000000000028,83.130254534138543931
0.189000000000000029,81.411304344137718658
0.190000000000000030,79.716152682247212624
0.191000000000000031,78.044371143238791433
0.192000000000000032,76.395644806511640468
0.193000000000000033,74.769755390651923221
0.194000000000000034,73.166563573872707593
0.195000000000000034,71.585991378429142173
0.196000000000000035,70.028005326994275492
0.197000000000000036,68.492600901014583314
0.198000000000000037,66.979788670306092513
0.199000000000000038,65.489582322515929036
0.200000000000000039,64.021988701784906084
0.201000000000000040,62.576999867951165868
0.202000000000000041,61.154587109980447224
0.203000000000000042,59.754696788404451979
0.204000000000000042,58.377247839437835353
0.205000000000000043,57.022130745960296849
0.206000000000000044,55.689207765480730927
0.207000000000000045,54.378314200384593846
0.208000000000000046,53.089260499163721363
0.209000000000000047,51.821834987075725110
0.210000000000000048,50.575807039116718045
0.211000000000000049,49.350930525864910692
0.212000000000000050,48.146947382427953244
0.213000000000000050,46.963591171380258515
0.214000000000000051,45.800590531365813263
0.215000000000000052,44.657672423314963339
0.216000000000000053,43.534565105475977020
0.217000000000000054,42.431000786329995833
0.218000000000000055,41.346717920695439830
0.219000000000000056,40.281463128789496864
0.220000000000000057,39.234992730628086122
0.221000000000000058,38.207073898920988597
0.222000000000000058,37.197485442594157234
0.223000000000000059,36.206018240346587334
0.224000000000000060,35.232475349334272607
0.225000000000000061,34.276671818307981709
0.226000000000000062,33.338434237459566134
0.227000000000000063,32.417600059007028790
0.228000000000000064,31.514016723322328062
0.229000000000000065,30.627540625323131707
0.230000000000000066,29.758035955056918453
0.231000000000000066,28.905373445028203605
0.232000000000000067,28.069429054983789484
0.233000000000000068,27.250082622684097089
0.234000000000000069,26.447216506749562370
0.235000000000000070,25.660714245068685813
0.236000000000000071,24.890459249561558863
0.237000000000000072,24.136333555374285709
0.238000000000000073,23.398216639891892044
0.239000000000000073,22.675984324343509968
0.240000000000000074,21.969507768267042991
0.241000000000000075,21.278652564735143216
0.242000000000000076,20.603277942035148840
0.243000000000000077,19.943236075460724521
0.244000000000000078,19.298371511020835811
0.245000000000000079,18.668520701206446688
0.246000000000000080,18.053511651479475120
0.247000000000000081,17.453163674856220666
0.248000000000000081,16.867287250847503799
0.249000000000000082,16.295683984080465478
0.250000000000000111,15.738146657152242369
0.251000000000000112,15.194459371647667467
0.252000000000000113,14.664397770774282748
0.253000000000000114,14.147729336724429672
0.254000000000000115,13.644213755645868247
0.255000000000000115,13.153603342984922620
0.256000000000000116,12.675643521941815095
0.257000000000000117,12.210073347839250246
0.258000000000000118,11.756626071339756123
0.259000000000000119,11.315029733644067278
0.260000000000000120,10.885007787052694894
0.261000000000000121,10.466279734567068616
0.262000000000000122,10.058561782535043960
0.263000000000000123,9.661567500702620492
0.264000000000000123,9.275008484409744014
0.265000000000000124,8.898595014059305086
0.266000000000000125,8.532036707386609464
0.267000000000000126,8.175043160458928426
0.268000000000000127,7.827324573734398605
0.269000000000000128,7.488592359905124951
0.270000000000000129,7.158559730635647433
0.271000000000000130,6.836942259682365020
0.272000000000000131,6.523458420241309064
0.273000000000000131,6.217830094716637390
0.274000000000000132,5.919783055430803742
0.275000000000000133,5.629047415107097052
0.276000000000000134,5.345358046246067474
0.277000000000000135,5.068454968788907777
0.278000000000000136,4.798083705711629676
0.279000000000000137,4.533995606425372138
0.280000000000000138,4.275948138069918691
0.281000000000000139,4.023705144979037307
0.282000000000000139,3.777037076769680368
0.283000000000000140,3.535721185661279353
0.284000000000000141,3.299541693768380135
0.285000000000000142,3.068289931229430945
0.286000000000000143,2.841764446138095312
0.287000000000000144,2.619771087331905335
0.288000000000000145,2.402123061166260509
0.289000000000000146,2.188640963462764599
0.290000000000000147,1.979152787867656915
0.291000000000000147,1.773493911892722874
0.292000000000000148,1.571507061935381699
0.293000000000000149,1.373042258590590370
0.294000000000000150,1.177956743572698972
0.295000000000000151,0.986114889563614261
0.296000000000000152,0.797388094294143590
0.297000000000000153,0.611654660149221208
0.298000000000000154,0.428799660565838348
0.299000000000000155,0.248714794465339034
0.300000000000000155,0.071298229930092563
0.301000000000000156,-0.103545561700718380
0.302000000000000157,-0.275905980180707278
0.303000000000000158,-0.445866478056791138
0.304000000000000159,-0.613504748670369415
0.305000000000000160,-0.778892919454122756
0.306000000000000161,-0.942097749566486842
0.307000000000000162,-1.103180830953715441
0.308000000000000163,-1.262198791977726220
0.309000000000000163,-1.419203502796726024
0.310000000000000164,-1.574242281734298476
0.311000000000000165,-1.727358101920920319
0.312000000000000166,-1.878589797539848671
0.313000000000000167,-2.027972269056304011
0.314000000000000168,-2.175536686855099155
0.315000000000000169,-2.321310692757036609
0.316000000000000170,-2.465318598928325056
0.317000000000000171,-2.607581583739736253
0.318000000000000171,-2.748117884173346237
0.319000000000000172,-2.886942984414753610
0.320000000000000173,-3.024069800306205202
0.321000000000000174,-3.159508859372932577
0.322000000000000175,-3.293268476169797232
0.323000000000000176,-3.425354922728394591
0.324000000000000177,-3.555772593916473934
0.325000000000000178,-3.684524167551070484
0.326000000000000179,-3.811610759135420690
0.327000000000000179,-3.937032071115610599
0.328000000000000180,-4.060786536578332218
0.329000000000000181,-4.182871457334250920
0.330000000000000182,-4.303283136352964000
0.331000000000000183,-4.422017004536320073
0.332000000000000184,-4.539067741834964309
0.333000000000000185,-4.654429392730687454
0.334000000000000186,-4.768095476122941712
0.335000000000000187,-4.880059089672402095
0.336000000000000187,-4.990313008667979666
0.337000000000000188,-5.098849779495243872
0.338000000000000189,-5.205661807795780582
0.339000000000000190,-5.310741441416312547
0.340000000000000191,-5.414081048255039441
0.341000000000000192,-5.515673089120853412
0.342000000000000193,-5.615510185727202952
0.343000000000000194,-5.713585183948771018
0.344000000000000195,-5.809891212473404565
0.345000000000000195,-5.904421736986874336
0.346000000000000196,-5.997170610030378768
0.347000000000000197,-6.088132116674318972
0.348000000000000198,-6.177301016153387003
0.349000000000000199,-6.264672579609647407
0.350000000000000200,-6.350242624091269938
0.351000000000000201,-6.434007542954726766
0.352000000000000202,-6.515964332818278137
0.353000000000000203,-6.596110617214007377
0.354000000000000203,-6.674444667084725502
0.355000000000000204,-6.750965418270506113
0.356000000000000205,-6.825672486128250505
0.357000000000000206,-6.898566177425661472
0.358000000000000207,-6.969647499648357503
0.359000000000000208,-7.038918167856939689
0.360000000000000209,-7.106380609227852752
0.361000000000000210,-7.172037965408717852
0.362000000000000210,-7.235894092816375078
0.363000000000000211,-7.297953561002008982
0.364000000000000212,-7.358221649204942594
0.365000000000000213,-7.416704341212851048
0.366000000000000214,-7.473408318642929871
0.367000000000000215,-7.528340952754748905
0.368000000000000216,-7.581510294902196634
0.369000000000000217,-7.632925065727809155
0.370000000000000218,-7.682594643199688100
0.371000000000000218,-7.730529049586881918
0.372000000000000219,-7.776738937465976775
0.373000000000000220,-7.821235574847764660
0.374000000000000221,-7.864030829509031761
0.375000000000000222,-7.905137152611120932
0.376000000000000223,-7.944567561683532730
0.377000000000000224,-7.982335623046745710
0.378000000000000225,-8.018455433745588223
0.379000000000000226,-8.052941603060608244
0.380000000000000226,-8.085809233662043738
0.381000000000000227,-8.117073902467041080
0.382000000000000228,-8.146751641258431320
0.383000000000000229,-8.174858917119490087
0.384000000000000230,-8.201412612736465491
0.385000000000000231,-8.226430006617809099
0.386000000000000232,-8.249928753275703741
0.387000000000000233,-8.271926863413302300
0.388000000000000234,-8.292442684157800059
0.389000000000000234,-8.311494879377434586
0.390000000000000235,-8.329102410117446453
0.391000000000000236,-8.345284515188017949
0.392000000000000237,-8.360060691934600996
0.393000000000000238,-8.373450677218986726
0.394000000000000239,-8.385474428637053279
0.395000000000000240,-8.396152105997341408
0.396000000000000241,-8.405504053082360372
0.397000000000000242,-8.413550779712707595
0.398000000000000242,-8.420312944132366084
0.399000000000000243,-8.425811335731477669
0.400000000000000244,-8.430066858121623596
0.401000000000000245,-8.433100512576768182
0.402000000000000246,-8.434933381851525525
0.403000000000000247,-8.435586614387126758
0.404000000000000248,-8.435081408913932322
0.405000000000000249,-8.433438999458152452
0.406000000000000250,-8.430680640759067757
0.407000000000000250,-8.426827594102054064
0.408000000000000251,-8.421901113571465203
0.409000000000000252,-8.415922432726510749
0.410000000000000253,-8.408912751702157351
0.411000000000000254,-8.400893224736332598
0.412000000000000255,-8.391884948123642829
0.413000000000000256,-8.381908948595308217
0.414000000000000257,-8.370986172123810576
0.415000000000000258,-8.359137473150662245
0.416000000000000258,-8.346383604234375753
0.417000000000000259,-8.332745206115701464
0.418000000000000260,-8.318242798196209264
0.419000000000000261,-8.302896769426036272
0.420000000000000262,-8.286727369595976000
0.421000000000000263,-8.269754701028865895
0.422000000000000264,-8.251998710664400605
0.423000000000000265,-8.233479182531707963
0.424000000000000266,-8.214215730603291021
0.425000000000000266,-8.194227792023657031
0.426000000000000267,-8.173534620705900977
0.427000000000000268,-8.152155281289129363
0.428000000000000269,-8.130108643449357686
0.429000000000000270,-8.107413376556495521
0.430000000000000271,-8.084087944669642312
0.431000000000000272,-8.060150601863080411
0.432000000000000273,-8.035619387874888275
0.433000000000000274,-8.010512124070377382
0.434000000000000274,-7.984846409712112347
0.435000000000000275,-7.958639618528541071
0.436000000000000276,-7.931908895573063667
0.437000000000000277,-7.904671154365279229
0.438000000000000278,-7.876943074306366199
0.439000000000000279,-7.848741098360425106
0.440000000000000280,-7.820081430993525373
0.441000000000000281,-7.790980036362476824
0.442000000000000282,-7.761452636745334921
0.443000000000000282,-7.731514711205397461
0.444000000000000283,-7.701181494481106782
0.445000000000000284,-7.670467976093711115
0.446000000000000285,-7.639388899665109811
0.447000000000000286,-7.607958762438221001
0.448000000000000287,-7.576191814992130347
0.449000000000000288,-7.544102061144847937
0.450000000000000289,-7.511703258036055431
0.451000000000000290,-7.479008916382795746
0.452000000000000290,-7.446032300900983891
0.453000000000000291,-7.412786430885665467
0.454000000000000292,-7.379284080943337543
0.455000000000000293,-7.345537781869476923
0.456000000000000294,-7.311559821664808112
0.457000000000000295,-7.277362246683853009
0.458000000000000296,-7.242956862909425197
0.459000000000000297,-7.208355237347026545
0.460000000000000298,-7.173568699533021231
0.461000000000000298,-7.138608343150830926
0.462000000000000299,-7.103485027749414371
0.463000000000000300,-7.068209380558386101
0.464000000000000301,-7.032791798394501193
0.465000000000000302,-6.997242449654121899
0.466000000000000303,-6.961571276386557372
0.467000000000000304,-6.925787996443339978
0.468000000000000305,-6.889902105698547885
0.469000000000000306,-6.853922880335474588
0.470000000000000306,-6.817859379195217784
0.471000000000000307,-6.781720446182508688
0.472000000000000308,-6.745514712724821393
0.473000000000000309,-6.709250600280401322
0.474000000000000310,-6.672936322891295902
0.475000000000000311,-6.636579889777479480
0.476000000000000312,-6.600189107968463809
0.477000000000000313,-6.563771584968570494
0.478000000000000314,-6.527334731452569372
0.479000000000000314,-6.490885763988295309
0.480000000000000315,-6.454431707782900318
0.481000000000000316,-6.417979399449825095
0.482000000000000317,-6.381535489793306759
0.483000000000000318,-6.345106446607689854
0.484000000000000319,-6.308698557488696679
0.485000000000000320,-6.272317932654077666
0.486000000000000321,-6.235970507771037674
0.487000000000000322,-6.199662046788060543
0.488000000000000322,-6.163398144768708953
0.489000000000000323,-6.127184230725350567
0.490000000000000324,-6.091025570450484317
0.491000000000000325,-6.054927269343776786
0.492000000000000326,-6.018894275232751667
0.493000000000000327,-5.982931381185451869
0.494000000000000328,-5.947043228313115826
0.495000000000000329,-5.911234308561398088
0.496000000000000330,-5.875508967488335621
0.497000000000000330,-5.839871407027819927
0.498000000000000331,-5.804325688236831482
0.499000000000000332,-5.768875734025399993
0.500000000000000333,-5.733525331867822317
0.501000000000000334,-5.698278136493959423
0.502000000000000335,-5.663137672559559022
0.503000000000000336,-5.628107337294492751
0.504000000000000337,-5.593190403127899835
0.505000000000000338,-5.558390020289317945
0.506000000000000338,-5.523709219384963731
0.507000000000000339,-5.489150913948277477
0.508000000000000340,-5.454717902964032916
0.509000000000000341,-5.420412873365342499
0.510000000000000342,-5.386238402502797840
0.511000000000000343,-5.352196960585290597
0.512000000000000344,-5.318290913091850314
0.513000000000000345,-5.284522523154066675
0.514000000000000346,-5.250893953908678746
0.515000000000000346,-5.217407270819810705
0.516000000000000347,-5.184064443970576086
0.517000000000000348,-5.150867350323776073
0.518000000000000349,-5.117817775951214010
0.519000000000000350,-5.084917418231635011
0.520000000000000351,-5.052167888016844799
0.521000000000000352,-5.019570711766028204
0.522000000000000353,-4.987127333647969785
0.523000000000000353,-4.954839117611132160
0.524000000000000354,-4.922707349421566292
0.525000000000000355,-4.890733238668478755
0.526000000000000356,-4.858917920737500395
0.527000000000000357,-4.827262458751720331
0.528000000000000358,-4.795767845480336966
0.529000000000000359,-4.764435005215192476
0.530000000000000360,-4.733264795615056642
0.531000000000000361,-4.702258009517930049
0.532000000000000361,-4.671415376721349766
0.533000000000000362,-4.640737565730914227
0.534000000000000363,-4.610225185477140109
0.535000000000000364,-4.579878787000832396
0.536000000000000365,-4.549698865107143497
0.537000000000000366,-4.519685859988570975
0.538000000000000367,-4.489840158816983617
0.539000000000000368,-4.460162097305111928
0.540000000000000369,-4.430651961237513703
0.541000000000000369,-4.401309987971477433
0.542000000000000370,-4.372136367907946131
0.543000000000000371,-4.343131245932888795
0.544000000000000372,-4.314294722829314921
0.545000000000000373,-4.285626856660271322
0.546000000000000374,-4.257127664123084188
0.547000000000000375,-4.228797121875172316
0.548000000000000376,-4.200635167831819672
0.549000000000000377,-4.172641702436102662
0.550000000000000377,-4.144816589901409110
0.551000000000000378,-4.117159659426809171
0.552000000000000379,-4.089670706385725829
0.553000000000000380,-4.062349493488109253
0.554000000000000381,-4.035195751916557327
0.555000000000000382,-4.008209182436762497
0.556000000000000383,-3.981389456482502087
0.557000000000000384,-3.954736217215720551
0.558000000000000385,-3.928249080561871942
0.559000000000000385,-3.901927636221047102
0.560000000000000386,-3.875771448655132900
0.561000000000000387,-3.849780058051455178
0.562000000000000388,-3.823952981263173623
0.563000000000000389,-3.798289712726909073
0.564000000000000390,-3.772789725357868829
0.565000000000000391,-3.747452471422896281
0.566000000000000392,-3.722277383391760175
0.567000000000000393,-3.697263874767140912
0.568000000000000393,-3.672411340893538600
0.569000000000000394,-3.647719159745561601
0.570000000000000395,-3.623186692695989031
0.571000000000000396,-3.598813285263805284
0.572000000000000397,-3.574598267842775901
0.573000000000000398,-3.550540956410726867
0.574000000000000399,-3.526640653220026955
0.575000000000000400,-3.502896647469520452
0.576000000000000401,-3.479308215958282879
0.577000000000000401,-3.455874623721650440
0.578000000000000402,-3.432595124649655993
0.579000000000000403,-3.409468962088386235
0.580000000000000404,-3.386495369424570523
0.581000000000000405,-3.363673570653625156
0.582000000000000406,-3.341002780931623839
0.583000000000000407,-3.318482207111406179
0.584000000000000408,-3.296111048263235865
0.585000000000000409,-3.273888496180259899
0.586000000000000409,-3.251813735869104161
0.587000000000000410,-3.229885946025967236
0.588000000000000411,-3.208104299498399037
0.589000000000000412,-3.186467963733235820
0.590000000000000413,-3.164976101210816850
0.591000000000000414,-3.143627869865908586
0.592000000000000415,-3.122422423495583743
0.593000000000000416,-3.101358912154309255
0.594000000000000417,-3.080436482536553999
0.595000000000000417,-3.059654278347296419
0.596000000000000418,-3.039011440660435159
0.597000000000000419,-3.018507108265748418
0.598000000000000420,-2.998140418004300756
0.599000000000000421,-2.977910505092860483
0.600000000000000422,-2.957816503437375566
0.601000000000000423,-2.937857545935883774
0.602000000000000424,-2.918032764771067988
0.603000000000000425,-2.898341291692704047
0.604000000000000425,-2.878782258290228047
0.605000000000000426,-2.859354796255704656
0.606000000000000427,-2.840058037637435806
0.607000000000000428,-2.820891115084287470
0.608000000000000429,-2.801853162081281656
0.609000000000000430,-2.782943313176273303
0.610000000000000431,-2.764160704198306728
0.611000000000000432,-2.745504472467601431
0.612000000000000433,-2.726973756997486564
