# ZnS-sphalerite-110-coated_PROPAN1OL-AC
# h[nm],U(h)[kJ/mol]
0.149999999999999994,111.329027243369679923
0.150999999999999995,109.390132954745723737
0.151999999999999996,107.303631929308266990
0.152999999999999997,105.203519241393564698
0.153999999999999998,103.148720141141239992
0.154999999999999999,101.157179610140062209
0.156000000000000000,99.226780791254526548
0.157000000000000001,97.347538548006397718
0.158000000000000002,95.508182887517477866
0.159000000000000002,93.699270893511894087
0.160000000000000003,91.914261541117596721
0.161000000000000004,90.149488188214235151
0.162000000000000005,88.403615820805242720
0.163000000000000006,86.676933370060140760
0.164000000000000007,84.970674438437498566
0.165000000000000008,83.286459153663443544
0.166000000000000009,81.625888278101911055
0.167000000000000010,79.990285498384110952
0.168000000000000010,78.380565938567698936
0.169000000000000011,76.797201990334116317
0.170000000000000012,75.240257126776128871
0.171000000000000013,73.709461495662424113
0.172000000000000014,72.204307841224789399
0.173000000000000015,70.724151475926902322
0.174000000000000016,69.268302912357540890
0.175000000000000017,67.836106004037560524
0.176000000000000018,66.426997884635284208
0.177000000000000018,65.040549625048910798
0.178000000000000019,63.676488411900933784
0.179000000000000020,62.334703293139355651
0.180000000000000021,61.015237254687598067
0.181000000000000022,59.718268703072340031
0.182000000000000023,58.444085439149091599
0.183000000000000024,57.193054009310550612
0.184000000000000025,55.965586988738138530
0.185000000000000026,54.762110346440955766
0.186000000000000026,53.583032609754162934
0.187000000000000027,52.428717119871464547
0.188000000000000028,51.299458272638368328
0.189000000000000029,50.195462284569153155
0.190000000000000030,49.116832720600356765
0.191000000000000031,48.063560770218757057
0.192000000000000032,47.035520061468893971
0.193000000000000033,46.032465654651012699
0.194000000000000034,45.054036754415861310
0.195000000000000034,44.099762614731744748
0.196000000000000035,43.169071079806961677
0.197000000000000036,42.261299199516493275
0.198000000000000037,41.375705374541531967
0.199000000000000038,40.511482519116597700
0.200000000000000039,39.667771773406180102
0.201000000000000040,38.843676349146747384
0.202000000000000041,38.038275147967056000
0.203000000000000042,37.250635849020753199
0.204000000000000042,36.479827219069164812
0.205000000000000043,35.724930452285406091
0.206000000000000044,34.985049397595957998
0.207000000000000045,34.259319577503170251
0.208000000000000046,33.546915943524453496
0.209000000000000047,32.847059349390050897
0.210000000000000048,32.159021753919347475
0.211000000000000049,31.482130191167208011
0.212000000000000050,30.815769566239605837
0.213000000000000050,30.159384351456349549
0.214000000000000051,29.512479269676987315
0.215000000000000052,28.874619060029420581
0.216000000000000053,28.245427426429216666
0.217000000000000054,27.624585271590866853
0.218000000000000055,27.011828319133883269
0.219000000000000056,26.406944224286139189
0.220000000000000057,25.809769269954870197
0.221000000000000058,25.220184739925635142
0.222000000000000058,24.638113054964641435
0.223000000000000059,24.063513750923629431
0.224000000000000060,23.496379370817439991
0.225000000000000061,22.936731335471684190
0.226000000000000062,22.384615849900278306
0.227000000000000063,21.840099895214859060
0.228000000000000064,21.303267348713397666
0.229000000000000065,20.774215267935979057
0.230000000000000066,20.253050367988326030
0.231000000000000066,19.739885715370128594
0.232000000000000067,19.234837655943859858
0.233000000000000068,18.738022989562338694
0.234000000000000069,18.249556399250828065
0.235000000000000070,17.769548138710632657
0.236000000000000071,17.298101978269141199
0.237000000000000072,16.835313406228046063
0.238000000000000073,16.381268079838715579
0.239000000000000073,15.936040517836435271
0.240000000000000074,15.499693024562665400
0.241000000000000075,15.072274834172691982
0.242000000000000076,14.653821462228915351
0.243000000000000077,14.244354251090342700
0.244000000000000078,13.843880094894165822
0.245000000000000079,13.452391329555762667
0.246000000000000080,13.069865773061277281
0.247000000000000081,12.696266901361664026
0.248000000000000081,12.331544145376017951
0.249000000000000082,11.975633294947924057
0.250000000000000111,11.628456996050122285
0.251000000000000112,11.289925328078661337
0.252000000000000113,10.959936448698559985
0.253000000000000114,10.638377294383149163
0.254000000000000115,10.325124325510177670
0.255000000000000115,10.020044305629458137
0.256000000000000116,9.722995105283612105
0.257000000000000117,9.433826521537280740
0.258000000000000118,9.152381105140737105
0.259000000000000119,8.878494988013175160
0.260000000000000120,8.611998704472700439
0.261000000000000121,8.352718000359297790
0.262000000000000122,8.100474624888002850
0.263000000000000123,7.855087100730240302
0.264000000000000123,7.616371468447272086
0.265000000000000124,7.384142001991159887
0.266000000000000125,7.158211892541889831
0.267000000000000126,6.938393898465700538
0.268000000000000127,6.724500959657310872
0.269000000000000128,6.516346774969141720
0.270000000000000129,6.313746341833327946
0.271000000000000130,6.116516457548558883
0.272000000000000131,5.924476182034974059
0.273000000000000131,5.737447262157026273
0.274000000000000132,5.555254517978758244
0.275000000000000133,5.377726191548980239
0.276000000000000134,5.204694259017742297
0.277000000000000135,5.035994707062037001
0.278000000000000136,4.871467774748696300
0.279000000000000137,4.710958162088848766
0.280000000000000138,4.554315206642471914
0.281000000000000139,4.401393029614512287
0.282000000000000139,4.252050652948891951
0.283000000000000140,4.106152088973614944
0.284000000000000141,3.963566404181933844
0.285000000000000142,3.824167758751871649
0.286000000000000143,3.687835423411083724
0.287000000000000144,3.554453775247775837
0.288000000000000145,3.423912274051420290
0.289000000000000146,3.296105420742350134
0.290000000000000147,3.170932699415886624
0.291000000000000147,3.048298504487741312
0.292000000000000148,2.928112054382094431
0.293000000000000149,2.810287293154611010
0.294000000000000150,2.694742781389019459
0.295000000000000151,2.581401577649738321
0.296000000000000152,2.470191111714302501
0.297000000000000153,2.361043050749178640
0.298000000000000154,2.253893159531016099
0.299000000000000155,2.148681155753560112
0.300000000000000155,2.045350561398262546
0.301000000000000156,1.943848551085038068
0.302000000000000157,1.844125798258209770
0.303000000000000158,1.746136320002803499
0.304000000000000159,1.649837321227221931
0.305000000000000160,1.555189038891003461
0.306000000000000161,1.462154586900537678
0.307000000000000162,1.370699802241561516
0.308000000000000163,1.280793092865403437
0.309000000000000163,1.192405287795892166
0.310000000000000164,1.105509489876050466
0.311000000000000165,1.020080931528166701
0.312000000000000166,0.936096833857358868
0.313000000000000167,0.853536269387758617
0.314000000000000168,0.772380028681537434
0.315000000000000169,0.692610491054410748
0.316000000000000170,0.614211499566862718
0.317000000000000171,0.537168240438211098
0.318000000000000171,0.461467127000611543
0.319000000000000172,0.387095688282035666
0.320000000000000173,0.314042462281542423
0.321000000000000174,0.242296893976153699
0.322000000000000175,0.171849238076611843
0.323000000000000176,0.102690466529164054
0.324000000000000177,0.034812180742077106
0.325000000000000178,-0.031793471501079917
0.326000000000000179,-0.097133874494671174
0.327000000000000179,-0.161216018497349733
0.328000000000000180,-0.224046569130519846
0.329000000000000181,-0.285631932378616171
0.330000000000000182,-0.345978315290274563
0.331000000000000183,-0.405091782487986163
0.332000000000000184,-0.462978308600697219
0.333000000000000185,-0.519643826740052717
0.334000000000000186,-0.575094273145990265
0.335000000000000187,-0.629335628131484137
0.336000000000000187,-0.682373953459675109
0.337000000000000188,-0.734215426288766349
0.338000000000000189,-0.784866369822232457
0.339000000000000190,-0.834333280802637134
0.340000000000000191,-0.882622853987832690
0.341000000000000192,-0.929742003748386558
0.342000000000000193,-0.975697882924197679
0.343000000000000194,-1.020497899077374537
0.344000000000000195,-1.064149728276650553
0.345000000000000195,-1.106661326547123458
0.346000000000000196,-1.148040939116403258
0.347000000000000197,-1.188297107586083978
0.348000000000000198,-1.227438675154492342
0.349000000000000199,-1.265474790013656481
0.350000000000000200,-1.302414907040313929
0.351000000000000201,-1.338268787897298306
0.352000000000000202,-1.373046499658192587
0.353000000000000203,-1.406758412064504027
0.354000000000000203,-1.439415193520910519
0.355000000000000204,-1.471027805930286592
0.356000000000000205,-1.501607498466463797
0.357000000000000206,-1.531165800378890607
0.358000000000000207,-1.559714512919216478
0.359000000000000208,-1.587265700476312213
0.360000000000000209,-1.613831681002195539
0.361000000000000210,-1.639425015807481234
0.362000000000000210,-1.664058498801369357
0.363000000000000211,-1.687745145247278256
0.364000000000000212,-1.710498180101739818
0.365000000000000213,-1.732331026000409224
0.366000000000000214,-1.753257290951668379
0.367000000000000215,-1.773290755794731499
0.368000000000000216,-1.792445361475983656
0.369000000000000217,-1.810735196193752783
0.370000000000000218,-1.828174482458872818
0.371000000000000218,-1.844777564114979285
0.372000000000000219,-1.860558893359800736
0.373000000000000220,-1.875533017805667058
0.374000000000000221,-1.889714567614710017
0.375000000000000222,-1.903118242741529631
0.376000000000000223,-1.915758800313702936
0.377000000000000224,-1.927651042177804142
0.378000000000000225,-1.938809802636397794
0.379000000000000226,-1.949249936399142680
0.380000000000000226,-1.958986306769112673
0.381000000000000227,-1.968033774083087106
0.382000000000000228,-1.976407184422984242
0.383000000000000229,-1.984121358613425201
0.384000000000000230,-1.991191081518775663
0.385000000000000231,-1.997631091651425050
0.386000000000000232,-2.003456071101205715
0.387000000000000233,-2.008680635794692027
0.388000000000000234,-2.013319326091345562
0.389000000000000234,-2.017386597722497843
0.390000000000000235,-2.020896813077567522
0.391000000000000236,-2.023864232840998145
0.392000000000000237,-2.026303007982115822
0.393000000000000238,-2.028227172099236419
0.394000000000000239,-2.029650634118199015
0.395000000000000240,-2.030587171344804709
0.396000000000000241,-2.031050422869705052
0.397000000000000242,-2.031053883323475695
0.398000000000000242,-2.030610896979069047
0.399000000000000243,-2.029734652197978217
0.400000000000000244,-2.028438176216003086
0.401000000000000245,-2.026734330263951556
0.402000000000000246,-2.024635805017982904
0.403000000000000247,-2.022155116374013684
0.404000000000000248,-2.019304601540134136
0.405000000000000249,-2.016096415440591816
0.406000000000000250,-2.012542527424608263
0.407000000000000250,-2.008654718273058304
0.408000000000000251,-2.004444577495672952
0.409000000000000252,-1.999923500911364727
0.410000000000000253,-1.995102688503952892
0.411000000000000254,-1.989993142545531501
0.412000000000000255,-1.984605665979487288
0.413000000000000256,-1.978950861055223553
0.414000000000000257,-1.973039128206376391
0.415000000000000258,-1.966880665164504549
0.416000000000000258,-1.960485466299956459
0.417000000000000259,-1.953863322181823126
0.418000000000000260,-1.947023819348760343
0.419000000000000261,-1.939976340282559164
0.420000000000000262,-1.932730063576354240
0.421000000000000263,-1.925293964289496618
0.422000000000000264,-1.917676814481026781
0.423000000000000265,-1.909887183913970388
0.424000000000000266,-1.901933440922676244
0.425000000000000266,-1.893823753435457391
0.426000000000000267,-1.885566090145086138
0.427000000000000268,-1.877168221819650373
0.428000000000000269,-1.868637722746514074
0.429000000000000270,-1.859981972302262365
0.430000000000000271,-1.851208156641554581
0.431000000000000272,-1.842323270498140930
0.432000000000000273,-1.833334119091256209
0.433000000000000274,-1.824247320130935934
0.434000000000000274,-1.815069305915826048
0.435000000000000275,-1.805806325517328448
0.436000000000000276,-1.796464447044043400
0.437000000000000277,-1.787049559980604885
0.438000000000000278,-1.777567377595268283
0.439000000000000279,-1.768023439410718378
0.440000000000000280,-1.758423113732705101
0.441000000000000281,-1.748771600231377787
0.442000000000000282,-1.739073932570319503
0.443000000000000282,-1.729334981078365363
0.444000000000000283,-1.719559455459654718
0.445000000000000284,-1.709751907537324644
0.446000000000000285,-1.699916734026522436
0.447000000000000286,-1.690058179332671218
0.448000000000000287,-1.680180338370804494
0.449000000000000288,-1.670287159402309429
0.450000000000000289,-1.660382446885259711
0.451000000000000290,-1.650469864334854986
0.452000000000000290,-1.640552937190618454
0.453000000000000291,-1.630635055687046586
0.454000000000000292,-1.620719477724707591
0.455000000000000293,-1.610809331738783046
0.456000000000000294,-1.600907619562301765
0.457000000000000295,-1.591017219281384953
0.458000000000000296,-1.581140888079957563
0.459000000000000297,-1.571281265071571287
0.460000000000000298,-1.561440874116024835
0.461000000000000298,-1.551622126618668718
0.462000000000000299,-1.541827324310363512
0.463000000000000300,-1.532058662006151817
0.464000000000000301,-1.522318230340910628
0.465000000000000302,-1.512608018480253946
0.466000000000000303,-1.502929916805120891
0.467000000000000304,-1.493285719568589132
0.468000000000000305,-1.483677127523533201
0.469000000000000306,-1.474105750519842717
0.470000000000000306,-1.464573110070073847
0.471000000000000307,-1.455080641882339876
0.472000000000000308,-1.445629698359563786
0.473000000000000309,-1.436221551064082558
0.474000000000000310,-1.426857393146802933
0.475000000000000311,-1.417538341740142815
0.476000000000000312,-1.408265440314100836
0.477000000000000313,-1.399039660994799927
0.478000000000000314,-1.389861906844973571
0.479000000000000314,-1.380733014105975709
0.480000000000000315,-1.371653754400802061
0.481000000000000316,-1.362624836897876612
0.482000000000000317,-1.353646910435227113
0.483000000000000318,-1.344720565604874407
0.484000000000000319,-1.335846336797205547
0.485000000000000320,-1.327024704205236327
0.486000000000000321,-1.318256095788657101
0.487000000000000322,-1.309540889197637892
0.488000000000000322,-1.300879413656353956
0.489000000000000323,-1.292271951806367225
0.490000000000000324,-1.283718741509860539
0.491000000000000325,-1.275219977612903621
0.492000000000000326,-1.266775813668872264
0.493000000000000327,-1.258386363622260973
0.494000000000000328,-1.250051703453050500
0.495000000000000329,-1.241771872781957331
0.496000000000000330,-1.233546876436757644
0.497000000000000330,-1.225376685980098079
0.498000000000000331,-1.217261241199005584
0.499000000000000332,-1.209200451556566858
0.500000000000000333,-1.201194197606080483
0.501000000000000334,-1.193242332368077641
0.502000000000000335,-1.185344682670671057
0.503000000000000336,-1.177501050453618969
0.504000000000000337,-1.169711214036580404
0.505000000000000338,-1.161974929351988983
0.506000000000000338,-1.154291931143061944
0.507000000000000339,-1.146661934127394478
0.508000000000000340,-1.139084634126636963
0.509000000000000341,-1.131559709162814897
0.510000000000000342,-1.124086820521713603
0.511000000000000343,-1.116665613783947020
0.512000000000000344,-1.109295719824163307
0.513000000000000345,-1.101976755778964590
0.514000000000000346,-1.094708325984092401
0.515000000000000346,-1.087490022881377083
0.516000000000000347,-1.080321427896019371
0.517000000000000348,-1.073202112284809440
0.518000000000000349,-1.066131637955717748
0.519000000000000350,-1.059109558259547113
0.520000000000000351,-1.052135418754083229
0.521000000000000352,-1.045208757941394451
0.522000000000000353,-1.038329107978752663
0.523000000000000353,-1.031495995363784335
0.524000000000000354,-1.024708941594396183
0.525000000000000355,-1.017967463803987060
0.526000000000000356,-1.011271075372534911
0.527000000000000357,-1.004619286514094156
0.528000000000000358,-0.998011604841209654
0.529000000000000359,-0.991447535906848865
0.530000000000000360,-0.984926583724302973
0.531000000000000361,-0.978448251265665703
0.532000000000000361,-0.972012040939348787
0.533000000000000362,-0.965617455047195983
0.534000000000000363,-0.959263996221675463
0.535000000000000364,-0.952951167843690938
0.536000000000000365,-0.946678474441470685
0.537000000000000366,-0.940445422071087278
0.538000000000000367,-0.934251518679013460
0.539000000000000368,-0.928096274447310021
0.540000000000000369,-0.921979202121793739
0.541000000000000369,-0.915899817323779120
0.542000000000000370,-0.909857638845744332
0.543000000000000371,-0.903852188931461575
0.544000000000000372,-0.897882993540997321
0.545000000000000373,-0.891949582601036517
0.546000000000000374,-0.886051490240959083
0.547000000000000375,-0.880188255015092347
0.548000000000000376,-0.874359420111585295
0.549000000000000377,-0.868564533548274675
0.550000000000000377,-0.862803148355988592
0.551000000000000378,-0.857074822749637755
0.552000000000000379,-0.851379120287550806
0.553000000000000380,-0.845715610019361685
0.554000000000000381,-0.840083866622866493
0.555000000000000382,-0.834483470530242855
0.556000000000000383,-0.828914008043892481
0.557000000000000384,-0.823375071442399409
0.558000000000000385,-0.817866259076812652
0.559000000000000385,-0.812387175457690347
0.560000000000000386,-0.806937431333182298
0.561000000000000387,-0.801516643758496627
0.562000000000000388,-0.796124436157047755
0.563000000000000389,-0.790760438373622865
0.564000000000000390,-0.785424286719834996
0.565000000000000391,-0.780115624012184705
0.566000000000000392,-0.774834099602993098
0.567000000000000393,-0.769579369404526759
0.568000000000000393,-0.764351095906523836
0.569000000000000394,-0.759148948187455930
0.570000000000000395,-0.753972601919750351
0.571000000000000396,-0.748821739369211148
0.572000000000000397,-0.743696049388945402
0.573000000000000398,-0.738595227407955579
0.574000000000000399,-0.733518975414712338
0.575000000000000400,-0.728467001935866554
0.576000000000000401,-0.723439022010361255
0.577000000000000401,-0.718434757159178261
0.578000000000000402,-0.713453935350864765
0.579000000000000403,-0.708496290963093411
0.580000000000000404,-0.703561564740472156
0.581000000000000405,-0.698649503748718481
0.582000000000000406,-0.693759861325480065
0.583000000000000407,-0.688892397027901948
0.584000000000000408,-0.684046876577178109
0.585000000000000409,-0.679223071800219014
0.586000000000000409,-0.674420760568607891
0.587000000000000410,-0.669639726735040464
0.588000000000000411,-0.664879760067335068
0.589000000000000412,-0.660140656180251528
0.590000000000000413,-0.655422216465175955
0.591000000000000414,-0.650724248017881091
0.592000000000000415,-0.646046563564473764
0.593000000000000416,-0.641388981385641821
0.594000000000000417,-0.636751325239357735
0.595000000000000417,-0.632133424282177669
0.596000000000000418,-0.627535112989171640
0.597000000000000419,-0.622956231072728461
0.598000000000000420,-0.618396623400212841
0.599000000000000421,-0.613856139910694765
0.600000000000000422,-0.609334635530778046
0.601000000000000423,-0.604831970089655502
0.602000000000000424,-0.600348008233502872
0.603000000000000425,-0.595882619339279440
0.604000000000000425,-0.591435677428019613
0.605000000000000426,-0.587007061077727821
0.606000000000000427,-0.582596653335960335
0.607000000000000428,-0.578204341632096885
0.608000000000000429,-0.573830017689532457
0.609000000000000430,-0.569473577437662914
0.610000000000000431,-0.565134920923932915
0.611000000000000432,-0.560813952225857282
0.612000000000000433,-0.556510579363157620
0.613000000000000433,-0.552224714210078793
0.614000000000000434,-0.547956272407905343
