# ZnS-sphalerite-110-coated_METHOXYMETHANE-AC
# h[nm],U(h)[kJ/mol]
0.149999999999999994,82.744422591621940910
0.150999999999999995,81.107245099932484322
0.151999999999999996,79.475404008238058395
0.152999999999999997,77.880736480197697347
0.153999999999999998,76.334539078914048105
0.154999999999999999,74.836279257633094630
0.156000000000000000,73.379715380577110295
0.157000000000000001,71.956847861565705671
0.158000000000000002,70.560210644319155904
0.159000000000000002,69.183984526270549509
0.160000000000000003,67.824336218347610838
0.161000000000000004,66.479295622738902694
0.162000000000000005,65.148397271356628835
0.163000000000000006,63.832238524374908195
0.164000000000000007,62.532049433248424464
0.165000000000000008,61.249326478263320439
0.166000000000000009,59.985552616762696232
0.167000000000000010,58.742006674209029882
0.168000000000000010,57.519653575820413494
0.169000000000000011,56.319101052612360547
0.170000000000000012,55.140606457703952969
0.171000000000000013,53.984117791818754029
0.172000000000000014,52.849334916732722434
0.173000000000000015,51.735779490763924571
0.174000000000000016,50.642864891996367760
0.175000000000000017,49.569959988630813541
0.176000000000000018,48.516442893558220817
0.177000000000000018,47.481742719781721007
0.178000000000000019,46.465368816863190204
0.179000000000000020,45.466928038804113044
0.180000000000000021,44.486131316348462406
0.181000000000000022,43.522791237946947263
0.182000000000000023,42.576812542276719853
0.183000000000000024,41.648177447132148643
0.184000000000000025,40.736927634662905007
0.185000000000000026,39.843144523954720171
0.186000000000000026,38.966929223684530825
0.187000000000000027,38.108383297423344516
0.188000000000000028,37.267591212704971326
0.189000000000000029,36.444605096932569666
0.190000000000000030,35.639432198331597590
0.191000000000000031,34.852025254267744003
0.192000000000000032,34.082275805014376147
0.193000000000000033,33.330010358818086047
0.194000000000000034,32.594989212548327373
0.195000000000000034,31.876907658863153472
0.196000000000000035,31.175399262535655964
0.197000000000000036,30.490040861866837929
0.198000000000000037,29.820358942379222356
0.199000000000000038,29.165837035757967044
0.200000000000000039,28.525923814028072201
0.201000000000000040,27.900041574277985035
0.202000000000000041,27.287594840273619923
0.203000000000000042,26.687978841827117549
0.204000000000000042,26.100587668939674302
0.205000000000000043,25.524821934022160264
0.206000000000000044,24.960095810726993903
0.207000000000000045,24.405843351206176095
0.208000000000000046,23.861524014301405572
0.209000000000000047,23.326627364847666968
0.210000000000000048,22.800676928687686029
0.211000000000000049,22.283233209057396351
0.212000000000000050,21.773895887733004884
0.213000000000000050,21.272305248846866021
0.214000000000000051,20.778142874761538650
0.215000000000000052,20.291131672072875602
0.216000000000000053,19.811035291954471660
0.217000000000000054,19.337657012935711265
0.218000000000000055,18.870838156109353889
0.219000000000000056,18.410456102972382553
0.220000000000000057,17.956421984885245990
0.221000000000000058,17.508678110748871148
0.222000000000000058,17.067195196176538019
0.223000000000000059,16.631969453401502790
0.224000000000000060,16.203019596599197882
0.225000000000000061,15.780383812389150222
0.226000000000000062,15.364116740164467600
0.227000000000000063,14.954286501703389689
0.228000000000000064,14.550971814355866840
0.229000000000000065,14.154259217055937370
0.230000000000000066,13.764240433561132804
0.231000000000000066,13.381009892716594578
0.232000000000000067,13.004662421228507796
0.233000000000000068,12.635291120436439982
0.234000000000000069,12.272985434917892178
0.235000000000000070,11.917829417449883778
0.236000000000000071,11.569900191894765484
0.237000000000000072,11.229266612965693284
0.238000000000000073,10.895988119553056350
0.239000000000000073,10.570113776343331935
0.240000000000000074,10.251681496817898420
0.241000000000000075,9.940717439365645447
0.242000000000000076,9.637235567156308136
0.243000000000000077,9.341237361581297804
0.244000000000000078,9.052711678453523092
0.245000000000000079,8.771634735744401112
0.246000000000000080,8.497970221404429481
0.247000000000000081,8.231669509740916268
0.248000000000000081,7.972671974894045555
0.249000000000000082,7.720905390139904512
0.250000000000000111,7.476286402039240997
0.251000000000000112,7.238721068826268201
0.252000000000000113,7.008105452877204655
0.253000000000000114,6.784326257600236332
0.254000000000000115,6.567261499632438770
0.255000000000000115,6.356781207805204836
0.256000000000000116,6.152748140936187937
0.257000000000000117,5.955018517113931154
0.258000000000000118,5.763442747753665607
0.259000000000000119,5.577866170311112981
0.260000000000000120,5.398129774140422832
0.261000000000000121,5.224070914567606749
0.262000000000000122,5.055524010816787595
0.263000000000000123,4.892321223971302757
0.264000000000000123,4.734293111670866416
0.265000000000000124,4.581269256739059159
0.266000000000000125,4.433078867399382617
0.267000000000000126,4.289551347173363283
0.268000000000000127,4.150516832958698998
0.269000000000000128,4.015806700160452714
0.270000000000000129,3.885254034092813669
0.271000000000000130,3.758694067183768084
0.272000000000000131,3.635964581801250262
0.273000000000000131,3.516906278776926964
0.274000000000000132,3.401363111934700978
0.275000000000000133,3.289182589135504209
0.276000000000000134,3.180216040530087884
0.277000000000000135,3.074318854868100637
0.278000000000000136,2.971350684846120860
0.279000000000000137,2.871175622591221721
0.280000000000000138,2.773662346471345241
0.281000000000000139,2.678684240500285085
0.282000000000000139,2.586119487665579975
0.283000000000000140,2.495851138552607207
0.284000000000000141,2.407767156669669895
0.285000000000000142,2.321760441897642746
0.286000000000000143,2.237728833495360004
0.287000000000000144,2.155575094089421384
0.288000000000000145,2.075206876065382566
0.289000000000000146,1.996536671758085024
0.290000000000000147,1.919481748812079669
0.291000000000000147,1.843964072050913838
0.292000000000000148,1.769910213156138168
0.293000000000000149,1.697251249415030472
0.294000000000000150,1.625922652750361408
0.295000000000000151,1.555864170196842311
0.296000000000000152,1.487019696938155722
0.297000000000000153,1.419337142965737542
0.298000000000000154,1.352768294366690993
0.299000000000000155,1.287268670193612241
0.300000000000000155,1.222797375814134835
0.301000000000000156,1.159316953583291232
0.302000000000000157,1.096793231627055221
0.303000000000000158,1.035195171471897435
0.304000000000000159,0.974494715202018802
0.305000000000000160,0.914666632774474797
0.306000000000000161,0.855688370071813198
0.307000000000000162,0.797539898223008081
0.308000000000000163,0.740203564676341963
0.309000000000000163,0.683663946462204519
0.310000000000000164,0.627907706040210067
0.311000000000000165,0.572923450083241637
0.312000000000000166,0.518701591511104843
0.313000000000000167,0.465234215048681121
0.314000000000000168,0.412514946547522132
0.315000000000000169,0.360538826275925484
0.316000000000000170,0.309302186350522146
0.317000000000000171,0.258802532452501566
0.318000000000000171,0.209038429943481846
0.319000000000000172,0.160009394469737110
0.320000000000000173,0.111715787119281804
0.321000000000000174,0.064158714173628256
0.322000000000000175,0.017339931475178184
0.323000000000000176,-0.028738246587932982
0.324000000000000177,-0.074073033495348994
0.325000000000000178,-0.118661252438128889
0.326000000000000179,-0.162499413639000501
0.327000000000000179,-0.205583787208657304
0.328000000000000180,-0.247910471609502109
0.329000000000000181,-0.289475457808783976
0.330000000000000182,-0.330274689212233741
0.331000000000000183,-0.370304117477792016
0.332000000000000184,-0.409559754315868829
0.333000000000000185,-0.448037719388881261
0.334000000000000186,-0.485734284427939311
0.335000000000000187,-0.522645913688825958
0.336000000000000187,-0.558769300873007801
0.337000000000000188,-0.594101402641925014
0.338000000000000189,-0.628639468855079708
0.339000000000000190,-0.662381069663659394
0.340000000000000191,-0.695324119592129031
0.341000000000000192,-0.727466898740675827
0.342000000000000193,-0.758808071240846482
0.343000000000000194,-0.789346701096200976
0.344000000000000195,-0.819082265538385146
0.345000000000000195,-0.848014666027848030
0.346000000000000196,-0.876144237026183936
0.347000000000000197,-0.903471752665215733
0.348000000000000198,-0.929998431435337891
0.349000000000000199,-0.955725939013023273
0.350000000000000200,-0.980656389344589763
0.351000000000000201,-1.004792344100191137
0.352000000000000202,-1.028136810608869967
0.353000000000000203,-1.050693238382207628
0.354000000000000203,-1.072465514330709579
0.355000000000000204,-1.093457956773471240
0.356000000000000205,-1.113675308338283543
0.357000000000000206,-1.133122727845697231
0.358000000000000207,-1.151805781266796336
0.359000000000000208,-1.169730431841069729
0.360000000000000209,-1.186903029436976009
0.361000000000000210,-1.203330299234175671
0.362000000000000210,-1.219019329802967899
0.363000000000000211,-1.233977560652757655
0.364000000000000212,-1.248212769318044923
0.365000000000000213,-1.261733058046834444
0.366000000000000214,-1.274546840153108818
0.367000000000000215,-1.286662826091591993
0.368000000000000216,-1.298090009309922577
0.369000000000000217,-1.308837651930005785
0.370000000000000218,-1.318915270307456256
0.371000000000000218,-1.328332620514826701
0.372000000000000219,-1.337099683791595606
0.373000000000000220,-1.345226652000983680
0.374000000000000221,-1.352723913130935429
0.375000000000000222,-1.359602036873978959
0.376000000000000223,-1.365871760318231320
0.377000000000000224,-1.371543973779222991
0.378000000000000225,-1.376629706799981978
0.379000000000000226,-1.381140114344502567
0.380000000000000226,-1.385086463207672924
0.381000000000000227,-1.388480118662442253
0.382000000000000228,-1.391332531363340452
0.383000000000000229,-1.393655224523325797
0.384000000000000230,-1.395459781379214892
0.385000000000000231,-1.396757832959389489
0.386000000000000232,-1.397561046165564536
0.387000000000000233,-1.397881112179173657
0.388000000000000234,-1.397729735201199919
0.389000000000000234,-1.397118621533146143
0.390000000000000235,-1.396059469005325848
0.391000000000000236,-1.394563956757594703
0.392000000000000237,-1.392643735376387415
0.393000000000000238,-1.390310417390914655
0.394000000000000239,-1.387575568130293480
0.395000000000000240,-1.384450696942510328
0.396000000000000241,-1.380947248775178382
0.397000000000000242,-1.377076596117240204
0.398000000000000242,-1.372850031300042239
0.399000000000000243,-1.368278759155425295
0.400000000000000244,-1.363373890027881785
0.401000000000000245,-1.358146433137248810
0.402000000000000246,-1.352607290287736630
0.403000000000000247,-1.346767249918740195
0.404000000000000248,-1.340636981492300261
0.405000000000000249,-1.334227030211752929
0.406000000000000250,-1.327547812065629440
0.407000000000000250,-1.320609609190651623
0.408000000000000251,-1.313422565547244458
0.409000000000000252,-1.305996682900838701
0.410000000000000253,-1.298341817101891227
0.411000000000000254,-1.290467674657443720
0.412000000000000255,-1.282383809586792989
0.413000000000000256,-1.274099620553788670
0.414000000000000257,-1.265624348268008292
0.415000000000000258,-1.256967073147181591
0.416000000000000258,-1.248136713232929740
0.417000000000000259,-1.239142022352019534
0.418000000000000260,-1.229991588515205958
0.419000000000000261,-1.220693832545747481
0.420000000000000262,-1.211257006929693958
0.421000000000000263,-1.201689194880088740
0.422000000000000264,-1.191998309607183781
0.423000000000000265,-1.182192093786919695
0.424000000000000266,-1.172278119219951398
0.425000000000000266,-1.162263786673517041
0.426000000000000267,-1.152156325898632927
0.427000000000000268,-1.141962795815118836
0.428000000000000269,-1.131690084857093437
0.429000000000000270,-1.121344911471715999
0.430000000000000271,-1.110933824764000821
0.431000000000000272,-1.100463205280747037
0.432000000000000273,-1.089939265926686662
0.433000000000000274,-1.079368053006146244
0.434000000000000274,-1.068755447383610058
0.435000000000000275,-1.058107165756765777
0.436000000000000276,-1.047428762035748750
0.437000000000000277,-1.036725628822412038
0.438000000000000278,-1.026002998983682746
0.439000000000000279,-1.015265947313169104
0.440000000000000280,-1.004519392275333711
0.441000000000000281,-0.993768097826732921
0.442000000000000282,-0.983016675309014376
0.443000000000000282,-0.972269585408404247
0.444000000000000283,-0.961531140176744126
0.445000000000000284,-0.950805505109154958
0.446000000000000285,-0.940096701273601454
0.447000000000000286,-0.929408607487894445
0.448000000000000287,-0.918744962539606802
0.449000000000000288,-0.908109367444782101
0.450000000000000289,-0.897505287741255819
0.451000000000000290,-0.886936055812696744
0.452000000000000290,-0.876404873239587268
0.453000000000000291,-0.865914813173451092
0.454000000000000292,-0.855468822730899303
0.455000000000000293,-0.845069725404074212
0.456000000000000294,-0.834720223484317181
0.457000000000000295,-0.824422900495975997
0.458000000000000296,-0.814180223637380740
0.459000000000000297,-0.803994546226218354
0.460000000000000298,-0.793868110146576766
0.461000000000000298,-0.783803048295127924
0.462000000000000299,-0.773801387024016685
0.463000000000000300,-0.763865048578104444
0.464000000000000301,-0.753995853524403348
0.465000000000000302,-0.744195523171610973
0.466000000000000303,-0.734465681977738094
0.467000000000000304,-0.724807859943995103
0.468000000000000305,-0.715223494993159070
0.469000000000000306,-0.705713935330745556
0.470000000000000306,-0.696280441787467064
0.471000000000000307,-0.686924190141429580
0.472000000000000308,-0.677646273418773148
0.473000000000000309,-0.668447704171412638
0.474000000000000310,-0.659329416730704332
0.475000000000000311,-0.650292269435895021
0.476000000000000312,-0.641337046836368496
0.477000000000000313,-0.632464461866660388
0.478000000000000314,-0.623675157993399343
0.479000000000000314,-0.614969711333375968
0.480000000000000315,-0.606348632741941840
0.481000000000000316,-0.597812369871131954
0.482000000000000317,-0.589361309196833827
0.483000000000000318,-0.580995778014511299
0.484000000000000319,-0.572716046402942158
0.485000000000000320,-0.564522329155583424
0.486000000000000321,-0.556414787679152423
0.487000000000000322,-0.548393531859118766
0.488000000000000322,-0.540458621891794833
0.489000000000000323,-0.532610070082863540
0.490000000000000324,-0.524847842612089943
0.491000000000000325,-0.517171861264127619
0.492000000000000326,-0.509582005125276960
0.493000000000000327,-0.502078112246196806
0.494000000000000328,-0.494659981270481552
0.495000000000000329,-0.487327373029184940
0.496000000000000330,-0.480080012101266274
0.497000000000000330,-0.472917588340131256
0.498000000000000331,-0.465839758366269507
0.499000000000000332,-0.458846147026238493
0.500000000000000333,-0.451936348818085420
0.501000000000000334,-0.445109929283419192
0.502000000000000335,-0.438366426366368078
0.503000000000000336,-0.431705351739643306
0.504000000000000337,-0.425126192097975752
0.505000000000000338,-0.418628410419201569
0.506000000000000338,-0.412211447193306824
0.507000000000000339,-0.405874721619734313
0.508000000000000340,-0.399617632773288434
0.509000000000000341,-0.393439560739003380
0.510000000000000342,-0.387339867716301689
0.511000000000000343,-0.381317899092854684
0.512000000000000344,-0.375372984488491934
0.513000000000000345,-0.369504438769590438
0.514000000000000346,-0.363711563034339325
0.515000000000000346,-0.357993645569275210
0.516000000000000347,-0.352349962777530279
0.517000000000000348,-0.346779780079244149
0.518000000000000349,-0.341282352784507137
0.519000000000000350,-0.335856926939364642
0.520000000000000351,-0.330502740145249441
0.521000000000000352,-0.325219022352361387
0.522000000000000353,-0.320004996627385740
0.523000000000000353,-0.314859879896053296
0.524000000000000354,-0.309782883660987274
0.525000000000000355,-0.304773214695285344
0.526000000000000356,-0.299830075712308797
0.527000000000000357,-0.294952666012156306
0.528000000000000358,-0.290140182105243949
0.529000000000000359,-0.285391818313506129
0.530000000000000360,-0.280706767349625075
0.531000000000000361,-0.276084220874793451
0.532000000000000361,-0.271523370035436140
0.533000000000000362,-0.267023405979371298
0.534000000000000363,-0.262583520351839794
0.535000000000000364,-0.258202905771881763
0.536000000000000365,-0.253880756289475928
0.537000000000000366,-0.249616267823925680
0.538000000000000367,-0.245408638583878874
0.539000000000000368,-0.241257069469487412
0.540000000000000369,-0.237160764457065742
0.541000000000000369,-0.233118930966746879
0.542000000000000370,-0.229130780213493784
0.543000000000000371,-0.225195527541938223
0.544000000000000372,-0.221312392745435960
0.545000000000000373,-0.217480600369750920
0.546000000000000374,-0.213699380001775380
0.547000000000000375,-0.209967966543673473
0.548000000000000376,-0.206285600472873976
0.549000000000000377,-0.202651528088255789
0.550000000000000377,-0.199065001742940950
0.551000000000000378,-0.195525280064054285
0.552000000000000379,-0.192031628159839041
0.553000000000000380,-0.188583317814467022
0.554000000000000381,-0.185179627670916558
0.555000000000000382,-0.181819843402291709
0.556000000000000383,-0.178503257871870907
0.557000000000000384,-0.175229171282306778
0.558000000000000385,-0.171996891314226519
0.559000000000000385,-0.168805733254634938
0.560000000000000386,-0.165655020115392737
0.561000000000000387,-0.162544082742113044
0.562000000000000388,-0.159472259913769343
0.563000000000000389,-0.156438898433338608
0.564000000000000390,-0.153443353209756328
0.565000000000000391,-0.150484987331491266
0.566000000000000392,-0.147563172132014087
0.567000000000000393,-0.144677287247462150
0.568000000000000393,-0.141826720666731049
0.569000000000000394,-0.139010868774314844
0.570000000000000395,-0.136229136386117583
0.571000000000000396,-0.133480936778499926
0.572000000000000397,-0.130765691710837351
0.573000000000000398,-0.128082831441787559
0.574000000000000399,-0.125431794739561620
0.575000000000000400,-0.122812028886378238
0.576000000000000401,-0.120222989677364375
0.577000000000000401,-0.117664141414128329
0.578000000000000402,-0.115134956893189339
0.579000000000000403,-0.112634917389496297
0.580000000000000404,-0.110163512635261626
0.581000000000000405,-0.107720240794262526
0.582000000000000406,-0.105304608431854810
0.583000000000000407,-0.102916130480857460
0.584000000000000408,-0.100554330203507278
0.585000000000000409,-0.098218739149666806
0.586000000000000409,-0.095908897111446928
0.587000000000000410,-0.093624352074442613
0.588000000000000411,-0.091364660165707351
0.589000000000000412,-0.089129385598680999
0.590000000000000413,-0.086918100615171912
0.591000000000000414,-0.084730385424589924
0.592000000000000415,-0.082565828140563888
0.593000000000000416,-0.080424024715075301
0.594000000000000417,-0.078304578870262126
0.595000000000000417,-0.076207102028045967
0.596000000000000418,-0.074131213237653398
0.597000000000000419,-0.072076539101245812
0.598000000000000420,-0.070042713697696768
0.599000000000000421,-0.068029378504701657
0.600000000000000422,-0.066036182319298226
0.601000000000000423,-0.064062781176915384
0.602000000000000424,-0.062108838269083123
0.603000000000000425,-0.060174023859879730
0.604000000000000425,-0.058258015201225935
0.605000000000000426,-0.056360496447132161
0.606000000000000427,-0.054481158567008650
0.607000000000000428,-0.052619699258059670
0.608000000000000429,-0.050775822856976495
0.609000000000000430,-0.048949240250863113
0.610000000000000431,-0.047139668787618369
0.611000000000000432,-0.045346832185752931
0.612000000000000433,-0.043570460443760124
0.613000000000000433,-0.041810289749128038
0.614000000000000434,-0.040066062387028686
