# Fe111_TYRSCA-AC
# h[nm],U(h)[kJ/mol]
0.149999999999999994,28.031333653572357179
0.150999999999999995,23.567788694592877619
0.151999999999999996,19.983347539014296501
0.152999999999999997,16.697959344211092514
0.153999999999999998,13.501018704509011314
0.154999999999999999,10.347918722427944971
0.156000000000000000,7.254859146582949059
0.157000000000000001,4.249408493879418103
0.158000000000000002,1.351114428383450417
0.159000000000000002,-1.432916004813105548
0.160000000000000003,-4.105949999592212407
0.161000000000000004,-6.677567908759582060
0.162000000000000005,-9.159759760480540081
0.163000000000000006,-11.564022162202254762
0.164000000000000007,-13.899614226011328455
0.165000000000000008,-16.172814204113258540
0.166000000000000009,-18.386907134382092011
0.167000000000000010,-20.542629224972085211
0.168000000000000010,-22.638838636730405085
0.169000000000000011,-24.673241925589273649
0.170000000000000012,-26.643063549547822078
0.171000000000000013,-28.545594744611765492
0.172000000000000014,-30.378595272220572099
0.173000000000000015,-32.140547396035302086
0.174000000000000016,-33.830777624185849106
0.175000000000000017,-35.449470353931943123
0.176000000000000018,-36.997600640852958520
0.177000000000000018,-38.476812680547453738
0.178000000000000019,-39.889267685471722302
0.179000000000000020,-41.237480759622940241
0.180000000000000021,-42.524161901629142335
0.181000000000000022,-43.752071924070499165
0.182000000000000023,-44.923900180761712875
0.183000000000000024,-46.042167709142944432
0.184000000000000025,-47.109156778775670205
0.185000000000000026,-48.126865874115893007
0.186000000000000026,-49.096987770879266577
0.187000000000000027,-50.020907507377039281
0.188000000000000028,-50.899716613063255011
0.189000000000000029,-51.734239844787396123
0.190000000000000030,-52.525070812367722795
0.191000000000000031,-53.272613174865242058
0.192000000000000032,-53.977124494921802977
0.193000000000000033,-54.638760300275350801
0.194000000000000034,-55.257616379918189864
0.195000000000000034,-55.833767808301743685
0.196000000000000035,-56.367303624201397838
0.197000000000000036,-56.858356478292606084
0.198000000000000037,-57.307126897920191766
0.199000000000000038,-57.713902096260405017
0.200000000000000039,-58.079069476736684408
0.201000000000000040,-58.403125155205145802
0.202000000000000041,-58.686677946699106201
0.203000000000000042,-58.930449345974899700
0.204000000000000042,-59.135270077712867476
0.205000000000000043,-59.302073809026239815
0.206000000000000044,-59.431888609712984817
0.207000000000000045,-59.525826719829254330
0.208000000000000046,-59.585073144515789068
0.209000000000000047,-59.610873546819462376
0.210000000000000048,-59.604521854157781036
0.211000000000000049,-59.567347936105612405
0.212000000000000050,-59.500705652802068357
0.213000000000000050,-59.405961516416780910
0.214000000000000051,-59.284484154243010323
0.215000000000000052,-59.137634712159069750
0.216000000000000053,-58.966758292115301288
0.217000000000000054,-58.773176477375876914
0.218000000000000055,-58.558180964633052668
0.219000000000000056,-58.323028292792422178
0.220000000000000057,-58.068935634024398951
0.221000000000000058,-57.797077593301800391
0.222000000000000058,-57.508583947731324315
0.223000000000000059,-57.204538246122240253
0.224000000000000060,-56.885977181972847916
0.225000000000000061,-56.553890648944914687
0.226000000000000062,-56.209222386484896106
0.227000000000000063,-55.852871124112240864
0.228000000000000064,-55.485692135617384224
0.229000000000000065,-55.108499118621466550
0.230000000000000066,-54.722066320301109954
0.231000000000000066,-54.327130836268111125
0.232000000000000067,-53.924395016344668363
0.233000000000000068,-53.514528918053756001
0.234000000000000069,-53.098172755851010152
0.235000000000000070,-52.675939301290995331
0.236000000000000071,-52.248416196307879034
0.237000000000000072,-51.816168148489566647
0.238000000000000073,-51.379738983547611042
0.239000000000000073,-50.939653536072256657
0.240000000000000074,-50.496419365065285945
0.241000000000000075,-50.050528285640069726
0.242000000000000076,-49.602457712651727206
0.243000000000000077,-49.152671815872686523
0.244000000000000078,-48.701622489668672245
0.245000000000000079,-48.249750142972992251
0.246000000000000080,-47.797484317729214354
0.247000000000000081,-47.345244145899542332
0.248000000000000081,-46.893438656650644702
0.249000000000000082,-46.442466946465046362
0.250000000000000111,-45.992718225718576264
0.251000000000000112,-45.544571755746737551
0.252000000000000113,-45.098396690634338313
0.253000000000000114,-44.654551837931805380
0.254000000000000115,-44.213385352266598716
0.255000000000000115,-43.775234375406206766
0.256000000000000116,-43.340424635772187401
0.257000000000000117,-42.909270019728538159
0.258000000000000118,-42.482072126198140438
0.259000000000000119,-42.059119815320187286
0.260000000000000120,-41.640688760971542592
0.261000000000000121,-41.227041016052005773
0.262000000000000122,-40.818424598496150679
0.263000000000000123,-40.415073105034913681
0.264000000000000123,-40.017205358803174420
0.265000000000000124,-39.625025095981726508
0.266000000000000125,-39.238720695787492332
0.267000000000000126,-38.858464957285889341
0.268000000000000127,-38.484414925704506061
0.269000000000000128,-38.116711770178937968
0.270000000000000129,-37.755480714164747269
0.271000000000000130,-37.400831019104948894
0.272000000000000131,-37.052856021353619553
0.273000000000000131,-36.711633221820036965
0.274000000000000132,-36.377224427317969457
0.275000000000000133,-36.049675942177920263
0.276000000000000134,-35.729018808305042398
0.277000000000000135,-35.415269091542469937
0.278000000000000136,-35.108428211923310869
0.279000000000000137,-34.808483315165773320
0.280000000000000138,-34.515407682580189430
0.281000000000000139,-34.229161176410748624
0.282000000000000139,-33.949690717528724804
0.283000000000000140,-33.676930792320803221
0.284000000000000141,-33.410803985577061326
0.285000000000000142,-33.151221536172172932
0.286000000000000143,-32.898083912349186164
0.287000000000000144,-32.651281403455080010
0.288000000000000145,-32.410694725037885178
0.289000000000000146,-32.176195634294302295
0.290000000000000147,-31.947647552951799810
0.291000000000000147,-31.724906194778412782
0.292000000000000148,-31.507820195033843902
0.293000000000000149,-31.296231739305284236
0.294000000000000150,-31.089977189309585981
0.295000000000000151,-30.888887703386153305
0.296000000000000152,-30.692789849553367532
0.297000000000000153,-30.501506209151624915
0.298000000000000154,-30.314855969247776812
0.299000000000000155,-30.132655502128290692
0.300000000000000155,-29.954718930359575779
0.301000000000000156,-29.780858676043209243
0.302000000000000157,-29.610885993040749753
0.303000000000000158,-29.444611481085910754
0.304000000000000159,-29.281845580841270760
0.305000000000000160,-29.122399049091018952
0.306000000000000161,-28.966083413391004342
0.307000000000000162,-28.812711405621143967
0.308000000000000163,-28.662097374003632666
0.309000000000000163,-28.514057673262641401
0.310000000000000164,-28.368411032707314234
0.311000000000000165,-28.224978902119744362
0.312000000000000166,-28.083585775423085096
0.313000000000000167,-27.944059492192394600
0.314000000000000168,-27.806231517151303478
0.315000000000000169,-27.669937197872847889
0.316000000000000170,-27.535016000970962580
0.317000000000000171,-27.401311727131929530
0.318000000000000171,-27.268672705391850286
0.319000000000000172,-27.136951967117386886
0.320000000000000173,-27.006007400192363122
0.321000000000000174,-26.875701883953706073
0.322000000000000175,-26.745903405455273116
0.323000000000000176,-26.616485157668627437
0.324000000000000177,-26.487325620256193304
0.325000000000000178,-26.358308623573314833
0.326000000000000179,-26.229323396574095284
0.327000000000000179,-26.100264599308605540
0.328000000000000180,-25.971032340710177522
0.329000000000000181,-25.841532182377665805
0.330000000000000182,-25.711675129060921563
0.331000000000000183,-25.581377606559264848
0.332000000000000184,-25.450561427739678777
0.333000000000000185,-25.319153747377832531
0.334000000000000186,-25.187087006517774768
0.335000000000000187,-25.054298867037466891
0.336000000000000187,-24.920732137096795356
0.337000000000000188,-24.786334688132136250
0.338000000000000189,-24.651059364047949174
0.339000000000000190,-24.514863883240433751
0.340000000000000191,-24.377710734072159937
0.341000000000000192,-24.239567064399366814
0.342000000000000193,-24.100404565734873330
0.343000000000000194,-23.960199352611418533
0.344000000000000195,-23.818931837689873987
0.345000000000000195,-23.676586603137511844
0.346000000000000196,-23.533152268780604288
0.347000000000000197,-23.388621357515141597
0.348000000000000198,-23.242990158438800563
0.349000000000000199,-23.096258588146145740
0.350000000000000200,-22.948430050608255470
0.351000000000000201,-22.799511296037302088
0.352000000000000202,-22.649512279115544544
0.353000000000000203,-22.498446016948228987
0.354000000000000203,-22.346328447079248036
0.355000000000000204,-22.193178285888713219
0.356000000000000205,-22.039016887672154610
0.357000000000000206,-21.883868104681791777
0.358000000000000207,-21.727758148391409065
0.359000000000000208,-21.570715452228771625
0.360000000000000209,-21.412770536001012545
0.361000000000000210,-21.253955872221773404
0.362000000000000210,-21.094305754531728070
0.363000000000000211,-20.933856168388437879
0.364000000000000212,-20.772644664185378360
0.365000000000000213,-20.610710232945411491
0.366000000000000214,-20.448093184719159154
0.367000000000000215,-20.284835029805044826
0.368000000000000216,-20.120978362894572200
0.369000000000000217,-19.956566750233303509
0.370000000000000218,-19.791644619876304745
0.371000000000000218,-19.626257155105001573
0.372000000000000219,-19.460450191061301695
0.373000000000000220,-19.294270114644696434
0.374000000000000221,-19.127763767707858023
0.375000000000000222,-18.960978353576965816
0.376000000000000223,-18.793961346914226596
0.377000000000000224,-18.626760406931683889
0.378000000000000225,-18.459423293957573975
0.379000000000000226,-18.291997789349100145
0.380000000000000226,-18.124531618738906502
0.381000000000000227,-17.957072378595629658
0.382000000000000228,-17.789667466073652236
0.383000000000000229,-17.622364012121014554
0.384000000000000230,-17.455208817809673150
0.385000000000000231,-17.288248293847704673
0.386000000000000232,-17.121528403228417403
0.387000000000000233,-16.955094606967694659
0.388000000000000234,-16.788991812877039678
0.389000000000000234,-16.623264327317077260
0.390000000000000235,-16.457955809872437669
0.391000000000000236,-16.293109230887537819
0.392000000000000237,-16.128766831799222103
0.393000000000000238,-15.964970088201436482
0.394000000000000239,-15.801759675574203357
0.395000000000000240,-15.639175437608603403
0.396000000000000241,-15.477256357057692426
0.397000000000000242,-15.316040529042277640
0.398000000000000242,-15.155565136740074550
0.399000000000000243,-14.995866429385605656
0.400000000000000244,-14.836979702508049428
0.401000000000000245,-14.678939280334239115
0.402000000000000246,-14.521778500283534896
0.403000000000000247,-14.365529699481431436
0.404000000000000248,-14.210224203219425476
0.405000000000000249,-14.055892315288428307
0.406000000000000250,-13.902563310113993822
0.407000000000000250,-13.750265426621917086
0.408000000000000251,-13.599025863763619881
0.409000000000000252,-13.448870777631674045
0.410000000000000253,-13.299825280096303715
0.411000000000000254,-13.151913438895267205
0.412000000000000255,-13.005158279110087705
0.413000000000000256,-12.859581785963040801
0.414000000000000257,-12.715204908870289202
0.415000000000000258,-12.572047566687988507
0.416000000000000258,-12.430128654089378060
0.417000000000000259,-12.289466049012151672
0.418000000000000260,-12.150076621116960851
0.419000000000000261,-12.011976241199025850
0.420000000000000262,-11.875179791496627502
0.421000000000000263,-11.739701176841311536
0.422000000000000264,-11.605553336596427627
0.423000000000000265,-11.472748257331840449
0.424000000000000266,-11.341296986184449480
0.425000000000000266,-11.211209644855317791
0.426000000000000267,-11.082495444195902934
0.427000000000000268,-10.955162699337403609
0.428000000000000269,-10.829218845318598241
0.429000000000000270,-10.704670453169141453
0.430000000000000271,-10.581523246406721483
0.431000000000000272,-10.459782117907943544
0.432000000000000273,-10.339451147114280261
0.433000000000000274,-10.220533617535885185
0.434000000000000274,-10.103032034517351434
0.435000000000000275,-9.986948143231138886
0.436000000000000276,-9.872282946865549746
0.437000000000000277,-9.759036724975564070
0.438000000000000278,-9.647209051966244786
0.439000000000000279,-9.536798815679699004
0.440000000000000280,-9.427804236057720999
0.441000000000000281,-9.320222883853800155
0.442000000000000282,-9.214051699369120385
0.443000000000000282,-9.109287011188571981
0.444000000000000283,-9.005924554893832479
0.445000000000000284,-8.903959491731914255
0.446000000000000285,-8.803386427218409693
0.447000000000000286,-8.704199429656133802
0.448000000000000287,-8.606392048550507212
0.449000000000000288,-8.509957332904425797
0.450000000000000289,-8.414887849376167850
0.451000000000000290,-8.321175700284841881
0.452000000000000290,-8.228812541448967011
0.453000000000000291,-8.137789599844598598
0.454000000000000292,-8.048097691070328352
0.455000000000000293,-7.959727236607234246
0.456000000000000294,-7.872668280862990642
0.457000000000000295,-7.786910507989733610
0.458000000000000296,-7.702443258466423970
0.459000000000000297,-7.619255545436972810
0.460000000000000298,-7.537336070796186505
0.461000000000000298,-7.456673241016284592
0.462000000000000299,-7.377255182707439296
0.463000000000000300,-7.299069757906306855
0.464000000000000301,-7.222104579087316623
0.465000000000000302,-7.146347023891946648
0.466000000000000303,-7.071784249571800629
0.467000000000000304,-6.998403207141817184
0.468000000000000305,-6.926190655240655580
0.469000000000000306,-6.855133173695461046
0.470000000000000306,-6.785217176789021032
0.471000000000000307,-6.716428926227495211
0.472000000000000308,-6.648754543807655182
0.473000000000000309,-6.582180023782565392
0.474000000000000310,-6.516691244925432613
0.475000000000000311,-6.452273982291456100
0.476000000000000312,-6.388913918678055026
0.477000000000000313,-6.326596655783884415
0.478000000000000314,-6.265307725067799538
0.479000000000000314,-6.205032598308847902
0.480000000000000315,-6.145756697868812068
0.481000000000000316,-6.087465406659120504
0.482000000000000317,-6.030144077814130199
0.483000000000000318,-5.973778044073003279
0.484000000000000319,-5.918352626872691147
0.485000000000000320,-5.863853145154748425
0.486000000000000321,-5.810264923888738942
0.487000000000000322,-5.757573302315401875
0.488000000000000322,-5.705763641912733775
0.489000000000000323,-5.654821334088390827
0.490000000000000324,-5.604731807601901039
0.491000000000000325,-5.555480535720413116
0.492000000000000326,-5.507053043111580948
0.493000000000000327,-5.459434912477684421
0.494000000000000328,-5.412611790934755973
0.495000000000000329,-5.366569396140943304
0.496000000000000330,-5.321293522178140556
0.497000000000000330,-5.276770045191145897
0.498000000000000331,-5.232984928788670942
0.499000000000000332,-5.189924229210467033
0.500000000000000333,-5.147574100264977304
0.501000000000000334,-5.105920798041980291
0.502000000000000335,-5.064950685404608244
0.503000000000000336,-5.024650236265308045
0.504000000000000337,-4.985006039650153653
0.505000000000000338,-4.946004803556116158
0.506000000000000338,-4.907633358605762552
0.507000000000000339,-4.869878661503918238
0.508000000000000340,-4.832727798300853195
0.509000000000000341,-4.796167987466445126
0.510000000000000342,-4.760186582779908804
0.511000000000000343,-4.724771076039500528
0.512000000000000344,-4.689909099596722974
0.513000000000000345,-4.655588428719449112
0.514000000000000346,-4.621796983788396318
0.515000000000000346,-4.588522832331317858
0.516000000000000347,-4.555754190899278022
0.517000000000000348,-4.523479426789347890
0.518000000000000349,-4.491687059617907707
0.519000000000000350,-4.460365762748894625
0.520000000000000351,-4.429504364581139164
0.521000000000000352,-4.399091849698870682
0.522000000000000353,-4.369117359889581387
0.523000000000000353,-4.339570195033193301
0.524000000000000354,-4.310439813866585368
0.525000000000000355,-4.281715834627343398
0.526000000000000356,-4.253388035580652371
0.527000000000000357,-4.225446355433141399
0.528000000000000358,-4.197880893637393918
0.529000000000000359,-4.170681910590856134
0.530000000000000360,-4.143839827732795911
0.531000000000000361,-4.117345227542842601
0.532000000000000361,-4.091188853444625906
0.533000000000000362,-4.065361609617988314
0.534000000000000363,-4.039854560723165733
0.535000000000000364,-4.014658931540173725
0.536000000000000365,-3.989766106526775324
0.537000000000000366,-3.965167629298134155
0.538000000000000367,-3.940855202031325000
0.539000000000000368,-3.916820684797754470
0.540000000000000369,-3.893056094826482738
0.541000000000000369,-3.869553605701390175
0.542000000000000370,-3.846305546495101257
0.543000000000000371,-3.823304400842364892
0.544000000000000372,-3.800542805955772430
0.545000000000000373,-3.778013551586381080
0.546000000000000374,-3.755709578931925030
0.547000000000000375,-3.733623979495135359
0.548000000000000376,-3.711749993894696953
0.549000000000000377,-3.690081010631252045
0.550000000000000377,-3.668610564810772523
0.551000000000000378,-3.647332336827736388
0.552000000000000379,-3.626240151010212465
0.553000000000000380,-3.605327974229149302
0.554000000000000381,-3.584589914473950589
0.555000000000000382,-3.564020219396434097
0.556000000000000383,-3.543613274825153869
0.557000000000000384,-3.523363603252100518
0.558000000000000385,-3.503265862293635458
0.559000000000000385,-3.483314843127549132
0.560000000000000386,-3.463505468907982277
0.561000000000000387,-3.443832793160026995
0.562000000000000388,-3.424291998155659655
0.563000000000000389,-3.404878393272588344
0.564000000000000390,-3.385587413337729057
0.565000000000000391,-3.366414616956726835
0.566000000000000392,-3.347355684831087252
0.567000000000000393,-3.328406418064314032
0.568000000000000393,-3.309562736458472987
0.569000000000000394,-3.290820676802508782
0.570000000000000395,-3.272176391153646335
0.571000000000000396,-3.253626145113082568
0.572000000000000397,-3.235166316097239481
0.573000000000000398,-3.216793391605701657
0.574000000000000399,-3.198503967486978627
0.575000000000000400,-3.180294746203225831
0.576000000000000401,-3.162162535094859006
0.577000000000000401,-3.144104244646197976
0.578000000000000402,-3.126116886753018687
0.579000000000000403,-3.108197572992987379
0.580000000000000404,-3.090343512899827338
0.581000000000000405,-3.072552012242161901
0.582000000000000406,-3.054820471307723828
0.583000000000000407,-3.037146383193865429
0.584000000000000408,-3.019527332105006234
0.585000000000000409,-3.001960991657804279
0.586000000000000409,-2.984445123194724658
0.587000000000000410,-2.966977574106658189
0.588000000000000411,-2.949556276165234525
0.589000000000000412,-2.932179243865395524
0.590000000000000413,-2.914844572778848342
0.591000000000000414,-2.897550437918906763
0.592000000000000415,-2.880295092117226563
0.593000000000000416,-2.863076864412958500
0.594000000000000417,-2.845894158454770118
0.595000000000000417,-2.828745450916146265
0.596000000000000418,-2.811629289924410635
0.597000000000000419,-2.794544293503872456
0.598000000000000420,-2.777489148033400745
0.599000000000000421,-2.760462606718857792
0.600000000000000422,-2.743463488080640111
0.601000000000000423,-2.726490674456668817
0.602000000000000424,-2.709543110521106524
0.603000000000000425,-2.692619801819037484
0.604000000000000425,-2.675719813317392948
0.605000000000000426,-2.658842267972315820
0.606000000000000427,-2.641986345313175555
