# Fe111_PHO-JS
# h[nm],U(h)[kJ/mol]
0.200000000000000011,82.655450052953653994
0.201000000000000012,78.904629901122888214
0.202000000000000013,75.854301804187898028
0.203000000000000014,73.157447820783488623
0.204000000000000015,70.612048963981351335
0.205000000000000016,68.110143069880678013
0.206000000000000016,65.602543158272098367
0.207000000000000017,63.074872361613060434
0.208000000000000018,60.531684563647061736
0.209000000000000019,57.986284634714550634
0.210000000000000020,55.454500306992386527
0.211000000000000021,52.951137321878078978
0.212000000000000022,50.488207782737823948
0.213000000000000023,48.074287530949092684
0.214000000000000024,45.714554134077374670
0.215000000000000024,43.411199910818183412
0.216000000000000025,41.164017507951982111
0.217000000000000026,38.971028981521342871
0.218000000000000027,36.829080807965375755
0.219000000000000028,34.734362595231118576
0.220000000000000029,32.682830882569206210
0.221000000000000030,30.670534615482107910
0.222000000000000031,28.693848122548775592
0.223000000000000032,26.749622525681736818
0.224000000000000032,24.835268820161921610
0.225000000000000033,22.948786333509268331
0.226000000000000034,21.088749605130590936
0.227000000000000035,19.254265408548896232
0.228000000000000036,17.444909999787419963
0.229000000000000037,15.660654942948985635
0.230000000000000038,13.901788180560634700
0.231000000000000039,12.168835467881027768
0.232000000000000040,10.462485923000031107
0.233000000000000040,8.783524276686794252
0.234000000000000041,7.132771437945331527
0.235000000000000042,5.511034212116365794
0.236000000000000043,3.919064400515164692
0.237000000000000044,2.357527053170060061
0.238000000000000045,0.826977317373934873
0.239000000000000046,-0.672154896842552696
0.240000000000000047,-2.139573347488892718
0.241000000000000048,-3.575117965726042790
0.242000000000000048,-4.978762424726137503
0.243000000000000049,-6.350607733001011113
0.244000000000000050,-7.690872755588522125
0.245000000000000051,-8.999882489933686003
0.246000000000000052,-10.278054835101134046
0.247000000000000053,-11.525886499129713414
0.248000000000000054,-12.743938594506232675
0.249000000000000055,-13.932822379362139742
0.250000000000000056,-15.093185514573567829
0.251000000000000056,-16.225699126164865760
0.252000000000000057,-17.331045889326610165
0.253000000000000058,-18.409909285499267639
0.254000000000000059,-19.462964127492696775
0.255000000000000060,-20.490868399353207252
0.256000000000000061,-21.494256417291438765
0.257000000000000062,-22.473733284925220488
0.258000000000000063,-23.429870589760987798
0.259000000000000064,-24.363203267566547083
0.260000000000000064,-25.274227546389944621
0.261000000000000065,-26.163399871767182958
0.262000000000000066,-27.031136708480790531
0.263000000000000067,-27.877815111448303043
0.264000000000000068,-28.703773958361637142
0.265000000000000069,-29.509315739032683013
0.266000000000000070,-30.294708800548420413
0.267000000000000071,-31.060189952881358977
0.268000000000000071,-31.805967346162617559
0.269000000000000072,-32.532223538087578163
0.270000000000000073,-33.239118677612843555
0.271000000000000074,-33.926793738987541360
0.272000000000000075,-34.595373748053646068
0.273000000000000076,-35.244970950491392614
0.274000000000000077,-35.875687879158157045
0.275000000000000078,-36.487620284775275081
0.276000000000000079,-37.080859900888484049
0.277000000000000079,-37.655497020217509885
0.278000000000000080,-38.211622865182569342
0.279000000000000081,-38.749331740541741453
0.280000000000000082,-39.268722960684392831
0.281000000000000083,-39.769902548212712645
0.282000000000000084,-40.252984704018125228
0.283000000000000085,-40.718093052146755895
0.284000000000000086,-41.165361665371548838
0.285000000000000087,-41.594935879577938920
0.286000000000000087,-42.006972906858663919
0.287000000000000088,-42.401642258632840310
0.288000000000000089,-42.779125991187058276
0.289000000000000090,-43.139618786820236096
0.290000000000000091,-43.483327884283539788
0.291000000000000092,-43.810472872483323670
0.292000000000000093,-44.121285361479820608
0.293000000000000094,-44.416008544700865457
0.294000000000000095,-44.694896666023595344
0.295000000000000095,-44.958214404981355017
0.296000000000000096,-45.206236192852102818
0.297000000000000097,-45.439245471797804043
0.298000000000000098,-45.657533908571224401
0.299000000000000099,-45.861400573604043984
0.300000000000000100,-46.051151095551574599
0.301000000000000101,-46.227096800611278127
0.302000000000000102,-46.389553845161387358
0.303000000000000103,-46.538842349497734574
0.304000000000000103,-46.675285539685184233
0.305000000000000104,-46.799208903794557557
0.306000000000000105,-46.910939368073584887
0.307000000000000106,-47.010804497902597632
0.308000000000000107,-47.099131727720042306
0.309000000000000108,-47.176247623471049053
0.310000000000000109,-47.242477180535409786
0.311000000000000110,-47.298143159532386903
0.312000000000000111,-47.343565461880558587
0.313000000000000111,-47.379060546508029006
0.314000000000000112,-47.404940888666949661
0.315000000000000113,-47.421514481400791396
0.316000000000000114,-47.429084379847594732
0.317000000000000115,-47.427948288230354024
0.318000000000000116,-47.418398189092428652
0.319000000000000117,-47.400720014073137065
0.320000000000000118,-47.375193355290079467
0.321000000000000119,-47.342091216196337200
0.322000000000000119,-47.301679800609690574
0.323000000000000120,-47.254218338468284344
0.324000000000000121,-47.199958946748708399
0.325000000000000122,-47.139146523887262674
0.326000000000000123,-47.072018675971449397
0.327000000000000124,-46.998805672913952947
0.328000000000000125,-46.919730432786074914
0.329000000000000126,-46.835008532466176234
0.330000000000000127,-46.744848242753491263
0.331000000000000127,-46.649450586105231764
0.332000000000000128,-46.549009415173465243
0.333000000000000129,-46.443711510347654325
0.334000000000000130,-46.333736694546146850
0.335000000000000131,-46.219257963546873214
0.336000000000000132,-46.100441630198069731
0.337000000000000133,-45.977447480908985256
0.338000000000000134,-45.850428942882167860
0.339000000000000135,-45.719533260614710457
0.340000000000000135,-45.584901680264998447
0.341000000000000136,-45.446669640551832003
0.342000000000000137,-45.304966968925285187
0.343000000000000138,-45.159918081821366798
0.344000000000000139,-45.011642187885719579
0.345000000000000140,-44.860253493125071600
0.346000000000000141,-44.705861407016378450
0.347000000000000142,-44.548570748675579978
0.348000000000000143,-44.388481952257585306
0.349000000000000143,-44.225691270826658297
0.350000000000000144,-44.060290978003244788
0.351000000000000145,-43.892369566756883614
0.352000000000000146,-43.722011944776582482
0.353000000000000147,-43.549299625909796418
0.354000000000000148,-43.374310917217542283
0.355000000000000149,-43.197121101247283548
0.356000000000000150,-43.017802613177408944
0.357000000000000151,-42.836425212534976481
0.358000000000000151,-42.653056149235709427
0.359000000000000152,-42.467760323737188344
0.360000000000000153,-42.280600441138645351
0.361000000000000154,-42.091637159097345489
0.362000000000000155,-41.900929229467884340
0.363000000000000156,-41.708533633603892099
0.364000000000000157,-41.514505711291043610
0.365000000000000158,-41.318899283309825421
0.366000000000000159,-41.121766767651322994
0.367000000000000159,-40.923159289432831542
0.368000000000000160,-40.723126784582255766
0.369000000000000161,-40.521718097378922607
0.370000000000000162,-40.318981071955647622
0.371000000000000163,-40.114962637883643026
0.372000000000000164,-39.909708889973593671
0.373000000000000165,-39.703265162440423808
0.374000000000000166,-39.495676097588045650
0.375000000000000167,-39.286985709180299864
0.376000000000000167,-39.077237440671567015
0.377000000000000168,-38.866474218476724900
0.378000000000000169,-38.654738500465192885
0.379000000000000170,-38.442072319867932606
0.380000000000000171,-38.228517324788590770
0.381000000000000172,-38.014114813512449587
0.382000000000000173,-37.798905765806964041
0.383000000000000174,-37.582930870408951307
0.384000000000000175,-37.366230548891600449
0.385000000000000175,-37.148844976103944759
0.386000000000000176,-36.930814097373414029
0.387000000000000177,-36.712177642659085564
0.388000000000000178,-36.492975137840979016
0.389000000000000179,-36.273245913326398693
0.390000000000000180,-36.053029110151250336
0.391000000000000181,-35.832363683749598238
0.392000000000000182,-35.611288405560237891
0.393000000000000183,-35.389841862634391134
0.394000000000000183,-35.168062455403614308
0.395000000000000184,-34.945988393761638235
0.396000000000000185,-34.723657691608941889
0.397000000000000186,-34.501108160002800673
0.398000000000000187,-34.278377399050739882
0.399000000000000188,-34.055502788678921888
0.400000000000000189,-33.832521478402235005
0.401000000000000190,-33.609470376216492582
0.402000000000000191,-33.386386136728049223
0.403000000000000191,-33.163305148630094266
0.404000000000000192,-32.940263521629873367
0.405000000000000193,-32.717297072925127566
0.406000000000000194,-32.494441313322987241
0.407000000000000195,-32.271731433089072993
0.408000000000000196,-32.049202287609503514
0.409000000000000197,-31.826888382943145928
0.410000000000000198,-31.604823861337109747
0.411000000000000199,-31.383042486772772861
0.412000000000000199,-31.161577630605570732
0.413000000000000200,-30.940462257357285836
0.414000000000000201,-30.719728910714554360
0.415000000000000202,-30.499409699783655014
0.416000000000000203,-30.279536285647292715
0.417000000000000204,-30.060139868265061125
0.418000000000000205,-29.841251173755534154
0.419000000000000206,-29.622900442094554307
0.420000000000000207,-29.405117415259997671
0.421000000000000207,-29.187931325851206310
0.422000000000000208,-28.971370886206624817
0.423000000000000209,-28.755464278041483084
0.424000000000000210,-28.540239142623541113
0.425000000000000211,-28.325722571502506497
0.426000000000000212,-28.111941097806401046
0.427000000000000213,-27.898920688114948518
0.428000000000000214,-27.686686734918687591
0.429000000000000214,-27.475264049669540611
0.430000000000000215,-27.264676856426738993
0.431000000000000216,-27.054948786100595726
0.432000000000000217,-26.846102871293716419
0.433000000000000218,-26.638161541738696769
0.434000000000000219,-26.431146620329066366
0.435000000000000220,-26.225079319739116102
0.436000000000000221,-26.019980239626555374
0.437000000000000222,-25.815869364411156539
0.438000000000000222,-25.612766061621062619
0.439000000000000223,-25.410689080797517647
0.440000000000000224,-25.209656552947713237
0.441000000000000225,-25.009685990534688216
0.442000000000000226,-24.810794287992557372
0.443000000000000227,-24.612997722754151653
0.444000000000000228,-24.416311956778173453
0.445000000000000229,-24.220752038561940367
0.446000000000000230,-24.026332405625449695
0.447000000000000230,-23.833066887452169169
0.448000000000000231,-23.640968708871511694
0.449000000000000232,-23.450050493867554025
0.450000000000000233,-23.260324269798623220
0.451000000000000234,-23.071801472011799206
0.452000000000000235,-22.884492948836594906
0.453000000000000236,-22.698408966941642007
0.454000000000000237,-22.513559217038558558
0.455000000000000238,-22.329952819916723428
0.456000000000000238,-22.147598332793119624
0.457000000000000239,-21.966503755961049649
0.458000000000000240,-21.786676539722222401
0.459000000000000241,-21.608123591585936651
0.460000000000000242,-21.430851283720393496
0.461000000000000243,-21.254865460640104402
0.462000000000000244,-21.080171447114803840
0.463000000000000245,-20.906774056284241681
0.464000000000000246,-20.734677597964680018
0.465000000000000246,-20.563885887132308028
0.466000000000000247,-20.394402252569427958
0.467000000000000248,-20.226229545659521136
0.468000000000000249,-20.059370149317647503
0.469000000000000250,-19.893825987042781378
0.470000000000000251,-19.729598532079300810
0.471000000000000252,-19.566688816674645324
0.472000000000000253,-19.405097441421442994
0.473000000000000254,-19.244824584671519574
0.474000000000000254,-19.085870012010744290
0.475000000000000255,-18.928233085783134015
0.476000000000000256,-18.771912774653475964
0.477000000000000257,-18.616907663198102085
0.478000000000000258,-18.463215961513292029
0.479000000000000259,-18.310835514831971693
0.480000000000000260,-18.159763813138994237
0.481000000000000261,-18.009998000775940596
0.482000000000000262,-17.861534886026912972
0.483000000000000262,-17.714370950676858740
0.484000000000000263,-17.568502359534331703
0.485000000000000264,-17.423924969911297467
0.486000000000000265,-17.280634341052412140
0.487000000000000266,-17.138625743506977983
0.488000000000000267,-16.997894168436801010
0.489000000000000268,-16.858434336853893143
0.490000000000000269,-16.720240708781666683
0.491000000000000270,-16.583307492334419919
0.492000000000000270,-16.447628652709248342
0.493000000000000271,-16.313197921085780706
0.494000000000000272,-16.180008803428826525
0.495000000000000273,-16.048054589189248986
0.496000000000000274,-15.917328359899418189
0.497000000000000275,-15.787822997658745194
0.498000000000000276,-15.659531193506159852
0.499000000000000277,-15.532445455675894408
0.500000000000000222,-15.406558117733514024
0.501000000000000334,-15.281861346589412420
0.502000000000000224,-15.158347150387186275
0.503000000000000336,-15.036007386264177654
0.504000000000000226,-14.914833767982642598
0.505000000000000338,-14.794817873428812049
0.506000000000000227,-14.675951151978983589
0.507000000000000339,-14.558224931730270768
0.508000000000000229,-14.441630426595471803
0.509000000000000341,-14.326158743260105410
0.510000000000000231,-14.211800888001656418
0.511000000000000343,-14.098547773369071834
0.512000000000000233,-13.986390224723063369
0.513000000000000345,-13.875318986635747365
0.514000000000000234,-13.765324729150293592
0.515000000000000346,-13.656398053899422962
0.516000000000000236,-13.548529500083764887
0.517000000000000348,-13.441709550309321131
0.518000000000000238,-13.335928636285064641
0.519000000000000350,-13.231177144380339428
0.520000000000000240,-13.127445421043242746
0.521000000000000352,-13.024723778080069536
0.522000000000000242,-12.923002497796948873
0.523000000000000353,-12.822271838004112965
0.524000000000000243,-12.722522036884161167
0.525000000000000355,-12.623743317724812840
0.526000000000000245,-12.525925893517884546
0.527000000000000357,-12.429059971424880615
0.528000000000000247,-12.333135757111302055
0.529000000000000359,-12.238143458950228037
0.530000000000000249,-12.144073292097152361
0.531000000000000361,-12.050915482437051907
0.532000000000000250,-11.958660270405683690
0.533000000000000362,-11.867297914686130156
0.534000000000000252,-11.776818695782667490
0.535000000000000364,-11.687212919473321193
0.536000000000000254,-11.598470920143043372
0.537000000000000366,-11.510583063998836906
0.538000000000000256,-11.423539752169270756
0.539000000000000368,-11.337331423689333221
0.540000000000000258,-11.251948558373371156
0.541000000000000369,-11.167381679577051301
0.542000000000000259,-11.083621356851098838
0.543000000000000371,-11.000658208487896772
0.544000000000000261,-10.918482903963571573
0.545000000000000373,-10.837086166276877819
0.546000000000000263,-10.756458774187427352
0.547000000000000375,-10.676591564354417585
0.548000000000000265,-10.597475433378871656
0.549000000000000377,-10.519101339750163149
0.550000000000000266,-10.441460305699820310
0.551000000000000378,-10.364543418963837240
0.552000000000000268,-10.288341834455909662
0.553000000000000380,-10.212846775853202885
0.554000000000000270,-10.138049537097003849
0.555000000000000382,-10.063941483809644595
0.556000000000000272,-9.990514054630308394
0.557000000000000384,-9.917758762470905154
0.558000000000000274,-9.845667195694684182
0.559000000000000385,-9.774231019218744265
0.560000000000000275,-9.703441975543000808
0.561000000000000387,-9.633291885706920965
0.562000000000000277,-9.563772650176293411
0.563000000000000389,-9.494876249661581724
0.564000000000000279,-9.426594745869916636
0.565000000000000391,-9.358920282192331186
0.566000000000000281,-9.291845084328134163
0.567000000000000393,-9.225361460848123585
0.568000000000000282,-9.159461803698532023
0.569000000000000394,-9.094138588647046717
0.570000000000000284,-9.029384375673171093
0.571000000000000396,-8.965191809303977521
0.572000000000000286,-8.901553618897475317
0.573000000000000398,-8.838462618874705967
0.574000000000000288,-8.775911708902603081
0.575000000000000400,-8.713893874028858733
0.576000000000000290,-8.652402184770618732
0.577000000000000401,-8.591429797158257387
0.578000000000000291,-8.530969952736040085
0.579000000000000403,-8.471015978520828327
0.580000000000000293,-8.411561286920592906
0.581000000000000405,-8.352599375613829480
0.582000000000000295,-8.294123827391654658
0.583000000000000407,-8.236128309963520522
0.584000000000000297,-8.178606575728313288
0.585000000000000409,-8.121552461511802434
0.586000000000000298,-8.064959888272056787
0.587000000000000410,-8.008822860773722851
0.588000000000000300,-7.953135467232838707
0.589000000000000412,-7.897891878932935761
0.590000000000000302,-7.843086349814043956
0.591000000000000414,-7.788713216035446862
0.592000000000000304,-7.734766895513537577
0.593000000000000416,-7.681241887435665383
0.594000000000000306,-7.628132771751348074
0.595000000000000417,-7.575434208641611988
0.596000000000000307,-7.523140937967726316
0.597000000000000419,-7.471247778700177200
0.598000000000000309,-7.419749628329029179
0.599000000000000421,-7.368641462256428909
0.600000000000000311,-7.317918333172455547
0.601000000000000423,-7.267575370414904867
0.602000000000000313,-7.217607779314299421
0.603000000000000425,-7.168010840524497773
0.604000000000000314,-7.118779909340330114
0.605000000000000426,-7.069910415002455650
0.606000000000000316,-7.021397859990853085
0.607000000000000428,-6.973237819307149365
0.608000000000000318,-6.925425939747081650
0.609000000000000430,-6.877957939163327872
0.610000000000000320,-6.830829605719856090
0.611000000000000432,-6.784036797138108810
0.612000000000000322,-6.737575439936035693
0.613000000000000433,-6.691441528660304172
0.614000000000000323,-6.645631125112622328
0.615000000000000435,-6.600140357570507099
0.616000000000000325,-6.554965420003346033
0.617000000000000437,-6.510102571284109629
0.618000000000000327,-6.465548134397458568
0.619000000000000439,-6.421298495644589543
0.620000000000000329,-6.377350103845556006
0.621000000000000441,-6.333699469539357807
0.622000000000000330,-6.290343164182488067
0.623000000000000442,-6.247277819346175320
0.624000000000000332,-6.204500125913039454
0.625000000000000444,-6.162006833273346196
0.626000000000000334,-6.119794748521475647
0.627000000000000446,-6.077860735652885538
0.628000000000000336,-6.036201714762041703
0.629000000000000448,-5.994814661241595566
0.630000000000000338,-5.953696604983352181
0.631000000000000449,-5.912844629581091915
0.632000000000000339,-5.872255871535909222
0.633000000000000451,-5.831927519464081833
0.634000000000000341,-5.791856813308051244
0.635000000000000453,-5.752041043550557120
0.636000000000000343,-5.712477550432418560
0.637000000000000455,-5.673163723174099005
0.638000000000000345,-5.634096999201394063
0.639000000000000457,-5.595274863375355068
0.640000000000000346,-5.556694847226953726
0.641000000000000458,-5.518354528196330655
0.642000000000000348,-5.480251528877244205
0.643000000000000460,-5.442383516266543708
0.644000000000000350,-5.404748201019237364
0.645000000000000462,-5.367343336708945145
0.646000000000000352,-5.330166719094281191
0.647000000000000464,-5.293216185391002249
0.648000000000000353,-5.256489613550409778
0.649000000000000465,-5.219984921543744605
0.650000000000000355,-5.183700066653194050
0.651000000000000467,-5.147633044769150068
0.652000000000000357,-5.111781889694266390
0.653000000000000469,-5.076144672454072193
0.654000000000000359,-5.040719500614573079
0.655000000000000471,-5.005504517606612858
0.656000000000000361,-4.970497902057402939
