# Fe111_HSPSCA-JS
# h[nm],U(h)[kJ/mol]
0.149999999999999994,52.615676236406066835
0.150999999999999995,49.382245282202596570
0.151999999999999996,45.717168339732197069
0.152999999999999997,42.030106523328413459
0.153999999999999998,38.494585670570096170
0.154999999999999999,35.156867250136109249
0.156000000000000000,32.002408675476701205
0.157000000000000001,28.994314665110692886
0.158000000000000002,26.093836775012345441
0.159000000000000002,23.269807205093812286
0.160000000000000003,20.501613597094291208
0.161000000000000004,17.778709933728308101
0.162000000000000005,15.098540083521456268
0.163000000000000006,12.463990720367515763
0.164000000000000007,9.880987547211773858
0.165000000000000008,7.356526964132152457
0.166000000000000009,4.897238545981950963
0.167000000000000010,2.508461273024873872
0.168000000000000010,0.193759323319832255
0.169000000000000011,-2.045219029377150832
0.170000000000000012,-4.208637316581513410
0.171000000000000013,-6.298209546638159573
0.172000000000000014,-8.316854443997545587
0.173000000000000015,-10.268321462487337570
0.174000000000000016,-12.156829007909244922
0.175000000000000017,-13.986741525960884047
0.176000000000000018,-15.762300806083874960
0.177000000000000018,-17.487418076434529723
0.178000000000000019,-19.165527030472500059
0.179000000000000020,-20.799493518105254708
0.180000000000000021,-22.391574894416429231
0.181000000000000022,-23.943420589624651029
0.182000000000000023,-25.456105017907219690
0.183000000000000024,-26.930184196617243941
0.184000000000000025,-28.365768166166311914
0.185000000000000026,-29.762602296951733649
0.186000000000000026,-31.120151699232984299
0.187000000000000027,-32.437684108785781234
0.188000000000000028,-33.714347731254569851
0.189000000000000029,-34.949241542882624856
0.190000000000000030,-36.141476436415487683
0.191000000000000031,-37.290226355438292671
0.192000000000000032,-38.394769176384514253
0.193000000000000033,-39.454517580882367156
0.194000000000000034,-40.469040522966338358
0.195000000000000034,-41.438076149922139280
0.196000000000000035,-42.361537197429015578
0.197000000000000036,-43.239509964701383637
0.198000000000000037,-44.072247998377761746
0.199000000000000038,-44.860161588682494482
0.200000000000000039,-45.603804120171560044
0.201000000000000040,-46.303856232837361517
0.202000000000000041,-46.961108646530178135
0.203000000000000042,-47.576444390016199293
0.204000000000000042,-48.150821061527139477
0.205000000000000043,-48.685253635022718299
0.206000000000000044,-49.180798219080614331
0.207000000000000045,-49.638537075826619116
0.208000000000000046,-50.059565117262238232
0.209000000000000047,-50.444978016670482646
0.210000000000000048,-50.795862003864030498
0.211000000000000049,-51.113285354820348516
0.212000000000000050,-51.398291538337311124
0.213000000000000050,-51.651893944105232492
0.214000000000000051,-51.875072087239232133
0.215000000000000052,-52.068769162952584395
0.216000000000000053,-52.233890810738486721
0.217000000000000054,-52.371304939215768570
0.218000000000000055,-52.481842459755355890
0.219000000000000056,-52.566298778258456537
0.220000000000000057,-52.625435899183514721
0.221000000000000058,-52.659985003365171963
0.222000000000000058,-52.670649370665479694
0.223000000000000059,-52.658107529446695594
0.224000000000000060,-52.623016526743072063
0.225000000000000061,-52.566015225396469646
0.226000000000000062,-52.487727546933498957
0.227000000000000063,-52.388765591304981228
0.228000000000000064,-52.269732576531019674
0.229000000000000065,-52.131225552615717334
0.230000000000000066,-51.973837854668843761
0.231000000000000066,-51.798161269901925152
0.232000000000000067,-51.604787901989332966
0.233000000000000068,-51.394311724169313038
0.234000000000000069,-51.167329819397636470
0.235000000000000070,-50.924443311872892082
0.236000000000000071,-50.666257999355181596
0.237000000000000072,-50.393384699945329430
0.238000000000000073,-50.106439330428777623
0.239000000000000073,-49.806042735978579117
0.240000000000000074,-49.492820293017459221
0.241000000000000075,-49.167401308427052697
0.242000000000000076,-48.830418239126665014
0.243000000000000077,-48.482505756392626495
0.244000000000000078,-48.124299679215397418
0.245000000000000079,-47.756435800552928583
0.246000000000000080,-47.379548629598382092
0.247000000000000081,-46.994270072186253628
0.248000000000000081,-46.601228070266301984
0.249000000000000082,-46.201045220023424065
0.250000000000000111,-45.794337386754278896
0.251000000000000112,-45.381712333065522103
0.252000000000000113,-44.963768375365553709
0.253000000000000114,-44.541093082010064563
0.254000000000000115,-44.114262024856749633
0.255000000000000115,-43.683837594405318328
0.256000000000000116,-43.250367887165019454
0.257000000000000117,-42.814385672415632200
0.258000000000000118,-42.376407444123017854
0.259000000000000119,-41.936932562442464700
0.260000000000000120,-41.496442488003644655
0.261000000000000121,-41.055400111019288545
0.262000000000000122,-40.614249176203117031
0.263000000000000123,-40.173413803519373744
0.264000000000000123,-39.733298103917881861
0.265000000000000124,-39.294285888432789022
0.266000000000000125,-38.856740468339133088
0.267000000000000126,-38.421004543464100323
0.268000000000000127,-37.987400175237681310
0.269000000000000128,-37.556228840635057509
0.270000000000000129,-37.127771562806181294
0.271000000000000130,-36.702289113901883866
0.272000000000000131,-36.280022285386202441
0.273000000000000131,-35.861192220964234423
0.274000000000000132,-35.446000807152223899
0.275000000000000133,-35.034631116462563227
0.276000000000000134,-34.627247898169642326
0.277000000000000135,-34.223998111655880905
0.278000000000000136,-33.825011497407139416
0.279000000000000137,-33.430401180828603458
0.280000000000000138,-33.040264304181533817
0.281000000000000139,-32.654682682094502866
0.282000000000000139,-32.273723476276074962
0.283000000000000140,-31.897439885244835978
0.284000000000000141,-31.525871845096322232
0.285000000000000142,-31.159046737539199512
0.286000000000000143,-30.796980101653730344
0.287000000000000144,-30.439676346051534495
0.288000000000000145,-30.087129458344641364
0.289000000000000146,-29.739323709061171286
0.290000000000000147,-29.396234347373649598
0.291000000000000147,-29.057828286232613380
0.292000000000000148,-28.724064774719863635
0.293000000000000149,-28.394896055653713773
0.294000000000000150,-28.070268006689012452
0.295000000000000151,-27.750120763359472420
0.296000000000000152,-27.434389322705747816
0.297000000000000153,-27.123004126321681895
0.298000000000000154,-26.815891621829642588
0.299000000000000155,-26.512974801967011729
0.300000000000000155,-26.214173720626558151
0.301000000000000156,-25.919405985345292720
0.302000000000000157,-25.628587225877868860
0.303000000000000158,-25.341631538623936137
0.304000000000000159,-25.058451906801316511
0.305000000000000160,-24.778960596370730229
0.306000000000000161,-24.503069527822567863
0.307000000000000162,-24.230690624031790747
0.308000000000000163,-23.961736134473966331
0.309000000000000163,-23.696118936174251246
0.310000000000000164,-23.433752811831677576
0.311000000000000165,-23.174552705623831628
0.312000000000000166,-22.918434957252735273
0.313000000000000167,-22.665317514840971569
0.314000000000000168,-22.415120127329061006
0.315000000000000169,-22.167764517060529528
0.316000000000000170,-21.923174533270643138
0.317000000000000171,-21.681276287219166221
0.318000000000000171,-21.441998269725893067
0.319000000000000172,-21.205271451882072853
0.320000000000000173,-20.971029369720429969
0.321000000000000174,-20.739208193631728960
0.322000000000000175,-20.509746783317595487
0.323000000000000176,-20.282586729067553222
0.324000000000000177,-20.057672380143099389
0.325000000000000178,-19.834950861043772363
0.326000000000000179,-19.614372076419893887
0.327000000000000179,-19.395888705383711681
0.328000000000000180,-19.179456185955700676
0.329000000000000181,-18.965032690366808055
0.330000000000000182,-18.752579091918093468
0.331000000000000183,-18.542058924080730975
0.332000000000000184,-18.333438332497770773
0.333000000000000185,-18.126686020527706944
0.334000000000000186,-17.921773188947188515
0.335000000000000187,-17.718673470407090065
0.336000000000000187,-17.517362859212408210
0.337000000000000188,-17.317819636972540565
0.338000000000000189,-17.120024294644125007
0.339000000000000190,-16.923959451464451575
0.340000000000000191,-16.729609771248817651
0.341000000000000192,-16.536961876501706570
0.342000000000000193,-16.346004260766491711
0.343000000000000194,-16.156727199615886548
0.344000000000000195,-15.969122660661065893
0.345000000000000195,-15.783184212934875390
0.346000000000000196,-15.598906935981839084
0.347000000000000197,-15.416287328965756487
0.348000000000000198,-15.235323220084406870
0.349000000000000199,-15.056013676559597769
0.350000000000000200,-14.878358915451238786
0.351000000000000201,-14.702360215523963660
0.352000000000000202,-14.528019830376351251
0.353000000000000203,-14.355340903024488952
0.354000000000000203,-14.184327382113973925
0.355000000000000204,-14.014983939917925682
0.356000000000000205,-13.847315892262439974
0.357000000000000206,-13.681329120505356656
0.358000000000000207,-13.517029995679806120
0.359000000000000208,-13.354425304900022553
0.360000000000000209,-13.193522180113523845
0.361000000000000210,-13.034328029271382121
0.362000000000000210,-12.876850469976236724
0.363000000000000211,-12.721097265656762687
0.364000000000000212,-12.567076264306503930
0.365000000000000213,-12.414795339815125175
0.366000000000000214,-12.264262335910963486
0.367000000000000215,-12.115485012724878544
0.368000000000000216,-11.968470995977483540
0.369000000000000217,-11.823227728784051038
0.370000000000000218,-11.679762426064698388
0.371000000000000218,-11.538082031540726646
0.372000000000000219,-11.398193177292155198
0.373000000000000220,-11.260102145845987565
0.374000000000000221,-11.123814834759830461
0.375000000000000222,-10.989336723660786177
0.376000000000000223,-10.856672843695509556
0.377000000000000224,-10.725827749343611828
0.378000000000000225,-10.596805492543273530
0.379000000000000226,-10.469609599074887640
0.380000000000000226,-10.344243047146115089
0.381000000000000227,-10.220708248119274586
0.382000000000000228,-10.099007029320224760
0.383000000000000229,-9.979140618866173540
0.384000000000000230,-9.861109632448306073
0.385000000000000231,-9.744914062004422561
0.386000000000000232,-9.630553266215461150
0.387000000000000233,-9.518025962759468328
0.388000000000000234,-9.407330222255975372
0.389000000000000234,-9.298463463833821052
0.390000000000000235,-9.191422452254890629
0.391000000000000236,-9.086203296527134654
0.392000000000000237,-8.982801449939833205
0.393000000000000238,-8.881211711455065938
0.394000000000000239,-8.781428228389644985
0.395000000000000240,-8.683444500322590187
0.396000000000000241,-8.587253384164156955
0.397000000000000242,-8.492847100323139387
0.398000000000000242,-8.400217239910535483
0.399000000000000243,-8.309354772918498000
0.400000000000000244,-8.220250057314739678
0.401000000000000245,-8.132892848994128343
0.402000000000000246,-8.047272312530111549
0.403000000000000247,-7.963377032670194922
0.404000000000000248,-7.881195026521188751
0.405000000000000249,-7.800713756371311369
0.406000000000000250,-7.721920143097678491
0.407000000000000250,-7.644800580109344601
0.408000000000000251,-7.569340947777509321
0.409000000000000252,-7.495526628306150130
0.410000000000000253,-7.423342520997737282
0.411000000000000254,-7.352773057870512829
0.412000000000000255,-7.283802219585086668
0.413000000000000256,-7.216413551639985435
0.414000000000000257,-7.150590180797007811
0.415000000000000258,-7.086314831699128902
0.416000000000000258,-7.023569843645011801
0.417000000000000259,-6.962337187485738710
0.418000000000000260,-6.902598482611037589
0.419000000000000261,-6.844335013993470440
0.420000000000000262,-6.787527749260851451
0.421000000000000263,-6.732157355768412010
0.422000000000000264,-6.678204217643515683
0.423000000000000265,-6.625648452777501696
0.424000000000000266,-6.574469929740172525
0.425000000000000266,-6.524648284594098513
0.426000000000000267,-6.476162937586910751
0.427000000000000268,-6.428993109701329089
0.428000000000000269,-6.383117839043686459
0.429000000000000270,-6.338515997052885709
0.430000000000000271,-6.295166304513211131
0.431000000000000272,-6.253047347355051855
0.432000000000000273,-6.212137592229149519
0.433000000000000274,-6.172415401840802396
0.434000000000000274,-6.133859050031507998
0.435000000000000275,-6.096446736596630167
0.436000000000000276,-6.060156601828521339
0.437000000000000277,-6.024966740775494323
0.438000000000000278,-5.990855217207990968
0.439000000000000279,-5.957800077284089113
0.440000000000000280,-5.925779362907329428
0.441000000000000281,-5.894771124770612047
0.442000000000000282,-5.864753435080821475
0.443000000000000282,-5.835704399959321442
0.444000000000000283,-5.807602171514387734
0.445000000000000284,-5.780424959582221689
0.446000000000000285,-5.754151043133743926
0.447000000000000286,-5.728758781345240969
0.448000000000000287,-5.704226624331112383
0.449000000000000288,-5.680533123537957252
0.450000000000000289,-5.657656941799435124
0.451000000000000290,-5.635576863051983132
0.452000000000000290,-5.614271801711929299
0.453000000000000291,-5.593720811714943508
0.454000000000000292,-5.573903095219273851
0.455000000000000293,-5.554798010974478117
0.456000000000000294,-5.536385082357907272
0.457000000000000295,-5.518644005081353221
0.458000000000000296,-5.501554654570833591
0.459000000000000297,-5.485097093022524462
0.460000000000000298,-5.469251576138447035
0.461000000000000298,-5.453998559545401470
0.462000000000000299,-5.439318704901364931
0.463000000000000300,-5.425192885693323142
0.464000000000000301,-5.411602192731053584
0.465000000000000302,-5.398527939341400739
0.466000000000000303,-5.385951666267901672
0.467000000000000304,-5.373855146280559936
0.468000000000000305,-5.362220388500976043
0.469000000000000306,-5.351029642448034807
0.470000000000000306,-5.340265401809397794
0.471000000000000307,-5.329910407944344009
0.472000000000000308,-5.319947653123468179
0.473000000000000309,-5.310360383510824178
0.474000000000000310,-5.301132101894177495
0.475000000000000311,-5.292246570169234943
0.476000000000000312,-5.283687811583471117
0.477000000000000313,-5.275440112745500620
0.478000000000000314,-5.267488025405785201
0.479000000000000314,-5.259816368014609722
0.480000000000000315,-5.252410227063124992
0.481000000000000316,-5.245254958213404706
0.482000000000000317,-5.238336187223397999
0.483000000000000318,-5.231639810672585433
0.484000000000000319,-5.225151996494215467
0.485000000000000320,-5.218859184319957656
0.486000000000000321,-5.212748085642729734
0.487000000000000322,-5.206805683803416684
0.488000000000000322,-5.201019233807259390
0.489000000000000323,-5.195376261975459542
0.490000000000000324,-5.189864565437701138
0.491000000000000325,-5.184472211471072178
0.492000000000000326,-5.179187536690844418
0.493000000000000327,-5.173999146098582358
0.494000000000000328,-5.168895911992859027
0.495000000000000329,-5.163866972747909401
0.496000000000000330,-5.158901731465370233
0.497000000000000330,-5.153989854504215984
0.498000000000000331,-5.149121269893996988
0.499000000000000332,-5.144286165636229313
0.500000000000000333,-5.139474987898873692
0.501000000000000334,-5.134678439108696146
0.502000000000000335,-5.129887475946127928
0.503000000000000336,-5.125093307247325924
0.504000000000000337,-5.120287391817877065
0.505000000000000338,-5.115461436162586750
0.506000000000000338,-5.110607392135720239
0.507000000000000339,-5.105717454515867892
0.508000000000000340,-5.100784058509674423
0.509000000000000341,-5.095799877188361471
0.510000000000000342,-5.090757818861125550
0.511000000000000343,-5.085651024389191477
0.512000000000000344,-5.080472864444344872
0.513000000000000345,-5.075216936715558624
0.514000000000000346,-5.069877063067392164
0.515000000000000346,-5.064447286653553704
0.516000000000000347,-5.058921868989094683
0.517000000000000348,-5.053295286984525347
0.518000000000000349,-5.047562229945031120
0.519000000000000350,-5.041717596537980128
0.520000000000000351,-5.035756491731710582
0.521000000000000352,-5.029674223708548553
0.522000000000000353,-5.023466300754919622
0.523000000000000353,-5.017128428131346851
0.524000000000000354,-5.010656504924985377
0.525000000000000355,-5.004046620887303121
0.526000000000000356,-4.997295053259458442
0.527000000000000357,-4.990398263587719541
0.528000000000000358,-4.983352894531440924
0.529000000000000359,-4.976155766665618430
0.530000000000000360,-4.968803875280503490
0.531000000000000361,-4.961294387180147147
0.532000000000000361,-4.953624637482077375
0.533000000000000362,-4.945792126419945589
0.534000000000000363,-4.937794516151162938
0.535000000000000364,-4.929629627571208594
0.536000000000000365,-4.921295437136468998
0.537000000000000366,-4.912790073697200555
0.538000000000000367,-4.904111815342281133
0.539000000000000368,-4.895259086257247816
0.540000000000000369,-4.886230453597134371
0.541000000000000369,-4.877024624375483342
0.542000000000000370,-4.867640442370912979
0.543000000000000371,-4.858076885052490468
0.544000000000000372,-4.848333060525198412
0.545000000000000373,-4.838408204496571940
0.546000000000000374,-4.828301677265715242
0.547000000000000375,-4.818012960735681638
0.548000000000000376,-4.807541655450267903
0.549000000000000377,-4.796887477656135879
0.550000000000000377,-4.786050256391169100
0.551000000000000378,-4.775029930599934858
0.552000000000000379,-4.763826546277014629
0.553000000000000380,-4.752440253638972933
0.554000000000000381,-4.740871304325668056
0.555000000000000382,-4.729120048631572537
0.556000000000000383,-4.717186932767682528
0.557000000000000384,-4.705072496154641293
0.558000000000000385,-4.692777368747576006
0.559000000000000385,-4.680302268393147003
0.560000000000000386,-4.667647998219250915
0.561000000000000387,-4.654815444057835983
0.562000000000000388,-4.641805571901164384
0.563000000000000389,-4.628619425391873321
0.564000000000000390,-4.615258123347170560
0.565000000000000391,-4.601722857317410487
0.566000000000000392,-4.588014889179332201
0.567000000000000393,-4.574135548764138193
0.568000000000000393,-4.560086231520607214
0.569000000000000394,-4.545868396213419871
0.570000000000000395,-4.531483562656823949
0.571000000000000396,-4.516933309483681214
0.572000000000000397,-4.502219271950063550
0.573000000000000398,-4.487343139775396672
0.574000000000000399,-4.472306655018160271
0.575000000000000400,-4.457111609987221001
0.576000000000000401,-4.441759845188692601
0.577000000000000401,-4.426253247308364003
0.578000000000000402,-4.410593747229571093
0.579000000000000403,-4.394783318086505020
0.580000000000000404,-4.378823973352760746
0.581000000000000405,-4.362717764965138301
0.582000000000000406,-4.346466781482439146
0.583000000000000407,-4.330073146279188379
0.584000000000000408,-4.313539015774114915
0.585000000000000409,-4.296866577693157829
0.586000000000000409,-4.280058049366862072
0.587000000000000410,-4.263115676061941528
0.588000000000000411,-4.246041729346773153
0.589000000000000412,-4.228838505490601030
0.590000000000000413,-4.211508323896207884
0.591000000000000414,-4.194053525565820451
0.592000000000000415,-4.176476471599942286
0.593000000000000416,-4.158779541728859996
0.594000000000000417,-4.140965132876564425
0.595000000000000417,-4.123035657756750183
0.596000000000000418,-4.104993543500609299
0.597000000000000419,-4.086841230316154316
0.598000000000000420,-4.068581170178663164
0.599000000000000421,-4.050215825552021087
0.600000000000000422,-4.031747668140559071
0.601000000000000423,-4.013179177671110764
0.602000000000000424,-3.994512840704887768
0.603000000000000425,-3.975751149478898405
0.604000000000000425,-3.956896600776496520
0.605000000000000426,-3.937951694826749893
0.606000000000000427,-3.918918934232262785
0.607000000000000428,-3.899800822925075572
0.608000000000000429,-3.880599865150282657
