# Fe111_LEUSCA-AC
# h[nm],U(h)[kJ/mol]
0.149999999999999994,133.226113902451515969
0.150999999999999995,130.008799726704808108
0.151999999999999996,126.230397820885599458
0.152999999999999997,122.299839510986515734
0.153999999999999998,118.454311626281963754
0.154999999999999999,114.800562586752747052
0.156000000000000000,111.359947392702764546
0.157000000000000001,108.106651947595381102
0.158000000000000002,104.995729632807496046
0.159000000000000002,101.981193490955206471
0.160000000000000003,99.025951940323565736
0.161000000000000004,96.105792602020684967
0.162000000000000005,93.209472307197074770
0.163000000000000006,90.336589256362572087
0.164000000000000007,87.494475526518343145
0.165000000000000008,84.694944954385093183
0.166000000000000009,81.951400699978947273
0.167000000000000010,79.276557216636177827
0.168000000000000010,76.680856776697481791
0.169000000000000011,74.171548595311776353
0.170000000000000012,71.752334813056123153
0.171000000000000013,69.423458871608147547
0.172000000000000014,67.182106870350935424
0.173000000000000015,65.023002376340613750
0.174000000000000016,62.939093161496714401
0.175000000000000017,60.922249689357556690
0.176000000000000018,58.963916682839318639
0.177000000000000018,57.055678812498662467
0.178000000000000019,55.189718394456484418
0.179000000000000020,53.359156557399046505
0.180000000000000021,51.558279631213643768
0.181000000000000022,49.782659788773706566
0.182000000000000023,48.029183641635199820
0.183000000000000024,46.296005012218152785
0.184000000000000025,44.582438943679107979
0.185000000000000026,42.888813595602059081
0.186000000000000026,41.216295388212259354
0.187000000000000027,39.566700918864285086
0.188000000000000028,37.942307039197693541
0.189000000000000029,36.345668248523466559
0.190000000000000030,34.779448375595634957
0.191000000000000031,33.246271489203266469
0.192000000000000032,31.748595163367173910
0.193000000000000033,30.288607661259181469
0.194000000000000034,28.868149306516290409
0.195000000000000034,27.488657277853985050
0.196000000000000035,26.151132277495072742
0.197000000000000036,24.856124962951369639
0.198000000000000037,23.603739667752041242
0.199000000000000038,22.393652740539533141
0.200000000000000039,21.225142774262003798
0.201000000000000040,20.097130049992159684
0.202000000000000041,19.008222657399567623
0.203000000000000042,17.956766953026480849
0.204000000000000042,16.940900258177794768
0.205000000000000043,15.958603963408766191
0.206000000000000044,15.007755482202394859
0.207000000000000045,14.086177771190012464
0.208000000000000046,13.191685399416931190
0.209000000000000047,12.322126398175456075
0.210000000000000048,11.475419351246312516
0.211000000000000049,10.649585390087603187
0.212000000000000050,9.842774938028076903
0.213000000000000050,9.053289201417561216
0.214000000000000051,8.279596534376690187
0.215000000000000052,7.520343908359218510
0.216000000000000053,6.774363799756227600
0.217000000000000054,6.040676870123632192
0.218000000000000055,5.318490856396365984
0.219000000000000056,4.607196114851516811
0.220000000000000057,3.906358274795137753
0.221000000000000058,3.215708458128034408
0.222000000000000058,2.535131511131125670
0.223000000000000059,1.864652676923809427
0.224000000000000060,1.204423112834472009
0.225000000000000061,0.554704627967574360
0.226000000000000062,-0.084146016039454707
0.227000000000000063,-0.711692932477123841
0.228000000000000064,-1.327436792102949070
0.229000000000000065,-1.930830123235951046
0.230000000000000066,-2.521292026921628349
0.231000000000000066,-3.098222138549213245
0.232000000000000067,-3.661013699524267029
0.233000000000000068,-4.209065632823954850
0.234000000000000069,-4.741793544231552637
0.235000000000000070,-5.258639596595537924
0.236000000000000071,-5.759081227492389488
0.237000000000000072,-6.242638701163961912
0.238000000000000073,-6.708881503570312432
0.239000000000000073,-7.157433604912990077
0.240000000000000074,-7.587977627144316450
0.241000000000000075,-8.000257964904289310
0.242000000000000076,-8.394082917167555280
0.243000000000000077,-8.769325893792494497
0.244000000000000078,-9.125925766308395026
0.245000000000000079,-9.463886435823166465
0.246000000000000080,-9.783275693050988764
0.247000000000000081,-10.084223446313718142
0.248000000000000081,-10.366919393119243153
0.249000000000000082,-10.631610209719225324
0.250000000000000111,-10.878596331042459155
0.251000000000000112,-11.108228390721476941
0.252000000000000113,-11.320903387707364374
0.253000000000000114,-11.517060642310990914
0.254000000000000115,-11.697177600527927765
0.255000000000000115,-11.861765541286704462
0.256000000000000116,-12.011365236894103958
0.257000000000000117,-12.146542612507701620
0.258000000000000118,-12.267884446009166055
0.259000000000000119,-12.375994145238491839
0.260000000000000120,-12.471487635225667390
0.261000000000000121,-12.554989383860432284
0.262000000000000122,-12.627128590407474817
0.263000000000000123,-12.688535557427078615
0.264000000000000123,-12.739838263021578513
0.265000000000000124,-12.781659146909820635
0.266000000000000125,-12.814612120646089011
0.267000000000000126,-12.839299809351967241
0.268000000000000127,-12.856311029622901287
0.269000000000000128,-12.866218505804166483
0.270000000000000129,-12.869576824601557163
0.271000000000000130,-12.866920625993884642
0.272000000000000131,-12.858763026641222282
0.273000000000000131,-12.845594270425058525
0.274000000000000132,-12.827880599405180106
0.275000000000000133,-12.806063337321768714
0.276000000000000134,-12.780558176798962222
0.277000000000000135,-12.751754660605543634
0.278000000000000136,-12.720015846688564665
0.279000000000000137,-12.685678146202638672
0.280000000000000138,-12.649051323401373281
0.281000000000000139,-12.610418646023990874
0.282000000000000139,-12.570037174689772996
0.283000000000000140,-12.528138179792906115
0.284000000000000141,-12.484927674460447378
0.285000000000000142,-12.440587052286412373
0.286000000000000143,-12.395273818774500185
0.287000000000000144,-12.349122405702530614
0.288000000000000145,-12.302245057954340979
0.289000000000000146,-12.254732782740514807
0.290000000000000147,-12.206656351542221728
0.291000000000000147,-12.158067345553538630
0.292000000000000148,-12.108999235862462740
0.293000000000000149,-12.059468490091935777
0.294000000000000150,-12.009475697715057407
0.295000000000000151,-11.959006706758920302
0.296000000000000152,-11.908033765113245295
0.297000000000000153,-11.856516660161423360
0.298000000000000154,-11.804403850947398524
0.299000000000000155,-11.751633587580592177
0.300000000000000155,-11.698135013059047793
0.301000000000000156,-11.643829243156593733
0.302000000000000157,-11.588630420471075055
0.303000000000000158,-11.532446739165694183
0.304000000000000159,-11.475181437353663583
0.305000000000000160,-11.416733754475455243
0.306000000000000161,-11.356999851398850154
0.307000000000000162,-11.295873691332593225
0.308000000000000163,-11.233247879985080786
0.309000000000000163,-11.169014463720454700
0.310000000000000164,-11.103065684764526821
0.311000000000000165,-11.035294692793190308
0.312000000000000166,-10.965596212496485862
0.313000000000000167,-10.893867166952023950
0.314000000000000168,-10.820007256863195977
0.315000000000000169,-10.743919495920486895
0.316000000000000170,-10.665510702729338988
0.317000000000000171,-10.584691949915292497
0.318000000000000171,-10.501378971167937948
0.319000000000000172,-10.415492527120026267
0.320000000000000173,-10.326958731077287013
0.321000000000000174,-10.235709335719349156
0.322000000000000175,-10.141681981983195371
0.323000000000000176,-10.044820411418445616
0.324000000000000177,-9.945074643369414602
0.325000000000000178,-9.842401118392954729
0.326000000000000179,-9.736762809364680749
0.327000000000000179,-9.628129301759120295
0.328000000000000180,-9.516476844613391606
0.329000000000000181,-9.401788373699954349
0.330000000000000182,-9.284053508440234026
0.331000000000000183,-9.163268524092369915
0.332000000000000184,-9.039436300738818986
0.333000000000000185,-8.912566250587632410
0.334000000000000186,-8.782674225082882202
0.335000000000000187,-8.649782403296924826
0.336000000000000187,-8.513919163049958883
0.337000000000000188,-8.375118936170915518
0.338000000000000189,-8.233422049279484511
0.339000000000000190,-8.088874551431249671
0.340000000000000191,-7.941528029927733101
0.341000000000000192,-7.791439415551425718
0.342000000000000193,-7.638670778440887155
0.343000000000000194,-7.483289115776568856
0.344000000000000195,-7.325366132400320751
0.345000000000000195,-7.164978015444877890
0.346000000000000196,-7.002205204001022310
0.347000000000000197,-6.837132154801778938
0.348000000000000198,-6.669847104854843778
0.349000000000000199,-6.500441831905332535
0.350000000000000200,-6.329011413563700117
0.351000000000000201,-6.155653985885048307
0.352000000000000202,-5.980470502139773714
0.353000000000000203,-5.803564492468777480
0.354000000000000203,-5.625041825071031454
0.355000000000000204,-5.445010469526914143
0.356000000000000205,-5.263580262817348476
0.357000000000000206,-5.080862678556377077
0.358000000000000207,-4.896970599913743172
0.359000000000000208,-4.712018096664502664
0.360000000000000209,-4.526120206763922127
0.361000000000000210,-4.339392722809006564
0.362000000000000210,-4.151951983712171668
0.363000000000000211,-3.963914671878305374
0.364000000000000212,-3.775397616143624013
0.365000000000000213,-3.586517600703037711
0.366000000000000214,-3.397391180222995022
0.367000000000000215,-3.208134501307839059
0.368000000000000216,-3.018863130460796018
0.369000000000000217,-2.829691888654603193
0.370000000000000218,-2.640734692602650036
0.371000000000000218,-2.452104402798090721
0.372000000000000219,-2.263912678366986508
0.373000000000000220,-2.076269838760747000
0.374000000000000221,-1.889284732294339575
0.375000000000000222,-1.703064611518426918
0.376000000000000223,-1.517715015397117284
0.377000000000000224,-1.333339658247403081
0.378000000000000225,-1.150040325381885387
0.379000000000000226,-0.967916775383106498
0.380000000000000226,-0.787066648925567658
0.381000000000000227,-0.607585384050132626
0.382000000000000228,-0.429566137785405089
0.383000000000000229,-0.253099714001318088
0.384000000000000230,-0.078274497371443569
0.385000000000000231,0.094823606686484929
0.386000000000000232,0.266111226229667597
0.387000000000000233,0.435507571312409969
0.388000000000000234,0.602934476960220733
0.389000000000000234,0.768316440749034490
0.390000000000000235,0.931580655146932890
0.391000000000000236,1.092657034778480973
0.392000000000000237,1.251478238775027174
0.393000000000000238,1.407979688375739169
0.394000000000000239,1.562099579946214956
0.395000000000000240,1.713778893582209140
0.396000000000000241,1.862961397466704083
0.397000000000000242,2.009593648148753520
0.398000000000000242,2.153624986912069605
0.399000000000000243,2.295007532400811456
0.400000000000000244,2.433696169669255394
0.401000000000000245,2.569648535820003410
0.402000000000000246,2.702825002394622977
0.403000000000000247,2.833188654678245211
0.404000000000000248,2.960705268077432173
0.405000000000000249,3.085343281728588405
0.406000000000000250,3.207073769491347370
0.407000000000000250,3.325870408478683427
0.408000000000000251,3.441709445272675971
0.409000000000000252,3.554569659971479556
0.410000000000000253,3.664432328210269763
0.411000000000000254,3.771281181295139895
0.412000000000000255,3.875102364585899295
0.413000000000000256,3.975884394259899146
0.414000000000000257,4.073618112585712936
0.415000000000000258,4.168296641831531701
0.416000000000000258,4.259915336929786633
0.417000000000000259,4.348471737015509930
0.418000000000000260,4.433965515952325909
0.419000000000000261,4.516398431956268666
0.420000000000000262,4.595774276423634674
0.421000000000000263,4.672098822065594348
0.422000000000000264,4.745379770448241885
0.423000000000000265,4.815626699033419555
0.424000000000000266,4.882851007811416011
0.425000000000000266,4.947065865613529567
0.426000000000000267,5.008286156188455962
0.427000000000000268,5.066528424123051266
0.428000000000000269,5.121810820684421728
0.429000000000000270,5.174153049656846193
0.430000000000000271,5.223576313243558644
0.431000000000000272,5.270103258100113486
0.432000000000000273,5.313757921562666908
0.433000000000000274,5.354565678131367079
0.434000000000000274,5.392553186265793386
0.435000000000000275,5.427748335546334957
0.436000000000000276,5.460180194252377106
0.437000000000000277,5.489878957405172066
0.438000000000000278,5.516875895320447754
0.439000000000000279,5.541203302712990997
0.440000000000000280,5.562894448392677660
0.441000000000000281,5.581983525588922745
0.442000000000000282,5.598505602937717818
0.443000000000000282,5.612496576163268358
0.444000000000000283,5.623993120483453012
0.445000000000000284,5.633032643766350489
0.446000000000000285,5.639653240462692452
0.447000000000000286,5.643893646336779923
0.448000000000000287,5.645793194016611061
0.449000000000000288,5.645391769381702396
0.450000000000000289,5.642729768805237356
0.451000000000000290,5.637848057265347101
0.452000000000000290,5.630787927338457344
0.453000000000000291,5.621591059085957021
0.454000000000000292,5.610299480843805142
0.455000000000000293,5.596955530923052535
0.456000000000000294,5.581601820227833244
0.457000000000000295,5.564281195795889090
0.458000000000000296,5.545036705265227184
0.459000000000000297,5.523911562269457676
0.460000000000000298,5.500949112762690163
0.461000000000000298,5.476192802274208127
0.462000000000000299,5.449686144091446138
0.463000000000000300,5.421472688369195936
0.464000000000000301,5.391595992161691164
0.465000000000000302,5.360099590373319955
0.466000000000000303,5.327026967622829901
0.467000000000000304,5.292421531015071068
0.468000000000000305,5.256326583813393682
0.469000000000000306,5.218785300005196248
0.470000000000000306,5.179840699752422672
0.471000000000000307,5.139535625717938316
0.472000000000000308,5.097912720258406694
0.473000000000000309,5.055014403473458096
0.474000000000000310,5.010882852100610130
0.475000000000000311,4.965559979244628330
0.476000000000000312,4.919087414930011448
0.477000000000000313,4.871506487464353441
0.478000000000000314,4.822858205600374149
0.479000000000000314,4.773183241483790695
0.480000000000000315,4.722521914374066654
0.481000000000000316,4.670914175124680767
0.482000000000000317,4.618399591409361626
0.483000000000000318,4.565017333680492229
0.484000000000000319,4.510806161845718698
0.485000000000000320,4.455804412648573631
0.486000000000000321,4.400049987738876567
0.487000000000000322,4.343580342418457363
0.488000000000000322,4.286432475047661228
0.489000000000000323,4.228642917098198950
0.490000000000000324,4.170247723837523068
0.491000000000000325,4.111282465630206495
0.492000000000000326,4.051782219841552291
0.493000000000000327,3.991781563328876903
0.494000000000000328,3.931314565505643177
0.495000000000000329,3.870414781964035988
0.496000000000000330,3.809115248641217200
0.497000000000000330,3.747448476514930515
0.498000000000000331,3.685446446813882115
0.499000000000000332,3.623140606728790569
0.500000000000000333,3.560561865609645160
0.501000000000000334,3.497740591635219776
0.502000000000000335,3.434706608940833128
0.503000000000000336,3.371489195190540133
0.504000000000000337,3.308117079579977915
0.505000000000000338,3.244618441256419406
0.506000000000000338,3.181020908142591530
0.507000000000000339,3.117351556151060965
0.508000000000000340,3.053636908776124148
0.509000000000000341,2.989902937050442855
0.510000000000000342,2.926175059853573401
0.511000000000000343,2.862478144560085980
0.512000000000000344,2.798836508014848512
0.513000000000000345,2.735273917823499712
0.514000000000000346,2.671813593946114285
0.515000000000000346,2.608478210582480639
0.516000000000000347,2.545289898337450119
0.517000000000000348,2.482270246655144064
0.518000000000000349,2.419440306510900029
0.519000000000000350,2.356820593350275495
0.520000000000000351,2.294431090264247963
0.521000000000000352,2.232291251390493336
0.522000000000000353,2.170420005530348639
0.523000000000000353,2.108835759971551482
0.524000000000000354,2.047556404507117289
0.525000000000000355,1.986599315640610097
0.526000000000000356,1.925981360968742617
0.527000000000000357,1.865718903732041856
0.528000000000000358,1.805827807524690964
0.529000000000000359,1.746323441155096079
0.530000000000000360,1.687220683648442021
0.531000000000000361,1.628533929383236822
0.532000000000000361,1.570277093353671827
0.533000000000000362,1.512463616550079326
0.534000000000000363,1.455106471449822303
0.535000000000000364,1.398218167611236407
0.536000000000000365,1.341810757363433027
0.537000000000000366,1.285895841584968391
0.538000000000000367,1.230484575564547933
0.539000000000000368,1.175587674937232041
0.540000000000000369,1.121215421689652603
0.541000000000000369,1.067377670228115694
0.542000000000000370,1.014083853503494170
0.543000000000000371,0.961342989187103591
0.544000000000000372,0.909163685891896556
0.545000000000000373,0.857554149433526702
0.546000000000000374,0.806522189125920219
0.547000000000000375,0.756075224106308452
0.548000000000000376,0.706220289684707736
0.549000000000000377,0.656964043713129220
0.550000000000000377,0.608312772969811233
0.551000000000000378,0.560272399554104572
0.552000000000000379,0.512848487287691279
0.553000000000000380,0.466046248117957362
0.554000000000000381,0.419870548519592102
0.555000000000000382,0.374325915890550587
0.556000000000000383,0.329416544938675615
0.557000000000000384,0.285146304055492628
0.558000000000000385,0.241518741673700410
0.559000000000000385,0.198537092605134580
0.560000000000000386,0.156204284356103146
0.561000000000000387,0.114522943417015591
0.562000000000000388,0.073495401523518925
0.563000000000000389,0.033123701886320453
0.564000000000000390,-0.006590394612830675
0.565000000000000391,-0.045645403261614551
0.566000000000000392,-0.084040109396360502
0.567000000000000393,-0.121773562322319687
0.568000000000000393,-0.158845069277151751
0.569000000000000394,-0.195254189439702547
0.570000000000000395,-0.231000727985939680
0.571000000000000396,-0.266084730193983543
0.572000000000000397,-0.300506475599923051
0.573000000000000398,-0.334266472206083853
0.574000000000000399,-0.367365450743266320
0.575000000000000400,-0.399804358988496811
0.576000000000000401,-0.431584356139551317
0.577000000000000401,-0.462706807247631968
0.578000000000000402,-0.493173277709369806
0.579000000000000403,-0.522985527819238460
0.580000000000000404,-0.552145507383467349
0.581000000000000405,-0.580655350396400372
0.582000000000000406,-0.608517369780184558
0.583000000000000407,-0.635734052188620780
0.584000000000000408,-0.662308052875920872
0.585000000000000409,-0.688242190631024320
0.586000000000000409,-0.713539442778159949
0.587000000000000410,-0.738202940244131689
0.588000000000000411,-0.762235962692853541
0.589000000000000412,-0.785641933727590058
0.590000000000000413,-0.808424416161223514
0.591000000000000414,-0.830587107354925691
0.592000000000000415,-0.852133834625464770
0.593000000000000416,-0.873068550721379566
0.594000000000000417,-0.893395329368215529
0.595000000000000417,-0.913118360882863356
0.596000000000000418,-0.932241947857198605
0.597000000000000419,-0.950770500910930516
0.598000000000000420,-0.968708534513748831
0.599000000000000421,-0.986060662876639404
0.600000000000000422,-1.002831595912360596
0.601000000000000423,-1.019026135264855526
0.602000000000000424,-1.034649170407530905
0.603000000000000425,-1.049705674810179623
0.604000000000000425,-1.064200702174255664
0.605000000000000426,-1.078139382736331031
0.606000000000000427,-1.091526919639397297
0.607000000000000428,-1.104368585371682254
0.608000000000000429,-1.116669718272687906
0.609000000000000430,-1.128435719105993051
0.610000000000000431,-1.139672047698525592
0.611000000000000432,-1.150384219645792516
0.612000000000000433,-1.160577803082667003
0.613000000000000433,-1.170258415519303652
0.614000000000000434,-1.179431720741604073
0.615000000000000435,-1.188103425775808297
