# Fe111_CS-12229-AC
# h[nm],U(h)[kJ/mol]
0.200000000000000011,45.087789613053914195
0.201000000000000012,39.818965959782808284
0.202000000000000013,36.387938470032437976
0.203000000000000014,33.836769533265524501
0.204000000000000015,31.618824957418702581
0.205000000000000016,29.450664789918256758
0.206000000000000016,27.210435618819893477
0.207000000000000017,24.869634804068319056
0.208000000000000018,22.448532062798008724
0.209000000000000019,19.988115031402816868
0.210000000000000020,17.533366783574741987
0.211000000000000021,15.124135253433578896
0.212000000000000022,12.790933556829205742
0.213000000000000023,10.553806242612139954
0.214000000000000024,8.422978775720935118
0.215000000000000024,6.400429201908893972
0.216000000000000025,4.481822626014286826
0.217000000000000026,2.658461834254249645
0.218000000000000027,0.919054614976960060
0.219000000000000028,-0.748802166820584536
0.220000000000000029,-2.357456578079637488
0.221000000000000030,-3.918347885157878352
0.222000000000000031,-5.441435674727463478
0.223000000000000032,-6.934870511848653329
0.224000000000000032,-8.404860647547135244
0.225000000000000033,-9.855690034805267175
0.226000000000000034,-11.289846582829961008
0.227000000000000035,-12.708224793656109242
0.228000000000000036,-14.110372750589112556
0.229000000000000037,-15.494759258381890277
0.230000000000000038,-16.859042397081399400
0.231000000000000039,-18.200325635740384200
0.232000000000000040,-19.515391861953141017
0.233000000000000040,-20.800909196957405811
0.234000000000000041,-22.053605310442595311
0.235000000000000042,-23.270409179503207753
0.236000000000000043,-24.448560922768329817
0.237000000000000044,-25.585691559812644869
0.238000000000000045,-26.679875373356885859
0.239000000000000046,-27.729658059097744172
0.240000000000000047,-28.734064100404616227
0.241000000000000048,-29.692586860103098445
0.242000000000000048,-30.605164788730718328
0.243000000000000049,-31.472146949831255824
0.244000000000000050,-32.294250792600962541
0.245000000000000051,-33.072514788493037940
0.246000000000000052,-33.808248213338700339
0.247000000000000053,-34.502980017242833810
0.248000000000000054,-35.158408393729374097
0.249000000000000055,-35.776352346536583582
0.250000000000000056,-36.358706263337857933
0.251000000000000056,-36.907398244353558425
0.252000000000000057,-37.424352702311594498
0.253000000000000058,-37.911457549040555648
0.254000000000000059,-38.370536112584112232
0.255000000000000060,-38.803323785750485797
0.256000000000000061,-39.211449290559301062
0.257000000000000062,-39.596420350861592397
0.258000000000000063,-39.959613495042205500
0.259000000000000064,-40.302267659643710829
0.260000000000000064,-40.625481230476609085
0.261000000000000065,-40.930212137886414325
0.262000000000000066,-41.217280615058015769
0.263000000000000067,-41.487374230438035738
0.264000000000000068,-41.741054815625595609
0.265000000000000069,-41.978766926692500761
0.266000000000000070,-42.200847498315532391
0.267000000000000071,-42.407536374999700968
0.268000000000000071,-42.598987430890147721
0.269000000000000072,-42.775280018231910617
0.270000000000000073,-42.936430513623342620
0.271000000000000074,-43.082403760144821092
0.272000000000000075,-43.213124231688915700
0.273000000000000076,-43.328486772941992911
0.274000000000000077,-43.428366794148047347
0.275000000000000078,-43.512629823784799044
0.276000000000000079,-43.581140344440733259
0.277000000000000079,-43.633769857402960213
0.278000000000000080,-43.670404139706960223
0.279000000000000081,-43.690949673662501596
0.280000000000000082,-43.695339243192449885
0.281000000000000083,-43.683536703768083953
0.282000000000000084,-43.655540943383279284
0.283000000000000085,-43.611389060984180333
0.284000000000000086,-43.551158796174220811
0.285000000000000087,-43.474970249968350799
0.286000000000000087,-43.382986941000460490
0.287000000000000088,-43.275416245019314943
0.288000000000000089,-43.152509267865866605
0.289000000000000090,-43.014560203529185856
0.290000000000000091,-42.861905229445355303
0.291000000000000092,-42.694920991044725156
0.292000000000000093,-42.514022726771727889
0.293000000000000094,-42.319662083492964655
0.294000000000000095,-42.112324670466016130
0.295000000000000095,-41.892527397941961453
0.296000000000000096,-41.660815644095961829
0.297000000000000097,-41.417760291387281768
0.298000000000000098,-41.163954670704200112
0.299000000000000099,-40.900011448802835901
0.300000000000000100,-40.626559491648350786
0.301000000000000101,-40.344240733353259998
0.302000000000000102,-40.053707077515269930
0.303000000000000103,-39.755617354915671058
0.304000000000000103,-39.450634358774024690
0.305000000000000104,-39.139421976085230881
0.306000000000000105,-38.822642431008979713
0.307000000000000106,-38.500953653849848024
0.308000000000000107,-38.175006786870291364
0.309000000000000108,-37.845443836025118856
0.310000000000000109,-37.512895475697277448
0.311000000000000110,-37.177979011656056230
0.312000000000000111,-36.841296505747081369
0.313000000000000111,-36.503433064260939034
0.314000000000000112,-36.164955290507677432
0.315000000000000113,-35.826409900846769574
0.316000000000000114,-35.488322502280610138
0.317000000000000115,-35.151196528707849609
0.318000000000000116,-34.815512332047305222
0.319000000000000117,-34.481726423673734416
0.320000000000000118,-34.150270860950946883
0.321000000000000119,-33.821552773094303745
0.322000000000000119,-33.495954020139777185
0.323000000000000120,-33.173830978431801952
0.324000000000000121,-32.855514445760185538
0.325000000000000122,-32.541309659071245619
0.326000000000000123,-32.231496417542395250
0.327000000000000124,-31.926329303736743270
0.328000000000000125,-31.626037995538620606
0.329000000000000126,-31.330827661606640788
0.330000000000000127,-31.040879433159737744
0.331000000000000127,-30.756350945033979372
0.332000000000000128,-30.477376939100793152
0.333000000000000129,-30.204069923323892510
0.334000000000000130,-29.936520879941088680
0.335000000000000131,-29.674800016490593180
0.336000000000000132,-29.418957553649704550
0.337000000000000133,-29.169024544118180131
0.338000000000000134,-28.925013717052600271
0.339000000000000135,-28.686920342841062848
0.340000000000000135,-28.454723113294978276
0.341000000000000136,-28.228385032625396889
0.342000000000000137,-28.007854314863372736
0.343000000000000138,-27.793065283673598742
0.344000000000000139,-27.583939270798321530
0.345000000000000140,-27.380385509652079179
0.346000000000000141,-27.182302020864732128
0.347000000000000142,-26.989576486841549752
0.348000000000000143,-26.802087112672278835
0.349000000000000143,-26.619703470975355941
0.350000000000000144,-26.442287328509411992
0.351000000000000145,-26.269693452619588214
0.352000000000000146,-26.101770395812344816
0.353000000000000147,-25.938361256967208845
0.354000000000000148,-25.779304417899318480
0.355000000000000149,-25.624434254179810466
0.356000000000000150,-25.473581819305152862
0.357000000000000151,-25.326575501478213681
0.358000000000000151,-25.183241652426399781
0.359000000000000152,-25.043405187832803449
0.360000000000000153,-24.906890159097805792
0.361000000000000154,-24.773520296279290420
0.362000000000000155,-24.643119522180359837
0.363000000000000156,-24.515512437665400114
0.364000000000000157,-24.390524778387032256
0.365000000000000158,-24.267983843200376270
0.366000000000000159,-24.147718894625178621
0.367000000000000159,-24.029561531793412144
0.368000000000000160,-23.913346036388475113
0.369000000000000161,-23.798909692143304540
0.370000000000000162,-23.686093078518858590
0.371000000000000163,-23.574740339232398867
0.372000000000000164,-23.464699426345038802
0.373000000000000165,-23.355822320654436197
0.374000000000000166,-23.247965229167149914
0.375000000000000167,-23.140988760449680228
0.376000000000000167,-23.034758078676823345
0.377000000000000168,-22.929143037210629075
0.378000000000000169,-22.824018292553546416
0.379000000000000170,-22.719263399526564484
0.380000000000000171,-22.614762888525639539
0.381000000000000172,-22.510406325709752196
0.382000000000000173,-22.406088356970279563
0.383000000000000174,-22.301708736525704069
0.384000000000000175,-22.197172340976536020
0.385000000000000175,-22.092389169644810920
0.386000000000000176,-21.987274332009384636
0.387000000000000177,-21.881748023033491535
0.388000000000000178,-21.775735487164791238
0.389000000000000179,-21.669166971770145835
0.390000000000000180,-21.561977670748373015
0.391000000000000181,-21.454107659044296952
0.392000000000000182,-21.345501818766194901
0.393000000000000183,-21.236109757587158242
0.394000000000000183,-21.125885720088355413
0.395000000000000184,-21.014788492679571164
0.396000000000000185,-20.902781302708994815
0.397000000000000186,-20.789831712350988369
0.398000000000000187,-20.675911507836708836
0.399000000000000188,-20.560996584569132040
0.400000000000000189,-20.445066828640147349
0.401000000000000190,-20.328105995244104776
0.402000000000000191,-20.210101584458758595
0.403000000000000191,-20.091044714841579832
0.404000000000000192,-19.970929995266569534
0.405000000000000193,-19.849755395404372393
0.406000000000000194,-19.727522115226513222
0.407000000000000195,-19.604234453893052859
0.408000000000000196,-19.479899678361640269
0.409000000000000197,-19.354527892035882530
0.410000000000000198,-19.228131903750426801
0.411000000000000199,-19.100727097370938878
0.412000000000000199,-18.972331302268266029
0.413000000000000200,-18.842964664907789540
0.414000000000000201,-18.712649521777134254
0.415000000000000202,-18.581410273858459448
0.416000000000000203,-18.449273262835145459
0.417000000000000204,-18.316266649206593087
0.418000000000000205,-18.182420292469910095
0.419000000000000206,-18.047765633512618422
0.420000000000000207,-17.912335579346038372
0.421000000000000207,-17.776164390296631979
0.422000000000000208,-17.639287569758643315
0.423000000000000209,-17.501741756600061706
0.424000000000000210,-17.363564620302032182
0.425000000000000211,-17.224794758900561220
0.426000000000000212,-17.085471599789507025
0.427000000000000213,-16.945635303433292052
0.428000000000000214,-16.805326670028911451
0.429000000000000214,-16.664587049147691289
0.430000000000000215,-16.523458252378922850
0.431000000000000216,-16.381982468990017310
0.432000000000000217,-16.240202184609820790
0.433000000000000218,-16.098160102935505478
0.434000000000000219,-15.955899070456677435
0.435000000000000220,-15.813462004184358989
0.436000000000000221,-15.670891822366977308
0.437000000000000222,-15.528231378170360699
0.438000000000000222,-15.385523396293852016
0.439000000000000223,-15.242810412490362282
0.440000000000000224,-15.100134715953975828
0.441000000000000225,-14.957538294535140722
0.442000000000000226,-14.815062782740131553
0.443000000000000227,-14.672749412468135688
0.444000000000000228,-14.530638966436910664
0.445000000000000229,-14.388771734245235479
0.446000000000000230,-14.247187471018117222
0.447000000000000230,-14.105925358579023410
0.448000000000000231,-13.965023969091481248
0.449000000000000232,-13.824521231110830755
0.450000000000000233,-13.684454397985984286
0.451000000000000234,-13.544860018549636393
0.452000000000000235,-13.405773910034705310
0.453000000000000236,-13.267231133154027134
0.454000000000000237,-13.129265969279950710
0.455000000000000238,-12.991911899659848828
0.456000000000000238,-12.855201586603763886
0.457000000000000239,-12.719166856579935398
0.458000000000000240,-12.583838685154518089
0.459000000000000241,-12.449247183711397824
0.460000000000000242,-12.315421587889016308
0.461000000000000243,-12.182390247670898731
0.462000000000000244,-12.050180619067685228
0.463000000000000245,-11.918819257328470584
0.464000000000000246,-11.788331811620597733
0.465000000000000246,-11.658743021117270899
0.466000000000000247,-11.530076712433576347
0.467000000000000248,-11.402355798352097338
0.468000000000000249,-11.275602277780624405
0.469000000000000250,-11.149837236885092651
0.470000000000000251,-11.025080851342298871
0.471000000000000252,-10.901352389657608555
0.472000000000000253,-10.778670217494608963
0.473000000000000254,-10.657051802964144116
0.474000000000000254,-10.536513722821926109
0.475000000000000255,-10.417071669524755606
0.476000000000000256,-10.298740459096780597
0.477000000000000257,-10.181534039758560084
0.478000000000000258,-10.065465501272615967
0.479000000000000259,-9.950547084960835065
0.480000000000000260,-9.836790194350118810
0.481000000000000261,-9.724205406403884311
0.482000000000000262,-9.612802483298525047
0.483000000000000262,-9.502590384705086990
0.484000000000000263,-9.393577280537561691
0.485000000000000264,-9.285770564130675808
0.486000000000000265,-9.179176865811180974
0.487000000000000266,-9.073802066827886037
0.488000000000000267,-8.969651313606867404
0.489000000000000268,-8.866729032299733859
0.490000000000000269,-8.765038943593555842
0.491000000000000270,-8.664584077752845559
0.492000000000000270,-8.565366789864501840
0.493000000000000271,-8.467388775258381628
0.494000000000000272,-8.370651085076827869
0.495000000000000273,-8.275154141967714594
0.496000000000000274,-8.180897755876921806
0.497000000000000275,-8.087881139916683892
0.498000000000000276,-7.996102926287785628
0.499000000000000277,-7.905561182234409401
0.500000000000000222,-7.816253426011238403
0.501000000000000334,-7.728176642843751054
0.502000000000000224,-7.641327300863406613
0.503000000000000336,-7.555701367000072999
0.504000000000000226,-7.471294322815691835
0.505000000000000338,-7.388101180262957257
0.506000000000000227,-7.306116497354945061
0.507000000000000339,-7.225334393731005278
0.508000000000000229,-7.145748566106483679
0.509000000000000341,-7.067352303593286145
0.510000000000000231,-6.990138502880300919
0.511000000000000343,-6.914099683262106666
0.512000000000000233,-6.839228001506502785
0.513000000000000345,-6.765515266550681694
0.514000000000000234,-6.692952954017921563
0.515000000000000346,-6.621532220545863545
0.516000000000000236,-6.551243917919495452
0.517000000000000348,-6.482078607001279025
0.518000000000000238,-6.414026571452465575
0.519000000000000350,-6.347077831239339218
0.520000000000000240,-6.281222155919419237
0.521000000000000352,-6.216449077702507431
0.522000000000000242,-6.152747904282453995
0.523000000000000353,-6.090107731435596250
0.524000000000000243,-6.028517455382688794
0.525000000000000355,-5.967965784911024585
0.526000000000000245,-5.908441253254578029
0.527000000000000357,-5.849932229729548183
0.528000000000000247,-5.792426931123979550
0.529000000000000359,-5.735913432839577553
0.530000000000000249,-5.680379679785005465
0.531000000000000361,-5.625813497019582776
0.532000000000000250,-5.572202600147287299
0.533000000000000362,-5.519534605460490795
0.534000000000000252,-5.467797039833977024
0.535000000000000364,-5.416977350369295507
0.536000000000000254,-5.367062913790405787
0.537000000000000366,-5.318041045591159310
0.538000000000000256,-5.269899008936168805
0.539000000000000368,-5.222624023315921349
0.540000000000000258,-5.176203272958155743
0.541000000000000369,-5.130623914996753854
0.542000000000000259,-5.085873087400510251
0.543000000000000371,-5.041937916663430386
0.544000000000000261,-4.998805525259155225
0.545000000000000373,-4.956463038861575576
0.546000000000000263,-4.914897593334427661
0.547000000000000375,-4.874096341492202278
0.548000000000000265,-4.834046459635501058
0.549000000000000377,-4.794735153863287636
0.550000000000000266,-4.756149666165343959
0.551000000000000378,-4.718277280297760612
0.552000000000000268,-4.681105327444774034
0.553000000000000380,-4.644621191669951799
0.554000000000000270,-4.608812315160266238
0.555000000000000382,-4.573666203266137487
0.556000000000000272,-4.539170429341112367
0.557000000000000384,-4.505312639384324136
0.558000000000000274,-4.472080556489562930
0.559000000000000385,-4.439461985104150799
0.560000000000000275,-4.407444815101457358
0.561000000000000387,-4.376017025670427607
0.562000000000000277,-4.345166689025894868
0.563000000000000389,-4.314881973943110793
0.564000000000000279,-4.285151149120358660
0.565000000000000391,-4.255962586373041923
0.566000000000000281,-4.227304763663072507
0.567000000000000393,-4.199166267967066268
0.568000000000000282,-4.171535797987116823
0.569000000000000394,-4.144402166707573443
0.570000000000000284,-4.117754303801666182
0.571000000000000396,-4.091581257891347967
0.572000000000000286,-4.065872198664160386
0.573000000000000398,-4.040616418850423663
0.574000000000000288,-4.015803336064500684
0.575000000000000400,-3.991422494513546582
0.576000000000000290,-3.967463566577206446
0.577000000000000401,-3.943916354261736590
0.578000000000000291,-3.920770790531995065
0.579000000000000403,-3.898016940524571705
0.580000000000000293,-3.875645002645554449
0.581000000000000405,-3.853645309556076537
0.582000000000000295,-3.832008329049062745
0.583000000000000407,-3.810724664820257068
0.584000000000000297,-3.789785057136826563
0.585000000000000409,-3.769180383406606438
0.586000000000000298,-3.748901658651143443
0.587000000000000410,-3.728940035885503157
0.588000000000000300,-3.709286806407958270
0.589000000000000412,-3.689933400002378683
0.590000000000000302,-3.670871385056371228
0.591000000000000414,-3.652092468597915254
0.592000000000000304,-3.633588496253391753
0.593000000000000416,-3.615351452129687893
0.594000000000000306,-3.597373458623182696
0.595000000000000417,-3.579646776158205146
0.596000000000000307,-3.562163802857597261
0.597000000000000419,-3.544917074147958314
0.598000000000000309,-3.527899262302119698
0.599000000000000421,-3.511103175921189035
0.600000000000000311,-3.494521759358756530
0.601000000000000423,-3.478148092089453858
0.602000000000000313,-3.461975388024336020
0.603000000000000425,-3.445996994775173849
0.604000000000000314,-3.430206392870087662
0.605000000000000426,-3.414597194922453838
0.606000000000000316,-3.399163144755429578
0.607000000000000428,-3.383898116483911700
0.608000000000000318,-3.368796113556231653
0.609000000000000430,-3.353851267757298249
0.610000000000000320,-3.339057838175278015
0.611000000000000432,-3.324410210133606824
0.612000000000000322,-3.309902894090209990
0.613000000000000433,-3.295530524505651648
0.614000000000000323,-3.281287858682039094
0.615000000000000435,-3.267169775574265689
0.616000000000000325,-3.253171274575339389
0.617000000000000437,-3.239287474277322332
0.618000000000000327,-3.225513611209487319
0.619000000000000439,-3.211845038555175336
0.620000000000000329,-3.198277224848857347
0.621000000000000441,-3.184805752654788158
0.622000000000000330,-3.171426317228708935
0.623000000000000442,-3.158134725163850298
0.624000000000000332,-3.144926893022650827
0.625000000000000444,-3.131798845955382937
0.626000000000000334,-3.118746716306942890
0.627000000000000446,-3.105766742213013298
0.628000000000000336,-3.092855266186732344
0.629000000000000448,-3.080008733696975920
0.630000000000000338,-3.067223691739400238
0.631000000000000449,-3.054496787401168589
0.632000000000000339,-3.041824766420556436
0.633000000000000451,-3.029204471742204419
0.634000000000000341,-3.016632842069129516
0.635000000000000453,-3.004106910412335907
0.636000000000000343,-2.991623802638888385
0.637000000000000455,-2.979180736019369391
0.638000000000000345,-2.966775017775442613
0.639000000000000457,-2.954404043628385601
0.640000000000000346,-2.942065296349325454
0.641000000000000458,-2.929756344311895688
0.642000000000000348,-2.917474840048028817
0.643000000000000460,-2.905218518807542338
0.644000000000000350,-2.892985197122214913
0.645000000000000462,-2.880772771374882968
0.646000000000000352,-2.868579216374244290
0.647000000000000464,-2.856402583935878869
0.648000000000000353,-2.844241001470073638
0.649000000000000465,-2.832092670576905391
0.650000000000000355,-2.819955865649200533
0.651000000000000467,-2.807828932483682927
0.652000000000000357,-2.795710286900944919
0.653000000000000469,-2.783598413374478664
0.654000000000000359,-2.771491863669394373
0.655000000000000471,-2.759389255491000448
0.656000000000000361,-2.747289271143781964
0.657000000000000473,-2.735190656201037296
