# Fe111_CS-12229-AC
# h[nm],U(h)[kJ/mol]
0.149999999999999994,33.713567889331613969
0.150999999999999995,28.718652354186019693
0.151999999999999996,25.218565252905030150
0.152999999999999997,22.129183828971413561
0.153999999999999998,19.065969815099503393
0.154999999999999999,15.960427251642581581
0.156000000000000000,12.859819121846522094
0.157000000000000001,9.831887475920547459
0.158000000000000002,6.926835568821800848
0.159000000000000002,4.168283919451267749
0.160000000000000003,1.557087020240329966
0.161000000000000004,-0.920658943461870272
0.162000000000000005,-3.285673238134809715
0.163000000000000006,-5.559359579582100253
0.164000000000000007,-7.759894898955591813
0.165000000000000008,-9.900303133720210980
0.166000000000000009,-11.988033600934983269
0.167000000000000010,-14.025529645566081172
0.168000000000000010,-16.011340214811319527
0.169000000000000011,-17.941431010804755886
0.170000000000000012,-19.810458588772643651
0.171000000000000013,-21.612863704777176110
0.172000000000000014,-23.343713262577161061
0.173000000000000015,-24.999272926612871260
0.174000000000000016,-26.577327217907082968
0.175000000000000017,-28.077284145965212048
0.176000000000000018,-29.500110748615167466
0.177000000000000018,-30.848147565223950295
0.178000000000000019,-32.124846759527102336
0.179000000000000020,-33.334472444941681601
0.180000000000000021,-34.481794302708259181
0.181000000000000022,-35.571797902793441892
0.182000000000000023,-36.609427938514699008
0.183000000000000024,-37.599374274579460575
0.184000000000000025,-38.545905476326872474
0.185000000000000026,-39.452750377760011702
0.186000000000000026,-40.323025202273349521
0.187000000000000027,-41.159201659577831833
0.188000000000000028,-41.963110162828165528
0.189000000000000029,-42.735971690084603836
0.190000000000000030,-43.478451707265769244
0.191000000000000031,-44.190729841716830606
0.192000000000000032,-44.872579529710307611
0.193000000000000033,-45.523452559848408328
0.194000000000000034,-46.142564218555477851
0.195000000000000034,-46.728975552384035552
0.196000000000000035,-47.281670049175005488
0.197000000000000036,-47.799622774201559139
0.198000000000000037,-48.281860657509589885
0.199000000000000038,-48.727513203016847854
0.200000000000000039,-49.135853373874653016
0.201000000000000040,-49.506328802748711837
0.202000000000000041,-49.838583784457085812
0.203000000000000042,-50.132472738781245880
0.204000000000000042,-50.388065991764428020
0.205000000000000043,-50.605648823712257922
0.206000000000000044,-50.785714780873561836
0.207000000000000045,-50.928954254584439809
0.208000000000000046,-51.036239305125135957
0.209000000000000047,-51.108605655508455357
0.210000000000000048,-51.147232709860261934
0.211000000000000049,-51.153422368006374654
0.212000000000000050,-51.128577317470686125
0.213000000000000050,-51.074179390549453217
0.214000000000000051,-50.991768480878320702
0.215000000000000052,-50.882922423619113772
0.216000000000000053,-50.749238158075932859
0.217000000000000054,-50.592314412638266674
0.218000000000000055,-50.413736080392411054
0.219000000000000056,-50.215060390074818031
0.220000000000000057,-49.997804921470830664
0.221000000000000058,-49.763437466822118438
0.222000000000000058,-49.513367700032219432
0.223000000000000059,-49.248940583026154627
0.224000000000000060,-48.971431412997745269
0.225000000000000061,-48.682042394866392954
0.226000000000000062,-48.381900609419460579
0.227000000000000063,-48.072057238684720915
0.228000000000000064,-47.753487905406991842
0.229000000000000065,-47.427093982468349509
0.230000000000000066,-47.093704730093733701
0.231000000000000066,-46.754080123170510319
0.232000000000000067,-46.408914237472529862
0.233000000000000068,-46.058839071555901512
0.234000000000000069,-45.704428690176619909
0.235000000000000070,-45.346203584909943629
0.236000000000000071,-44.984635157914560466
0.237000000000000072,-44.620150245219917906
0.238000000000000073,-44.253135606294605964
0.239000000000000073,-43.883942316800144567
0.240000000000000074,-43.512890011196759588
0.241000000000000075,-43.140270931134303112
0.242000000000000076,-42.766353744245456880
0.243000000000000077,-42.391387105998788343
0.244000000000000078,-42.015602944630174420
0.245000000000000079,-41.639219455828367700
0.246000000000000080,-41.262443799804557898
0.247000000000000081,-40.885474498631730000
0.248000000000000081,-40.508503536317803650
0.249000000000000082,-40.131718168006351277
0.250000000000000111,-39.755302448010624516
0.251000000000000112,-39.379438489122627232
0.252000000000000113,-39.004307467839282708
0.253000000000000114,-38.630090391855922860
0.254000000000000115,-38.256968647440103837
0.255000000000000115,-37.885124345157635162
0.256000000000000116,-37.514740482925255094
0.257000000000000117,-37.146000945550674999
0.258000000000000118,-36.779090359832338208
0.259000000000000119,-36.414193823967828223
0.260000000000000120,-36.051496529496454002
0.261000000000000121,-35.691183293312768399
0.262000000000000122,-35.333438016464484122
0.263000000000000123,-34.978443085519238309
0.264000000000000123,-34.626378731275067935
0.265000000000000124,-34.277422358522862567
0.266000000000000125,-33.931747859466611317
0.267000000000000126,-33.589524922285221464
0.268000000000000127,-33.250918345196211590
0.269000000000000128,-32.916087365269099507
0.270000000000000129,-32.585185010145593765
0.271000000000000130,-32.258357479766722520
0.272000000000000131,-31.935743564189458255
0.273000000000000131,-31.617474102605292785
0.274000000000000132,-31.303671487754417768
0.275000000000000133,-30.994449219066655843
0.276000000000000134,-30.689911507054979722
0.277000000000000135,-30.390152930742978299
0.278000000000000136,-30.095258149222438249
0.279000000000000137,-29.805301667813370869
0.280000000000000138,-29.520347658734142016
0.281000000000000139,-29.240449835683243407
0.282000000000000139,-28.965651381284693855
0.283000000000000140,-28.695984925954416411
0.284000000000000141,-28.431472576402235575
0.285000000000000142,-28.172125991691142843
0.286000000000000143,-27.917946504529332685
0.287000000000000144,-27.668925285267970793
0.288000000000000145,-27.425043545916459209
0.289000000000000146,-27.186272781363481243
0.290000000000000147,-26.952575044902857826
0.291000000000000147,-26.723903255107082089
0.292000000000000148,-26.500201531063275695
0.293000000000000149,-26.281405552984558938
0.294000000000000150,-26.067442945231459106
0.295000000000000151,-25.858233678820823798
0.296000000000000152,-25.653690490559842630
0.297000000000000153,-25.453719316019984831
0.298000000000000154,-25.258219733655536743
0.299000000000000155,-25.067085417473581543
0.300000000000000155,-24.880204595773562914
0.301000000000000156,-24.697460513594087672
0.302000000000000157,-24.518731896629812894
0.303000000000000158,-24.343893414511633466
0.304000000000000159,-24.172816141476481278
0.305000000000000160,-24.005368012588252924
0.306000000000000161,-23.841414273807526314
0.307000000000000162,-23.680817924343465108
0.308000000000000163,-23.523440149855826320
0.309000000000000163,-23.369140745207914733
0.310000000000000164,-23.217778525601232786
0.311000000000000165,-23.069211725049211026
0.312000000000000166,-22.923298381270839741
0.313000000000000167,-22.779896706203164314
0.314000000000000168,-22.638865441446334614
0.315000000000000169,-22.500064198063832066
0.316000000000000170,-22.363353780264709769
0.317000000000000171,-22.228596492593826639
0.318000000000000171,-22.095656430348906696
0.319000000000000172,-21.964399753032104456
0.320000000000000173,-21.834694940725221102
0.321000000000000174,-21.706413033355605791
0.322000000000000175,-21.579427852890638917
0.323000000000000176,-21.453616208565115642
0.324000000000000177,-21.328858085306684700
0.325000000000000178,-21.205036815580012188
0.326000000000000179,-21.082039234921253978
0.327000000000000179,-20.959755821479973292
0.328000000000000180,-20.838080819926869225
0.329000000000000181,-20.716912350122498765
0.330000000000000182,-20.596152500973882837
0.331000000000000183,-20.475707409934798875
0.332000000000000184,-20.355487328629223498
0.333000000000000185,-20.235406675098211338
0.334000000000000186,-20.115384073187577485
0.335000000000000187,-19.995342379607148331
0.336000000000000187,-19.875208699203483320
0.337000000000000188,-19.754914388995196362
0.338000000000000189,-19.634395051525423526
0.339000000000000190,-19.513590518088392400
0.340000000000000191,-19.392444822386920578
0.341000000000000192,-19.270906165176743485
0.342000000000000193,-19.148926870448267579
0.343000000000000194,-19.026463333692067437
0.344000000000000195,-18.903475962786263409
0.345000000000000195,-18.779929112035638639
0.346000000000000196,-18.655791009882143783
0.347000000000000197,-18.531033680795218288
0.348000000000000198,-18.405632861838373771
0.349000000000000199,-18.279567914394849737
0.350000000000000200,-18.152821731521903814
0.351000000000000201,-18.025380641388085934
0.352000000000000202,-17.897234307233123474
0.353000000000000203,-17.768375624274419522
0.354000000000000203,-17.638800613967987374
0.355000000000000204,-17.508508316015646500
0.356000000000000205,-17.377500678493905895
0.357000000000000206,-17.245782446463305604
0.358000000000000207,-17.113361049400431568
0.359000000000000208,-16.980246487778440923
0.360000000000000209,-16.846451219105258446
0.361000000000000210,-16.711990043712390275
0.362000000000000210,-16.576879990570947854
0.363000000000000211,-16.441140203395903541
0.364000000000000212,-16.304791827283402483
0.365000000000000213,-16.167857896111023308
0.366000000000000214,-16.030363220915486266
0.367000000000000215,-15.892334279447771550
0.368000000000000216,-15.753799107091214893
0.369000000000000217,-15.614787189314105476
0.370000000000000218,-15.475329355815020449
0.371000000000000218,-15.335457676505678037
0.372000000000000219,-15.195205359463679784
0.373000000000000220,-15.054606650975241422
0.374000000000000221,-14.913696737776124479
0.375000000000000222,-14.772511651587739934
0.376000000000000223,-14.631088176034561243
0.377000000000000224,-14.489463756018517770
0.378000000000000225,-14.347676409616132887
0.379000000000000226,-14.205764642554663979
0.380000000000000226,-14.063767365314578939
0.381000000000000227,-13.921723812896763306
0.382000000000000228,-13.779673467285373789
0.383000000000000229,-13.637655982628700713
0.384000000000000230,-13.495711113153825877
0.385000000000000231,-13.353878643823609451
0.386000000000000232,-13.212198323738197914
0.387000000000000233,-13.070709802277118428
0.388000000000000234,-12.929452567972370858
0.389000000000000234,-12.788465890097787891
0.390000000000000235,-12.647788762954558450
0.391000000000000236,-12.507459852828798574
0.392000000000000237,-12.367517447592254243
0.393000000000000238,-12.227999408913749591
0.394000000000000239,-12.088943127045055803
0.395000000000000240,-11.950385478141738460
0.396000000000000241,-11.812362784076597677
0.397000000000000242,-11.674910774700199667
0.398000000000000242,-11.538064552501252180
0.399000000000000243,-11.401858559616526279
0.400000000000000244,-11.266326547138728387
0.401000000000000245,-11.131501546668749469
0.402000000000000246,-10.997415844057227829
0.403000000000000247,-10.864100955278956917
0.404000000000000248,-10.731587604382909262
0.405000000000000249,-10.599905703459404194
0.406000000000000250,-10.469084334565421202
0.407000000000000250,-10.339151733548430201
0.408000000000000251,-10.210135275708712044
0.409000000000000252,-10.082061463240037824
0.410000000000000253,-9.954955914388168736
0.411000000000000254,-9.828843354267025489
0.412000000000000255,-9.703747607272296349
0.413000000000000256,-9.579691591032545972
0.414000000000000257,-9.456697311838279774
0.415000000000000258,-9.334785861489944381
0.416000000000000258,-9.213977415506350965
0.417000000000000259,-9.094291232635523414
0.418000000000000260,-8.975745655611053309
0.419000000000000261,-8.858358113097304809
0.420000000000000262,-8.742145122768212318
0.421000000000000263,-8.627122295464957347
0.422000000000000264,-8.513304340378876844
0.423000000000000265,-8.400705071206978403
0.424000000000000266,-8.289337413228585305
0.425000000000000266,-8.179213411252501231
0.426000000000000267,-8.070344238385379398
0.427000000000000268,-7.962740205573096475
0.428000000000000269,-7.856410771868089782
0.429000000000000270,-7.751364555376770049
0.430000000000000271,-7.647609344842417833
0.431000000000000272,-7.545152111820084606
0.432000000000000273,-7.443999023401360660
0.433000000000000274,-7.344155455448051484
0.434000000000000274,-7.245626006294958010
0.435000000000000275,-7.148414510883417172
0.436000000000000276,-7.052524055288303728
0.437000000000000277,-6.957956991602418206
0.438000000000000278,-6.864714953143592702
0.439000000000000279,-6.772798869950952039
0.440000000000000280,-6.682208984537841623
0.441000000000000281,-6.592944867870461856
0.442000000000000282,-6.505005435542102532
0.443000000000000282,-6.418388964114219775
0.444000000000000283,-6.333093107596722504
0.445000000000000284,-6.249114914040949209
0.446000000000000285,-6.166450842219870054
0.447000000000000286,-6.085096778371378079
0.448000000000000287,-6.005048052981218021
0.449000000000000288,-5.926299457583626307
0.450000000000000289,-5.848845261558343722
0.451000000000000290,-5.772679228904038062
0.452000000000000290,-5.697794634968887273
0.453000000000000291,-5.624184283120223782
0.454000000000000292,-5.551840521336050216
0.455000000000000293,-5.480755258701995203
0.456000000000000294,-5.410919981798463674
0.457000000000000295,-5.342325770963311626
0.458000000000000296,-5.274963316416453551
0.459000000000000297,-5.208822934233475976
0.460000000000000298,-5.143894582156224082
0.461000000000000298,-5.080167875229029129
0.462000000000000299,-5.017632101250114829
0.463000000000000300,-4.956276236028264393
0.464000000000000301,-4.896088958435717231
0.465000000000000302,-4.837058665248843425
0.466000000000000303,-4.779173485768811958
0.467000000000000304,-4.722421296215072672
0.468000000000000305,-4.666789733885238434
0.469000000000000306,-4.612266211075289668
0.470000000000000306,-4.558837928754821966
0.471000000000000307,-4.506491889992441102
0.472000000000000308,-4.455214913127088394
0.473000000000000309,-4.404993644681360898
0.474000000000000310,-4.355814572013636976
0.475000000000000311,-4.307664035706036287
0.476000000000000312,-4.260528241685943129
0.477000000000000313,-4.214393273078882451
0.478000000000000314,-4.169245101791381636
0.479000000000000314,-4.125069599822489330
0.480000000000000315,-4.081852550303112892
0.481000000000000316,-4.039579658262777428
0.482000000000000317,-3.998236561123564847
0.483000000000000318,-3.957808838921443417
0.484000000000000319,-3.918282024255436369
0.485000000000000320,-3.879641611965433778
0.486000000000000321,-3.841873068539598535
0.487000000000000322,-3.804961841252674226
0.488000000000000322,-3.768893367036748820
0.489000000000000323,-3.733653081086173664
0.490000000000000324,-3.699226425198607782
0.491000000000000325,-3.665598855854402593
0.492000000000000326,-3.632755852036579025
0.493000000000000327,-3.600682922794018026
0.494000000000000328,-3.569365614550493948
0.495000000000000329,-3.538789518162437364
0.496000000000000330,-3.508940275728385849
0.497000000000000330,-3.479803587153205147
0.498000000000000331,-3.451365216470447361
0.499000000000000332,-3.423610997926028965
0.500000000000000333,-3.396526841826791987
0.501000000000000334,-3.370098740157490003
0.502000000000000335,-3.344312771969752074
0.503000000000000336,-3.319155108546844701
0.504000000000000337,-3.294612018347889748
0.505000000000000338,-3.270669871735473855
0.506000000000000338,-3.247315145490467181
0.507000000000000339,-3.224534427118032731
0.508000000000000340,-3.202314418948788877
0.509000000000000341,-3.180641942039095227
0.510000000000000342,-3.159503939874585221
0.511000000000000343,-3.138887481880900943
0.512000000000000344,-3.118779766745791271
0.513000000000000345,-3.099168125556585274
0.514000000000000346,-3.080040024757185524
0.515000000000000346,-3.061383068928647866
0.516000000000000347,-3.043185003397421262
0.517000000000000348,-3.025433716675375084
0.518000000000000349,-3.008117242735609764
0.519000000000000350,-2.991223763128151969
0.520000000000000351,-2.974741608939600379
0.521000000000000352,-2.958659262600616735
0.522000000000000353,-2.942965359545368642
0.523000000000000353,-2.927648689726808584
0.524000000000000354,-2.912698198991736653
0.525000000000000355,-2.898102990319530559
0.526000000000000356,-2.883852324928400712
0.527000000000000357,-2.869935623252977130
0.528000000000000358,-2.856342465797020225
0.529000000000000359,-2.843062593864927212
0.530000000000000360,-2.830085910175828445
0.531000000000000361,-2.817402479363795287
0.532000000000000361,-2.805002528367813941
0.533000000000000362,-2.792876446715056638
0.534000000000000363,-2.781014786700960251
0.535000000000000364,-2.769408263469480769
0.536000000000000365,-2.758047754997005274
0.537000000000000366,-2.746924301983172167
0.538000000000000367,-2.736029107651946291
0.539000000000000368,-2.725353537466095322
0.540000000000000369,-2.714889118758312847
0.541000000000000369,-2.704627540282027010
0.542000000000000370,-2.694560651685018904
0.543000000000000371,-2.684680462908763054
0.544000000000000372,-2.674979143516519553
0.545000000000000373,-2.665449021952976061
0.546000000000000374,-2.656082584738317820
0.547000000000000375,-2.646872475599458152
0.548000000000000376,-2.637811494541164592
0.549000000000000377,-2.628892596859708775
0.550000000000000377,-2.620108892101610909
0.551000000000000378,-2.611453642970082534
0.552000000000000379,-2.602920264181558530
0.553000000000000380,-2.594502321274793744
0.554000000000000381,-2.586193529374875233
0.555000000000000382,-2.577987751914436299
0.556000000000000383,-2.569878999314345602
0.557000000000000384,-2.561861427626046961
0.558000000000000385,-2.553929337137710753
0.559000000000000385,-2.546077170946264179
0.560000000000000386,-2.538299513497318749
0.561000000000000387,-2.530591089095004520
0.562000000000000388,-2.522946760383633968
0.563000000000000389,-2.515361526803007397
0.564000000000000390,-2.507830523019264124
0.565000000000000391,-2.500349017332987422
0.566000000000000392,-2.492912410066322249
0.567000000000000393,-2.485516231930732012
0.568000000000000393,-2.478156142377053506
0.569000000000000394,-2.470827927929401646
0.570000000000000395,-2.463527500504466339
0.571000000000000396,-2.456250895717638993
0.572000000000000397,-2.448994271177459048
0.573000000000000398,-2.441753904769710992
0.574000000000000399,-2.434526192932553457
0.575000000000000400,-2.427307648923971328
0.576000000000000401,-2.420094901082770367
0.577000000000000401,-2.412884691084387079
0.578000000000000402,-2.405673872192649387
0.579000000000000403,-2.398459407508612529
0.580000000000000404,-2.391238368217584842
0.581000000000000405,-2.384007931835406602
0.582000000000000406,-2.376765380454925580
0.583000000000000407,-2.369508098993765799
0.584000000000000408,-2.362233573444211920
0.585000000000000409,-2.354939389126178728
0.586000000000000409,-2.347623228944138329
0.587000000000000410,-2.340282871648800445
0.588000000000000411,-2.332916190104393994
0.589000000000000412,-2.325521149562272516
0.590000000000000413,-2.318095805941625454
0.591000000000000414,-2.310638304117983211
0.592000000000000415,-2.303146876220159456
0.593000000000000416,-2.295619839936338558
0.594000000000000417,-2.288055596829886351
0.595000000000000417,-2.280452630665453562
0.596000000000000418,-2.272809505745997605
0.597000000000000419,-2.265124865261177067
0.598000000000000420,-2.257397429647691744
0.599000000000000421,-2.249625994962016318
0.600000000000000422,-2.241809431265986863
0.601000000000000423,-2.233946681025688719
0.602000000000000424,-2.226036757524036958
0.603000000000000425,-2.218078743287446475
0.604000000000000425,-2.210071788526952297
0.605000000000000426,-2.202015109594130049
0.606000000000000427,-2.193907987452117681
0.607000000000000428,-2.185749766162077723
