# Fe111_CS-13420-AC
# h[nm],U(h)[kJ/mol]
0.149999999999999994,66.046450531771398573
0.150999999999999995,63.352066792496088965
0.151999999999999996,59.770348698382591124
0.152999999999999997,56.045342281410192697
0.153999999999999998,52.493051698659506599
0.154999999999999999,49.200667334659421215
0.156000000000000000,46.147136969547901231
0.157000000000000001,43.272226942003300110
0.158000000000000002,40.512866313189718426
0.159000000000000002,37.819529613732164819
0.160000000000000003,35.161114337609880920
0.161000000000000004,32.523756988232662479
0.162000000000000005,29.906959655134549791
0.163000000000000006,27.319005035283588256
0.164000000000000007,24.772724792872573119
0.165000000000000008,22.282108777614503481
0.166000000000000009,19.859894836908114968
0.167000000000000010,17.516084482367951125
0.168000000000000010,15.257234488685316620
0.169000000000000011,13.086341031611615549
0.170000000000000012,11.003135609191902589
0.171000000000000013,9.004633740588838364
0.172000000000000014,7.085807392997773846
0.173000000000000015,5.240283572046907423
0.174000000000000016,3.461000722591907053
0.175000000000000017,1.740779624397333691
0.176000000000000018,0.072785643084576718
0.177000000000000018,-1.549125442510500772
0.178000000000000019,-3.130174814034325070
0.179000000000000020,-4.674530673676789760
0.180000000000000021,-6.185266185128726946
0.181000000000000022,-7.664388517276805146
0.182000000000000023,-9.112921944419607456
0.183000000000000024,-10.531028870554159482
0.184000000000000025,-11.918154313889198548
0.185000000000000026,-13.273181475837372290
0.186000000000000026,-14.594588273232483644
0.187000000000000027,-15.880596950855402127
0.188000000000000028,-17.129310989259934672
0.189000000000000029,-18.338835402632604143
0.190000000000000030,-19.507378141237474267
0.191000000000000031,-20.633331657941134551
0.192000000000000032,-21.715334772604769853
0.193000000000000033,-22.752315788948273223
0.194000000000000034,-23.743518411060982487
0.195000000000000034,-24.688512400596955843
0.196000000000000035,-25.587191141887750234
0.197000000000000036,-26.439758371317378050
0.198000000000000037,-27.246706308088185722
0.199000000000000038,-28.008787322067160375
0.200000000000000039,-28.726981113725081229
0.201000000000000040,-29.402459180963706586
0.202000000000000041,-30.036548124308428243
0.203000000000000042,-30.630693108876407393
0.204000000000000042,-31.186422569237684854
0.205000000000000043,-31.705315019768125495
0.206000000000000044,-32.188968624161688581
0.207000000000000045,-32.638973987369716667
0.208000000000000046,-33.056890463771487987
0.209000000000000047,-33.444226127997353615
0.210000000000000048,-33.802421429681771770
0.211000000000000049,-34.132836449912780097
0.212000000000000050,-34.436741594110095832
0.213000000000000050,-34.715311491950487266
0.214000000000000051,-34.969621827973199402
0.215000000000000052,-35.200648794704548550
0.216000000000000053,-35.409270841564591592
0.217000000000000054,-35.596272385512527592
0.218000000000000055,-35.762349151479824627
0.219000000000000056,-35.908114820380362175
0.220000000000000057,-36.034108678264757941
0.221000000000000058,-36.140803980545264551
0.222000000000000058,-36.228616768872612397
0.223000000000000059,-36.297914904066928443
0.224000000000000060,-36.349027105528485038
0.225000000000000061,-36.382251814966217296
0.226000000000000062,-36.397865729410355584
0.227000000000000063,-36.396131874780095927
0.228000000000000064,-36.377307116331664361
0.229000000000000065,-36.341649025799497963
0.230000000000000066,-36.289422046732354943
0.231000000000000066,-36.220902919269647668
0.232000000000000067,-36.136385343318309538
0.233000000000000068,-36.036183874751756662
0.234000000000000069,-35.920637062879720247
0.235000000000000070,-35.790109849088430849
0.236000000000000071,-35.644995256312597576
0.237000000000000072,-35.485715406980595787
0.238000000000000073,-35.312721913397183471
0.239000000000000073,-35.126495689328720573
0.240000000000000074,-34.927546234973931405
0.241000000000000075,-34.716410449681895045
0.242000000000000076,-34.493651027858888369
0.243000000000000077,-34.259854493625702787
0.244000000000000078,-34.015628929080563125
0.245000000000000079,-33.761601449612115289
0.246000000000000080,-33.498415477716271482
0.247000000000000081,-33.226727864302127102
0.248000000000000081,-32.947205903631854085
0.249000000000000082,-32.660524284914572490
0.250000000000000111,-32.367362020248720000
0.251000000000000112,-32.068399385152119407
0.252000000000000113,-31.764314904399782336
0.253000000000000114,-31.455782412359610589
0.254000000000000115,-31.143468213525700605
0.255000000000000115,-30.828028365535999455
0.256000000000000116,-30.510106103660284305
0.257000000000000117,-30.190329422583090491
0.258000000000000118,-29.869308828304916403
0.259000000000000119,-29.547635270160991894
0.260000000000000120,-29.225878260322094349
0.261000000000000121,-28.904584185703008359
0.262000000000000122,-28.584274814967152167
0.263000000000000123,-28.265446001280320587
0.264000000000000123,-27.948566579632249329
0.265000000000000124,-27.634077455907164023
0.266000000000000125,-27.322390883439158671
0.267000000000000126,-27.013889921527084681
0.268000000000000127,-26.708928069299247454
0.269000000000000128,-26.407829067401564771
0.270000000000000129,-26.110886859223107592
0.271000000000000130,-25.818365702761269631
0.272000000000000131,-25.530500423753487382
0.273000000000000131,-25.247496800353488311
0.274000000000000132,-24.969532069396244367
0.275000000000000133,-24.696755544167725560
0.276000000000000134,-24.429289333560728181
0.277000000000000135,-24.167229152549996485
0.278000000000000136,-23.910645214044755846
0.279000000000000137,-23.659583192369090909
0.280000000000000138,-23.414065248870176816
0.281000000000000139,-23.174091110451836784
0.282000000000000139,-22.939639192171725313
0.283000000000000140,-22.710667755413631141
0.284000000000000141,-22.487116093549058604
0.285000000000000142,-22.268905737425235714
0.286000000000000143,-22.055941673456530339
0.287000000000000144,-21.848113567546786129
0.288000000000000145,-21.645296988527455539
0.289000000000000146,-21.447354625255361071
0.290000000000000147,-21.254137491972699081
0.291000000000000147,-21.065486116984867948
0.292000000000000148,-20.881231710158498771
0.293000000000000149,-20.701197305178311581
0.294000000000000150,-20.525198872925713545
0.295000000000000151,-20.353046402753427913
0.296000000000000152,-20.184544948825326571
0.297000000000000153,-20.019495639070839843
0.298000000000000154,-19.857696644664201813
0.299000000000000155,-19.698944108283605203
0.300000000000000155,-19.543033029730132455
0.301000000000000156,-19.389758107792971487
0.302000000000000157,-19.238914537534789417
0.303000000000000158,-19.090298762439747549
0.304000000000000159,-18.943709181116023643
0.305000000000000160,-18.798946808475488268
0.306000000000000161,-18.655815891526049910
0.307000000000000162,-18.514124480106723070
0.308000000000000163,-18.373684953072771719
0.309000000000000163,-18.234314500599062114
0.310000000000000164,-18.095835563414020442
0.311000000000000165,-17.958076229905252319
0.312000000000000166,-17.820870592152566303
0.313000000000000167,-17.684059062043282040
0.314000000000000168,-17.547488648711748738
0.315000000000000169,-17.411013198618746856
0.316000000000000170,-17.274493599648288011
0.317000000000000171,-17.137797950650266898
0.318000000000000171,-17.000801697897440334
0.319000000000000172,-16.863387739956102962
0.320000000000000173,-16.725446502491028156
0.321000000000000174,-16.586875984538441031
0.322000000000000175,-16.447581777786400181
0.323000000000000176,-16.307477060400149327
0.324000000000000177,-16.166482566921978048
0.325000000000000178,-16.024526535761257406
0.326000000000000179,-15.881544635771295049
0.327000000000000179,-15.737479873385353812
0.328000000000000180,-15.592282481756404522
0.329000000000000181,-15.445909793313385094
0.330000000000000182,-15.298326097111043964
0.331000000000000183,-15.149502482313341289
0.332000000000000184,-14.999416669109189471
0.333000000000000185,-14.848052828317481300
0.334000000000000186,-14.695401390893939819
0.335000000000000187,-14.541458848506840340
0.336000000000000187,-14.386227546302453817
0.337000000000000188,-14.229715468933282096
0.338000000000000189,-14.071936020874925788
0.339000000000000190,-13.912907802009019775
0.340000000000000191,-13.752654379401448637
0.341000000000000192,-13.591204056157977220
0.342000000000000193,-13.428589638190505440
0.343000000000000194,-13.264848199681386731
0.344000000000000195,-13.100020847985927475
0.345000000000000195,-12.934152488667967518
0.346000000000000196,-12.767291591318478794
0.347000000000000197,-12.599489956763443743
0.348000000000000198,-12.430802486224610703
0.349000000000000199,-12.261286952954980833
0.350000000000000200,-12.091003776830969940
0.351000000000000201,-11.920015802343641553
0.352000000000000202,-11.748388080394189359
0.353000000000000203,-11.576187654262126259
0.354000000000000203,-11.403483350079758551
0.355000000000000204,-11.230345572112977237
0.356000000000000205,-11.056846103116196645
0.357000000000000206,-10.883057909998370860
0.358000000000000207,-10.709054955007728083
0.359000000000000208,-10.534912012615018639
0.360000000000000209,-10.360704492248158815
0.361000000000000210,-10.186508267006310291
0.362000000000000210,-10.012399508457233921
0.363000000000000211,-9.838454527599498789
0.364000000000000212,-9.664749622049729538
0.365000000000000213,-9.491360929495135323
0.366000000000000214,-9.318364287432922666
0.367000000000000215,-9.145835099200571250
0.368000000000000216,-8.973848206284749551
0.369000000000000217,-8.802477766881267485
0.370000000000000218,-8.631797140664591694
0.371000000000000218,-8.461878779712204590
0.372000000000000219,-8.292794125517167103
0.373000000000000220,-8.124613512011196192
0.374000000000000221,-7.957406074510585015
0.375000000000000222,-7.791239664487929595
0.376000000000000223,-7.626180770064395986
0.377000000000000224,-7.462294442109872250
0.378000000000000225,-7.299644225831552369
0.379000000000000226,-7.138292097725515539
0.380000000000000226,-6.978298407760820332
0.381000000000000227,-6.819721826660831709
0.382000000000000228,-6.662619298142831603
0.383000000000000229,-6.507045995973537167
0.384000000000000230,-6.353055285695331733
0.385000000000000231,-6.200698690876113695
0.386000000000000232,-6.050025863733639930
0.387000000000000233,-5.901084559984250966
0.388000000000000234,-5.753920617765015066
0.389000000000000234,-5.608577940478075341
0.390000000000000235,-5.465098483405770757
0.391000000000000236,-5.323522243945903121
0.392000000000000237,-5.183887255316746767
0.393000000000000238,-5.046229583582944045
0.394000000000000239,-4.910583327854320501
0.395000000000000240,-4.776980623511478896
0.396000000000000241,-4.645451648313825288
0.397000000000000242,-4.516024631247510968
0.398000000000000242,-4.388725863973361285
0.399000000000000243,-4.263579714736936310
0.400000000000000244,-4.140608644605451083
0.401000000000000245,-4.019833225899388296
0.402000000000000246,-3.901272162688953049
0.403000000000000247,-3.784942313228649713
0.404000000000000248,-3.670858714206537421
0.405000000000000249,-3.559034606687434543
0.406000000000000250,-3.449481463632844136
0.407000000000000250,-3.342209018883447236
0.408000000000000251,-3.237225297493314891
0.409000000000000252,-3.134536647308475921
0.410000000000000253,-3.034147771685480777
0.411000000000000254,-2.936061763249388168
0.412000000000000255,-2.840280138593584969
0.413000000000000256,-2.746802873827490998
0.414000000000000257,-2.655628440881330654
0.415000000000000258,-2.566753844480702984
0.416000000000000258,-2.480174659706833484
0.417000000000000259,-2.395885070061728683
0.418000000000000260,-2.313877905960779469
0.419000000000000261,-2.234144683578365598
0.420000000000000262,-2.156675643975480838
0.421000000000000263,-2.081459792441248347
0.422000000000000264,-2.008484937983403995
0.423000000000000265,-1.937737732905767674
0.424000000000000266,-1.869203712413829876
0.425000000000000266,-1.802867334192247650
0.426000000000000267,-1.738712017901037132
0.427000000000000268,-1.676720184540030134
0.428000000000000269,-1.616873295633765029
0.429000000000000270,-1.559151892191687816
0.430000000000000271,-1.503535633401140270
0.431000000000000272,-1.450003335012999717
0.432000000000000273,-1.398533007382401383
0.433000000000000274,-1.349101893129236673
0.434000000000000274,-1.301686504385471510
0.435000000000000275,-1.256262659598487375
0.436000000000000276,-1.212805519861894110
0.437000000000000277,-1.171289624747206437
0.438000000000000278,-1.131688927611927076
0.439000000000000279,-1.093976830361441666
0.440000000000000280,-1.058126217643981182
0.441000000000000281,-1.024109490459772509
0.442000000000000282,-0.991898599167219119
0.443000000000000282,-0.961465075870560293
0.444000000000000283,-0.932780066175156741
0.445000000000000284,-0.905814360298042964
0.446000000000000285,-0.880538423522772673
0.447000000000000286,-0.856922425989242287
0.448000000000000287,-0.834936271810216013
0.449000000000000288,-0.814549627507814789
0.450000000000000289,-0.795731949764373447
0.451000000000000290,-0.778452512483210457
0.452000000000000290,-0.762680433156020965
0.453000000000000291,-0.748384698534704795
0.454000000000000292,-0.735534189606377065
0.455000000000000293,-0.724097705871299402
0.456000000000000294,-0.714043988924443096
0.457000000000000295,-0.705341745342099480
0.458000000000000296,-0.697959668876027894
0.459000000000000297,-0.691866461958067225
0.460000000000000298,-0.687030856519214694
0.461000000000000298,-0.683421634127497790
0.462000000000000299,-0.681007645449980159
0.463000000000000300,-0.679757829044493000
0.464000000000000301,-0.679641229487484622
0.465000000000000302,-0.680627014844772615
0.466000000000000303,-0.682684493492591860
0.467000000000000304,-0.685783130296550358
0.468000000000000305,-0.689892562156869893
0.469000000000000306,-0.694982612928334520
0.470000000000000306,-0.701023307723899203
0.471000000000000307,-0.707984886611247921
0.472000000000000308,-0.715837817711803659
0.473000000000000309,-0.724552809711977774
0.474000000000000310,-0.734100823796712154
0.475000000000000311,-0.744453085015642224
0.476000000000000312,-0.755581093092187683
0.477000000000000313,-0.767456632686324913
0.478000000000000314,-0.780051783121726072
0.479000000000000314,-0.793338927588172149
0.480000000000000315,-0.807290761830215864
0.481000000000000316,-0.821880302333198309
0.482000000000000317,-0.837080894017718236
0.483000000000000318,-0.852866217453781994
0.484000000000000319,-0.869210295605810979
0.485000000000000320,-0.886087500119809079
0.486000000000000321,-0.903472557163859769
0.487000000000000322,-0.921340552833230020
0.488000000000000322,-0.939666938131294871
0.489000000000000323,-0.958427533537376752
0.490000000000000324,-0.977598533172719053
0.491000000000000325,-0.997156508575584466
0.492000000000000326,-1.017078412096494189
0.493000000000000327,-1.037341579924494273
0.494000000000000328,-1.057923734755309209
0.495000000000000329,-1.078802988112065320
0.496000000000000330,-1.099957842329236213
0.497000000000000330,-1.121367192210272368
0.498000000000000331,-1.143010326369395369
0.499000000000000332,-1.164866928267661361
0.500000000000000333,-1.186917076953581285
0.501000000000000334,-1.209141247518231710
0.502000000000000335,-1.231520311274676427
0.503000000000000336,-1.254035535671450541
0.504000000000000337,-1.276668583949662095
0.505000000000000338,-1.299401514553099934
0.506000000000000338,-1.322216780300608185
0.507000000000000339,-1.345097227329822065
0.508000000000000340,-1.368026093821209654
0.509000000000000341,-1.390987008511112011
0.510000000000000342,-1.413963989002508637
0.511000000000000343,-1.436941439881817217
0.512000000000000344,-1.459904150650096266
0.513000000000000345,-1.482837293476654050
0.514000000000000346,-1.505726420783087827
0.515000000000000346,-1.528557462665432576
0.516000000000000347,-1.551316724162041583
0.517000000000000348,-1.573990882374628919
0.518000000000000349,-1.596566983449690058
0.519000000000000350,-1.619032439427369185
0.520000000000000351,-1.641375024964774720
0.521000000000000352,-1.663582873940319784
0.522000000000000353,-1.685644475945802911
0.523000000000000353,-1.707548672672585699
0.524000000000000354,-1.729284654198052440
0.525000000000000355,-1.750841955178539466
0.526000000000000356,-1.772210450954517569
0.527000000000000357,-1.793380353573875041
0.528000000000000358,-1.814342207738892654
0.529000000000000359,-1.835086886682213203
0.530000000000000360,-1.855605587977285920
0.531000000000000361,-1.875889829288227117
0.532000000000000361,-1.895931444064194338
0.533000000000000362,-1.915722577182994657
0.534000000000000363,-1.935255680548695789
0.535000000000000364,-1.954523508647676433
0.536000000000000365,-1.973519114067574964
0.537000000000000366,-1.992235842983317129
0.538000000000000367,-2.010667330614377413
0.539000000000000368,-2.028807496657180742
0.540000000000000369,-2.046650540696556053
0.541000000000000369,-2.064190937599841735
0.542000000000000370,-2.081423432897310022
0.543000000000000371,-2.098343038152280293
0.544000000000000372,-2.114945026324287269
0.545000000000000373,-2.131224927128450020
0.546000000000000374,-2.147178522394193489
0.547000000000000375,-2.162801841426179816
0.548000000000000376,-2.178091156370406178
0.549000000000000377,-2.193042977588091968
0.550000000000000377,-2.207654049040060240
0.551000000000000378,-2.221921343684088335
0.552000000000000379,-2.235842058887631545
0.553000000000000380,-2.249413611858254392
0.554000000000000381,-2.262633635093953544
0.555000000000000382,-2.275499971855484471
0.556000000000000383,-2.288010671662714213
0.557000000000000384,-2.300163985816905399
0.558000000000000385,-2.311958362950779389
0.559000000000000385,-2.323392444608094465
0.560000000000000386,-2.334465060854365781
0.561000000000000387,-2.345175225920344886
0.562000000000000388,-2.355522133879730529
0.563000000000000389,-2.365505154362494089
0.564000000000000390,-2.375123828305190532
0.565000000000000391,-2.384377863739497005
0.566000000000000392,-2.393267131620170129
0.567000000000000393,-2.401791661693517987
0.568000000000000393,-2.409951638407454411
0.569000000000000394,-2.417747396864113885
0.570000000000000395,-2.425179418815924581
0.571000000000000396,-2.432248328706005047
0.572000000000000397,-2.438954889753666588
0.573000000000000398,-2.445300000085774528
0.574000000000000399,-2.451284688914591392
0.575000000000000400,-2.456910112762808573
0.576000000000000401,-2.462177551736232761
0.577000000000000401,-2.467088405844709786
0.578000000000000402,-2.471644191371741073
0.579000000000000403,-2.475846537293183935
0.580000000000000404,-2.479697181745412315
0.581000000000000405,-2.483197968543303880
0.582000000000000406,-2.486350843748254658
0.583000000000000407,-2.489157852286546735
0.584000000000000408,-2.491621134618214217
0.585000000000000409,-2.493742923456567340
0.586000000000000409,-2.495525540538534592
0.587000000000000410,-2.496971393445881482
0.588000000000000411,-2.498082972477353003
0.589000000000000412,-2.498862847571779788
0.590000000000000413,-2.499313665282124397
0.591000000000000414,-2.499438145800424227
0.592000000000000415,-2.499239080033551996
0.593000000000000416,-2.498719326729706314
0.594000000000000417,-2.497881809655507102
0.595000000000000417,-2.496729514823501361
0.596000000000000418,-2.495265487769966484
0.597000000000000419,-2.493492830882754863
0.598000000000000420,-2.491414700778977309
0.599000000000000421,-2.489034305732274799
0.600000000000000422,-2.486354903149428086
0.601000000000000423,-2.483379797095975672
0.602000000000000424,-2.480112335870589213
0.603000000000000425,-2.476555909627861318
0.604000000000000425,-2.472713948049137578
0.605000000000000426,-2.468589918061102839
0.606000000000000427,-2.464187321601683411
0.607000000000000428,-2.459509693432941457
0.608000000000000429,-2.454560599000510823
0.609000000000000430,-2.449343632339213261
