# Fe111_CS-13835336-AC
# h[nm],U(h)[kJ/mol]
0.149999999999999994,89.460472157024852891
0.150999999999999995,87.612235902122520770
0.151999999999999996,84.184443711767997343
0.152999999999999997,80.444906967366833328
0.153999999999999998,76.913274394888645702
0.154999999999999999,73.724032289624460645
0.156000000000000000,70.837972172725855557
0.157000000000000001,68.158323931012077423
0.158000000000000002,65.588780520616822400
0.159000000000000002,63.057609130180232171
0.160000000000000003,60.523202397896021409
0.161000000000000004,57.970512186336520699
0.162000000000000005,55.403926761543587531
0.163000000000000006,52.839660232772715176
0.164000000000000007,50.299169897289971232
0.165000000000000008,47.804187731973449615
0.166000000000000009,45.373428919206105547
0.167000000000000010,43.020774264462261272
0.168000000000000010,40.754614572675215811
0.169000000000000011,38.578027369496723509
0.170000000000000012,36.489487097845497487
0.171000000000000013,34.483862387158481511
0.172000000000000014,32.553512201583330921
0.173000000000000015,30.689347693420678809
0.174000000000000016,28.881774005635840297
0.175000000000000017,27.121464460225240600
0.176000000000000018,25.399948552729348705
0.177000000000000018,23.710015842771436922
0.178000000000000019,22.045951480311273940
0.179000000000000020,20.403627135249770674
0.180000000000000021,18.780474836056260557
0.181000000000000022,17.175371849213600939
0.182000000000000023,15.588463233463198065
0.183000000000000024,14.020945874434763923
0.184000000000000025,12.474834258307023305
0.185000000000000026,10.952724430677006850
0.186000000000000026,9.457568828428112084
0.187000000000000027,7.992471179849142793
0.188000000000000028,6.560507569056956534
0.189000000000000029,5.164577118767573083
0.190000000000000030,3.807283578227635523
0.191000000000000031,2.490847396150600357
0.192000000000000032,1.217046576404407610
0.193000000000000033,-0.012816290678247810
0.194000000000000034,-1.197924009607207241
0.195000000000000034,-2.337935273901155853
0.196000000000000035,-3.432959268879004266
0.197000000000000036,-4.483517906478118320
0.198000000000000037,-5.490499018572102763
0.199000000000000038,-6.455103551284688379
0.200000000000000039,-7.378789463384549663
0.201000000000000040,-8.263214662920853826
0.202000000000000041,-9.110180938476085899
0.203000000000000042,-9.921580470695527509
0.204000000000000042,-10.699346157896794551
0.205000000000000043,-11.445406664826542453
0.206000000000000044,-12.161646811341466190
0.207000000000000045,-12.849873660863874392
0.208000000000000046,-13.511788447922347345
0.209000000000000047,-14.148964299481288975
0.210000000000000048,-14.762829554549909972
0.211000000000000049,-15.354656368420725343
0.212000000000000050,-15.925554198997227573
0.213000000000000050,-16.476467709901253755
0.214000000000000051,-17.008178585160699470
0.215000000000000052,-17.521310730023689217
0.216000000000000053,-18.016338328693315418
0.217000000000000054,-18.493596239572820394
0.218000000000000055,-18.953292229224050658
0.219000000000000056,-19.395520575198965219
0.220000000000000057,-19.820276603005272165
0.221000000000000058,-20.227471761778453185
0.222000000000000058,-20.616948885101781030
0.223000000000000059,-20.988497326430760381
0.224000000000000060,-21.341867701580515160
0.225000000000000061,-21.676786012776037893
0.226000000000000062,-21.992966969100244512
0.227000000000000063,-22.290126356234956972
0.228000000000000064,-22.567992343759186724
0.229000000000000065,-22.826315650669833701
0.230000000000000066,-23.064878519052644634
0.231000000000000066,-23.283502471889022445
0.232000000000000067,-23.482054853842637243
0.233000000000000068,-23.660454173602715855
0.234000000000000069,-23.818674283088434152
0.235000000000000070,-23.956747442702219786
0.236000000000000071,-24.074766333044028244
0.237000000000000072,-24.172885082272557611
0.238000000000000073,-24.251319384836577342
0.239000000000000073,-24.310345791823131378
0.240000000000000074,-24.350300255901505153
0.241000000000000075,-24.371576014996907844
0.242000000000000076,-24.374620898616072395
0.243000000000000077,-24.359934139367446448
0.244000000000000078,-24.328062769856789060
0.245000000000000079,-24.279597681968276390
0.246000000000000080,-24.215169421722187337
0.247000000000000081,-24.135443788575777546
0.248000000000000081,-24.041117303336179134
0.249000000000000082,-23.932912603898316206
0.250000000000000111,-23.811573822910649056
0.251000000000000112,-23.677861996294701896
0.252000000000000113,-23.532550546380896606
0.253000000000000114,-23.376420878335046893
0.254000000000000115,-23.210258123595899349
0.255000000000000115,-23.034847059265956659
0.256000000000000116,-22.850968227834066226
0.257000000000000117,-22.659394277286232011
0.258000000000000118,-22.460886537600952551
0.259000000000000119,-22.256191845843709132
0.260000000000000120,-22.046039628579112701
0.261000000000000121,-21.831139247113885204
0.262000000000000122,-21.612177608169020004
0.263000000000000123,-21.389817039952152555
0.264000000000000123,-21.164693431253688516
0.265000000000000124,-20.937414629115146170
0.266000000000000125,-20.708559088803923487
0.267000000000000126,-20.478674768262344230
0.268000000000000127,-20.248278257868296492
0.269000000000000128,-20.017854135234113500
0.270000000000000129,-19.787854533866148898
0.271000000000000130,-19.558698913793001850
0.272000000000000131,-19.330774021732207046
0.273000000000000131,-19.104434027986442857
0.274000000000000132,-18.880000827027703991
0.275000000000000133,-18.657764488625893762
0.276000000000000134,-18.437983846393542819
0.277000000000000135,-18.220887210737863882
0.278000000000000136,-18.006673193421217860
0.279000000000000137,-17.795511631221035742
0.280000000000000138,-17.587544596537661334
0.281000000000000139,-17.382887483213558255
0.282000000000000139,-17.181630156290374600
0.283000000000000140,-16.983838154931710562
0.284000000000000141,-16.789553938271616573
0.285000000000000142,-16.598798164504081853
0.286000000000000143,-16.411570994099822229
0.287000000000000144,-16.227853408617768594
0.288000000000000145,-16.047608537164915532
0.289000000000000146,-15.870782983142628808
0.290000000000000147,-15.697308144498748561
0.291000000000000147,-15.527101521276279072
0.292000000000000148,-15.360068004809750875
0.293000000000000149,-15.196101143465932992
0.294000000000000150,-15.035084380353726630
0.295000000000000151,-14.876892258938045899
0.296000000000000152,-14.721391592980950236
0.297000000000000153,-14.568442597700931529
0.298000000000000154,-14.417899979485119033
0.299000000000000155,-14.269613981910520550
0.300000000000000155,-14.123431386227071727
0.301000000000000156,-13.979196464828486768
0.302000000000000157,-13.836751886585423321
0.303000000000000158,-13.695939573240579534
0.304000000000000159,-13.556601506366542154
0.305000000000000160,-13.418580484664968111
0.306000000000000161,-13.281720831641370850
0.307000000000000162,-13.145869053922989877
0.308000000000000163,-13.010874450699137839
0.309000000000000163,-12.876589674955315701
0.310000000000000164,-12.742871247344016439
0.311000000000000165,-12.609580023688192085
0.312000000000000166,-12.476581617248871936
0.313000000000000167,-12.343746777006341375
0.314000000000000168,-12.210951723306681771
0.315000000000000169,-12.078078442312383700
0.316000000000000170,-11.945014940768944101
0.317000000000000171,-11.811655462658713134
0.318000000000000171,-11.677900669360704811
0.319000000000000172,-11.543657784970982050
0.320000000000000173,-11.408840708463282354
0.321000000000000174,-11.273370094385153806
0.322000000000000175,-11.137173403791239323
0.323000000000000176,-11.000184927113844324
0.324000000000000177,-10.862345780661510020
0.325000000000000178,-10.723603878420622237
0.326000000000000179,-10.583913880813295094
0.327000000000000179,-10.443237122037089648
0.328000000000000180,-10.301541517580293572
0.329000000000000181,-10.158801453470275078
0.330000000000000182,-10.014997658771889633
0.331000000000000183,-9.870117062810383146
0.332000000000000184,-9.724152638546943450
0.333000000000000185,-9.577103233487076039
0.334000000000000186,-9.428973389452117715
0.335000000000000187,-9.279773152492577282
0.336000000000000187,-9.129517874169792435
0.337000000000000188,-8.978228005378813492
0.338000000000000189,-8.825928883831952731
0.339000000000000190,-8.672650516268316068
0.340000000000000191,-8.518427356400561479
0.341000000000000192,-8.363298079557164755
0.342000000000000193,-8.207305354924178786
0.343000000000000194,-8.050495616239151886
0.344000000000000195,-7.892918831737199881
0.345000000000000195,-7.734628274099046408
0.346000000000000196,-7.575680291100948871
0.347000000000000197,-7.416134077617833498
0.348000000000000198,-7.256051449584104418
0.349000000000000199,-7.095496620470266080
0.350000000000000200,-6.934535980789594767
0.351000000000000201,-6.773237881105690583
0.352000000000000202,-6.611672418970654164
0.353000000000000203,-6.449911230183732691
0.354000000000000203,-6.288027284721822596
0.355000000000000204,-6.126094687656808091
0.356000000000000205,-5.964188485339521506
0.357000000000000206,-5.802384477096658166
0.358000000000000207,-5.640759032655088490
0.359000000000000208,-5.479388915477879429
0.360000000000000209,-5.318351112167464478
0.361000000000000210,-5.157722668064314675
0.362000000000000210,-4.997580529143808903
0.363000000000000211,-4.838001390289853987
0.364000000000000212,-4.679061550001110348
0.365000000000000213,-4.520836771564318290
0.366000000000000214,-4.363402150709454475
0.367000000000000215,-4.206831989742724431
0.368000000000000216,-4.051199678136296001
0.369000000000000217,-3.896577579537517266
0.370000000000000218,-3.743036925145701410
0.371000000000000218,-3.590647713390796358
0.372000000000000219,-3.439478615835878550
0.373000000000000220,-3.289596889213847852
0.374000000000000221,-3.141068293498478603
0.375000000000000222,-2.993957015900344132
0.376000000000000223,-2.848325600669841418
0.377000000000000224,-2.704234884581858900
0.378000000000000225,-2.561743937970000218
0.379000000000000226,-2.420910011172248577
0.380000000000000226,-2.281788486244937353
0.381000000000000227,-2.144432833797331295
0.382000000000000228,-2.008894574795538901
0.383000000000000229,-1.875223247181319053
0.384000000000000230,-1.743466377148739310
0.385000000000000231,-1.613669454920050539
0.386000000000000232,-1.485875914860438796
0.387000000000000233,-1.360127119770599524
0.388000000000000234,-1.236462349195664112
0.389000000000000234,-1.114918791589066815
0.390000000000000235,-0.995531540170159879
0.391000000000000236,-0.878333592315571843
0.392000000000000237,-0.763355852324954509
0.393000000000000238,-0.650627137403697597
0.394000000000000239,-0.540174186706578796
0.395000000000000240,-0.432021673288517261
0.396000000000000241,-0.326192218810799683
0.397000000000000242,-0.222706410853576259
0.398000000000000242,-0.121582822688178993
0.399000000000000243,-0.022838035365591657
0.400000000000000244,0.073513338019766200
0.401000000000000245,0.167458626028174573
0.402000000000000246,0.258987070669218722
0.403000000000000247,0.348089797423775327
0.404000000000000248,0.434759783620763229
0.405000000000000249,0.518991825292773212
0.406000000000000250,0.600782502630941240
0.407000000000000250,0.680130144155889238
0.408000000000000251,0.757034789717927037
0.409000000000000252,0.831498152435884430
0.410000000000000253,0.903523579680550193
0.411000000000000254,0.973116013204630370
0.412000000000000255,1.040281948517800314
0.413000000000000256,1.105029393601499432
0.414000000000000257,1.167367827054665019
0.415000000000000258,1.227308155757802721
0.416000000000000258,1.284862672139358120
0.417000000000000259,1.340045011124737950
0.418000000000000260,1.392870106844797506
0.419000000000000261,1.443354149177321410
0.420000000000000262,1.491514540191388960
0.421000000000000263,1.537369850561421281
0.422000000000000264,1.580939776014304243
0.423000000000000265,1.622245093869867150
0.424000000000000266,1.661307619731704932
0.425000000000000266,1.698150164382498328
0.426000000000000267,1.732796490934833233
0.427000000000000268,1.765271272285631188
0.428000000000000269,1.795600048919517633
0.429000000000000270,1.823809187103678564
0.430000000000000271,1.849925837513982430
0.431000000000000272,1.873977894329720062
0.432000000000000273,1.895993954831600714
0.433000000000000274,1.916003279535327453
0.434000000000000274,1.934035752890617577
0.435000000000000275,1.950121844573345697
0.436000000000000276,1.964292571396161424
0.437000000000000277,1.976579459860892785
0.438000000000000278,1.987014509373951743
0.439000000000000279,1.995630156143970213
0.440000000000000280,2.002459237779012913
0.441000000000000281,2.007534958598919950
0.442000000000000282,2.010890855676444211
0.443000000000000282,2.012560765619378245
0.444000000000000283,2.012578792104017467
0.445000000000000284,2.010979274168956721
0.446000000000000285,2.007796755276681999
0.447000000000000286,2.003065953148907674
0.448000000000000287,1.996821730380477833
0.449000000000000288,1.989099065835187474
0.450000000000000289,1.979933026825733577
0.451000000000000290,1.969358742078898050
0.452000000000000290,1.957411375485913707
0.453000000000000291,1.944126100636915933
0.454000000000000292,1.929538076137462088
0.455000000000000293,1.913682421704135717
0.456000000000000294,1.896594195035365304
0.457000000000000295,1.878308369452862836
0.458000000000000296,1.858859812308117032
0.459000000000000297,1.838283264147927643
0.460000000000000298,1.816613318631985496
0.461000000000000298,1.793884403195206811
0.462000000000000299,1.770130760446569251
0.463000000000000300,1.745386430296000269
0.464000000000000301,1.719685232800104657
0.465000000000000302,1.693060751717252455
0.466000000000000303,1.665546318761853328
0.467000000000000304,1.637174998547644034
0.468000000000000305,1.607979574208997064
0.469000000000000306,1.577992533689298593
0.470000000000000306,1.547246056685010585
0.471000000000000307,1.515772002233675808
0.472000000000000308,1.483601896934068964
0.473000000000000309,1.450766923786364737
0.474000000000000310,1.417297911640090557
0.475000000000000311,1.383225325237309900
0.476000000000000312,1.348579255838697755
0.477000000000000313,1.313389412419596392
0.478000000000000314,1.277685113423477459
0.479000000000000314,1.241495279059889434
0.480000000000000315,1.204848424134078222
0.481000000000000316,1.167772651395341699
0.482000000000000317,1.130295645391251602
0.483000000000000318,1.092444666814824661
0.484000000000000319,1.054246547331777695
0.485000000000000320,1.015727684875024295
0.486000000000000321,0.976914039393630196
0.487000000000000322,0.937831129043524059
0.488000000000000322,0.898504026807266043
0.489000000000000323,0.858957357530431898
0.490000000000000324,0.819215295362030971
0.491000000000000325,0.779301561586703828
0.492000000000000326,0.739239422836435844
0.493000000000000327,0.699051689669732301
0.494000000000000328,0.658760715506235939
0.495000000000000329,0.618388395905041022
0.496000000000000330,0.577956168174980744
0.497000000000000330,0.537485011305442795
0.498000000000000331,0.496995446206273006
0.499000000000000332,0.456507536245758572
0.500000000000000333,0.416040888075507875
0.501000000000000334,0.375614652731500409
0.502000000000000335,0.335247527000665013
0.503000000000000336,0.294957755042511205
0.504000000000000337,0.254763130255521775
0.505000000000000338,0.214680997378272925
0.506000000000000338,0.174728254815362416
0.507000000000000339,0.134921357178448303
0.508000000000000340,0.095276318032905608
0.509000000000000341,0.055808712840854334
0.510000000000000342,0.016533682091342483
0.511000000000000343,-0.022534065391108058
0.512000000000000344,-0.061380248968381998
0.513000000000000345,-0.099991012549502850
0.514000000000000346,-0.138352920798628681
0.515000000000000346,-0.176452955198321992
0.516000000000000347,-0.214278509976059406
0.517000000000000348,-0.251817387901695888
0.518000000000000349,-0.289057795963400144
0.519000000000000350,-0.325988340929340148
0.520000000000000351,-0.362598024802372021
0.521000000000000352,-0.398876240174518115
0.522000000000000353,-0.434812765488092723
0.523000000000000353,-0.470397760210042093
0.524000000000000354,-0.505621759925773628
0.525000000000000355,-0.540475671358810694
0.526000000000000356,-0.574950767322157552
0.527000000000000357,-0.609038681607262933
0.528000000000000358,-0.642731403816305891
0.529000000000000359,-0.676021274143077666
0.530000000000000360,-0.708900978108026103
0.531000000000000361,-0.741363541252391789
0.532000000000000361,-0.773402323796537172
0.533000000000000362,-0.805011015267176666
0.534000000000000363,-0.836183629098242287
0.535000000000000364,-0.866914497209797630
0.536000000000000365,-0.897198264569368020
0.537000000000000366,-0.927029883739843741
0.538000000000000367,-0.956404609417996099
0.539000000000000368,-0.985317992967461587
0.540000000000000369,-1.013765876949963118
0.541000000000000369,-1.041744389658300518
0.542000000000000370,-1.069249939654631110
0.543000000000000371,-1.096279210317296471
0.544000000000000372,-1.122829154399420437
0.545000000000000373,-1.148896988602286839
0.546000000000000374,-1.174480188166487027
0.547000000000000375,-1.199576481483555002
0.548000000000000376,-1.224183844730853732
0.549000000000000377,-1.248300496532197545
0.550000000000000377,-1.271924892646717042
0.551000000000000378,-1.295055720688259360
0.552000000000000379,-1.317691894877559777
0.553000000000000380,-1.339832550829300528
0.554000000000000381,-1.361477040376065428
0.555000000000000382,-1.382624926431100132
0.556000000000000383,-1.403275977891676352
0.557000000000000384,-1.423430164584790436
0.558000000000000385,-1.443087652256801245
0.559000000000000385,-1.462248797608555417
0.560000000000000386,-1.480914143377390912
0.561000000000000387,-1.499084413467441923
0.562000000000000388,-1.516760508129458396
0.563000000000000389,-1.533943499191357862
0.564000000000000390,-1.550634625340591377
0.565000000000000391,-1.566835287459401593
0.566000000000000392,-1.582547044013892901
0.567000000000000393,-1.597771606497812025
0.568000000000000393,-1.612510834931855985
0.569000000000000394,-1.626766733419284350
0.570000000000000395,-1.640541445758480821
0.571000000000000396,-1.653837251113103646
0.572000000000000397,-1.666656559740409715
0.573000000000000398,-1.679001908778225971
0.574000000000000399,-1.690875958091013542
0.575000000000000400,-1.702281486175462932
0.576000000000000401,-1.713221386125887147
0.577000000000000401,-1.723698661659769815
0.578000000000000402,-1.733716423203665702
0.579000000000000403,-1.743277884039666770
0.580000000000000404,-1.752386356512563026
0.581000000000000405,-1.761045248297824717
0.582000000000000406,-1.769258058730442729
0.583000000000000407,-1.777028375194661169
0.584000000000000408,-1.784359869574597912
0.585000000000000409,-1.791256294765652068
0.586000000000000409,-1.797721481246664865
0.587000000000000410,-1.803759333712673385
0.588000000000000411,-1.809373827768097742
0.589000000000000412,-1.814569006680202934
0.590000000000000413,-1.819348978192570909
0.591000000000000414,-1.823717911398385683
0.592000000000000415,-1.827680033673212190
0.593000000000000416,-1.831239627666991776
0.594000000000000417,-1.834401028354941232
0.595000000000000417,-1.837168620146953701
0.596000000000000418,-1.839546834055200808
0.597000000000000419,-1.841540144919490585
0.598000000000000420,-1.843153068689983076
0.599000000000000421,-1.844390159766844617
0.600000000000000422,-1.845256008396373826
0.601000000000000423,-1.845755238123134578
0.602000000000000424,-1.845892503297617893
0.603000000000000425,-1.845672486638960219
0.604000000000000425,-1.845099896852127497
0.605000000000000426,-1.844179466299138870
0.606000000000000427,-1.842915948723722774
0.607000000000000428,-1.841314117028880037
0.608000000000000429,-1.839378761106793103
0.609000000000000430,-1.837114685720508955
0.610000000000000431,-1.834526708436822418
0.611000000000000432,-1.831619657609752760
0.612000000000000433,-1.828398370414042962
