# Fe111_CS-65711-AC
# h[nm],U(h)[kJ/mol]
0.200000000000000011,83.447502829732826513
0.201000000000000012,76.799720761971826732
0.202000000000000013,73.105276152511308396
0.203000000000000014,70.781365833332557713
0.204000000000000015,68.927998411631634212
0.205000000000000016,67.081364200222097338
0.206000000000000016,65.044884355553193700
0.207000000000000017,62.775929979208285658
0.208000000000000018,60.311948203711189365
0.209000000000000019,57.724069980710623895
0.210000000000000020,55.089532392172671393
0.211000000000000021,52.476681729105450813
0.212000000000000022,49.938129404166758718
0.213000000000000023,47.508962958893157236
0.214000000000000024,45.207885859234004045
0.215000000000000024,43.039862033224444815
0.216000000000000025,40.999342632225392435
0.217000000000000026,39.073505373958752784
0.218000000000000027,37.245180512297835662
0.219000000000000028,35.495301726480043669
0.220000000000000029,33.804827335819780387
0.221000000000000030,32.156143839565942244
0.222000000000000031,30.534002138623048239
0.223000000000000032,28.926055918027408609
0.224000000000000032,27.323078083951997996
0.225000000000000033,25.718929530092488278
0.226000000000000034,24.110348148868251172
0.227000000000000035,22.496617176985413522
0.228000000000000036,20.879162200882568357
0.229000000000000037,19.261116434335882275
0.230000000000000038,17.646884822176634344
0.231000000000000039,16.041729455103567403
0.232000000000000040,14.451391850640002090
0.233000000000000040,12.881761891417403021
0.234000000000000041,11.338598563381204087
0.235000000000000042,9.827304006535133141
0.236000000000000043,8.352749659173074548
0.237000000000000044,6.919151314462706814
0.238000000000000045,5.529988588533262472
0.239000000000000046,4.187963502437296093
0.240000000000000047,2.894992498347837895
0.241000000000000048,1.652226147982797100
0.242000000000000048,0.460090986804959079
0.243000000000000049,-0.681651747631908500
0.244000000000000050,-1.773835237230118267
0.245000000000000051,-2.817808304017222820
0.246000000000000052,-3.815352412983846087
0.247000000000000053,-4.768597580119077861
0.248000000000000054,-5.679939765269557128
0.249000000000000055,-6.551961817241974018
0.250000000000000056,-7.387359567334172539
0.251000000000000056,-8.188874243129887986
0.252000000000000057,-8.959231999809592395
0.253000000000000058,-9.701091041957601746
0.254000000000000059,-10.416996533691843752
0.255000000000000060,-11.109343266452537335
0.256000000000000061,-11.780345868657523312
0.257000000000000062,-12.432016195822154003
0.258000000000000063,-13.066147429529070934
0.259000000000000064,-13.684304334606665066
0.260000000000000064,-14.287819071885243360
0.261000000000000065,-14.877791934961317466
0.262000000000000066,-15.455096369775722209
0.263000000000000067,-16.020387642044532583
0.264000000000000068,-16.574114536545142329
0.265000000000000069,-17.116533501150428265
0.266000000000000070,-17.647724684848867582
0.267000000000000071,-18.167609360640994964
0.268000000000000071,-18.675968269312910763
0.269000000000000072,-19.172460467098517256
0.270000000000000073,-19.656642307851864615
0.271000000000000074,-20.127986237497772493
0.272000000000000075,-20.585899124363741919
0.273000000000000076,-21.029739892854003358
0.274000000000000077,-21.458836269312406841
0.275000000000000078,-21.872500487474404451
0.276000000000000079,-22.270043836397114490
0.277000000000000079,-22.650789966045557833
0.278000000000000080,-23.014086894752228574
0.279000000000000081,-23.359317688580045314
0.280000000000000082,-23.685909805277823637
0.281000000000000083,-23.993343115143922262
0.282000000000000084,-24.281156627859804331
0.283000000000000085,-24.548953968395665015
0.284000000000000086,-24.796407656620271354
0.285000000000000087,-25.023262254464732735
0.286000000000000087,-25.229336451605849589
0.287000000000000088,-25.414524165852405702
0.288000000000000089,-25.578794737940690140
0.289000000000000090,-25.722192302471871272
0.290000000000000091,-25.844834417437642315
0.291000000000000092,-25.946910034364528030
0.292000000000000093,-26.028676889722397902
0.293000000000000094,-26.090458396048489931
0.294000000000000095,-26.132640108372363841
0.295000000000000095,-26.155665838123333344
0.296000000000000096,-26.160033482873721766
0.297000000000000097,-26.146290636127339724
0.298000000000000098,-26.115030036993594820
0.299000000000000099,-26.066884915079452156
0.300000000000000100,-26.002524281353277757
0.301000000000000101,-25.922648211151731346
0.302000000000000102,-25.827983160964425480
0.303000000000000103,-25.719277356188275263
0.304000000000000103,-25.597296282730361838
0.305000000000000104,-25.462818311185781539
0.306000000000000105,-25.316630478350656830
0.307000000000000106,-25.159524447067031616
0.308000000000000107,-24.992292661851557511
0.309000000000000108,-24.815724714442303878
0.310000000000000109,-24.630603930312446437
0.311000000000000110,-24.437704184350316439
0.312000000000000111,-24.237786951289205462
0.313000000000000111,-24.031598594086759135
0.314000000000000112,-23.819867891295938733
0.315000000000000113,-23.603303802531296895
0.316000000000000114,-23.382593469408266884
0.317000000000000115,-23.158400447808535461
0.318000000000000116,-22.931363165992934228
0.319000000000000117,-22.702093601933320599
0.320000000000000118,-22.471176172255361791
0.321000000000000119,-22.239166824364684061
0.322000000000000119,-22.006592322657162697
0.323000000000000120,-21.773949719179864104
0.324000000000000121,-21.541705998700628300
0.325000000000000122,-21.310297887850882859
0.326000000000000123,-21.080131817817743922
0.327000000000000124,-20.851584029966563349
0.328000000000000125,-20.625000813766472874
0.329000000000000126,-20.400698866456611569
0.330000000000000127,-20.178965764023260476
0.331000000000000127,-19.960060533250221226
0.332000000000000128,-19.744214314845102365
0.333000000000000129,-19.531631107930362390
0.334000000000000130,-19.322488586509248165
0.335000000000000131,-19.116938978869438159
0.336000000000000132,-18.915110001263844453
0.337000000000000133,-18.717105837604879781
0.338000000000000134,-18.523008157319132749
0.339000000000000135,-18.332877163931595277
0.340000000000000135,-18.146752667375547929
0.341000000000000136,-17.964655173455589932
0.342000000000000137,-17.786586984321335336
0.343000000000000138,-17.612533304236738019
0.344000000000000139,-17.442463345351765014
0.345000000000000140,-17.276331428597465845
0.346000000000000141,-17.114078075229897991
0.347000000000000142,-16.955631084942041298
0.348000000000000143,-16.800906596844271235
0.349000000000000143,-16.649810129981233331
0.350000000000000144,-16.502237600406793661
0.351000000000000145,-16.358076312176685008
0.352000000000000146,-16.217205919941388714
0.353000000000000147,-16.079499361128583246
0.354000000000000148,-15.944823755995008341
0.355000000000000149,-15.813041274102213052
0.356000000000000150,-15.684009966028591876
0.357000000000000151,-15.557584559372397592
0.358000000000000151,-15.433617218326441289
0.359000000000000152,-15.311958266315679467
0.360000000000000153,-15.192456871384276695
0.361000000000000154,-15.074961694199036089
0.362000000000000155,-14.959321498701768860
0.363000000000000156,-14.845385725595559023
0.364000000000000157,-14.733005028987738783
0.365000000000000158,-14.622031776638698020
0.366000000000000159,-14.512320514378249214
0.367000000000000159,-14.403728395352874969
0.368000000000000160,-14.296115574857669372
0.369000000000000161,-14.189345571585860739
0.370000000000000162,-14.083285596198603429
0.371000000000000163,-13.977806848177920074
0.372000000000000164,-13.872784781976079671
0.373000000000000165,-13.768099343518423794
0.374000000000000166,-13.663635178150684624
0.375000000000000167,-13.559281811149954677
0.376000000000000167,-13.454933801939375826
0.377000000000000168,-13.350490873160907768
0.378000000000000169,-13.245858015769746530
0.379000000000000170,-13.140945571317320884
0.380000000000000171,-13.035669292588394796
0.381000000000000172,-12.929950383752341736
0.382000000000000173,-12.823715521178447929
0.383000000000000174,-12.716896856052157361
0.384000000000000175,-12.609431999912073863
0.385000000000000175,-12.501263994208201780
0.386000000000000176,-12.392341264959611635
0.387000000000000177,-12.282617563565214169
0.388000000000000178,-12.172051894795052007
0.389000000000000179,-12.060608432961114289
0.390000000000000180,-11.948256427237273769
0.391000000000000181,-11.834970097067053274
0.392000000000000182,-11.720728518566115639
0.393000000000000183,-11.605515502793736005
0.394000000000000183,-11.489319466734437825
0.395000000000000184,-11.372133297797278217
0.396000000000000185,-11.253954212606393170
0.397000000000000186,-11.134783610822587718
0.398000000000000187,-11.014626924701646615
0.399000000000000188,-10.893493465061379055
0.400000000000000189,-10.771396264295860945
0.401000000000000190,-10.648351917042090165
0.402000000000000191,-10.524380419071897919
0.403000000000000191,-10.399505004949263665
0.404000000000000192,-10.273751984962174788
0.405000000000000193,-10.147150581806902991
0.406000000000000194,-10.019732767472564916
0.407000000000000195,-9.891533100744563711
0.408000000000000196,-9.762588565716567857
0.409000000000000197,-9.632938411673308110
0.410000000000000198,-9.502623994679547437
0.411000000000000199,-9.371688621184366852
0.412000000000000199,-9.240177393925089078
0.413000000000000200,-9.108137060391026552
0.414000000000000201,-8.975615864083895445
0.415000000000000202,-8.842663398789415652
0.416000000000000203,-8.709330466053682329
0.417000000000000204,-8.575668936036766610
0.418000000000000205,-8.441731611897257181
0.419000000000000206,-8.307572097842408354
0.420000000000000207,-8.173244670960862379
0.421000000000000207,-8.038804156938594403
0.422000000000000208,-7.904305809742072420
0.423000000000000209,-7.769805195338312487
0.424000000000000210,-7.635358079506758600
0.425000000000000211,-7.501020319784650781
0.426000000000000212,-7.366847761575091802
0.427000000000000213,-7.232896138434876221
0.428000000000000214,-7.099220976548397566
0.429000000000000214,-6.965877503383232749
0.430000000000000215,-6.832920560513549901
0.431000000000000216,-6.700404520588636004
0.432000000000000217,-6.568383208415019325
0.433000000000000218,-6.436909826113554445
0.434000000000000219,-6.306036882305328994
0.435000000000000220,-6.175816125273958512
0.436000000000000221,-6.046298480045747326
0.437000000000000222,-5.917533989323866983
0.438000000000000222,-5.789571758207769925
0.439000000000000223,-5.662459902624668473
0.440000000000000224,-5.536245501395820945
0.441000000000000225,-5.410974551856964965
0.442000000000000226,-5.286691928949279529
0.443000000000000227,-5.163441347694115890
0.444000000000000228,-5.041265328962937886
0.445000000000000229,-4.920205168451564859
0.446000000000000230,-4.800300908766360841
0.447000000000000230,-4.681591314528640524
0.448000000000000231,-4.564113850402558015
0.449000000000000232,-4.447904661950959238
0.450000000000000233,-4.332998559223324442
0.451000000000000234,-4.219429002979525833
0.452000000000000235,-4.107228093453270112
0.453000000000000236,-3.996426561559153434
0.454000000000000237,-3.887053762447917116
0.455000000000000238,-3.779137671314681146
0.456000000000000238,-3.672704881366175123
0.457000000000000239,-3.567780603853376142
0.458000000000000240,-3.464388670077618748
0.459000000000000241,-3.362551535278714532
0.460000000000000242,-3.262290284315724875
0.461000000000000243,-3.163624639051647591
0.462000000000000244,-3.066572967355543522
0.463000000000000245,-2.971152293636509345
0.464000000000000246,-2.877378310826206320
0.465000000000000246,-2.785265393728038497
0.466000000000000247,-2.694826613652928859
0.467000000000000248,-2.606073754263566578
0.468000000000000249,-2.519017328550986701
0.469000000000000250,-2.433666596869022314
0.470000000000000251,-2.350029585954467315
0.471000000000000252,-2.268113108862438221
0.472000000000000253,-2.187922785748864563
0.473000000000000254,-2.109463065433620610
0.474000000000000254,-2.032737247680179937
0.475000000000000255,-1.957747506129584369
0.476000000000000256,-1.884494911828500374
0.477000000000000257,-1.812979457293407703
0.478000000000000258,-1.743200081054643080
0.479000000000000259,-1.675154692626332986
0.480000000000000260,-1.608840197850170073
0.481000000000000261,-1.544252524562764295
0.482000000000000262,-1.481386648538656647
0.483000000000000262,-1.420236619662586630
0.484000000000000263,-1.360795588286817459
0.485000000000000264,-1.303055831731018799
0.486000000000000265,-1.247008780884190760
0.487000000000000266,-1.192645046869809988
0.488000000000000267,-1.139954447737152154
0.489000000000000268,-1.088926035143699123
0.490000000000000269,-1.039548120994864711
0.491000000000000270,-0.991808304009379249
0.492000000000000270,-0.945693496179898174
0.493000000000000271,-0.901189949100353216
0.494000000000000272,-0.858283280132791426
0.495000000000000273,-0.816958498388209442
0.496000000000000274,-0.777200030497283034
0.497000000000000275,-0.738991746148170314
0.498000000000000276,-0.702316983370287473
0.499000000000000277,-0.667158573543942146
0.500000000000000222,-0.633498866117305659
0.501000000000000334,-0.601319753013246250
0.502000000000000224,-0.570602692710060477
0.503000000000000336,-0.541328733980876775
0.504000000000000226,-0.513478539278253487
0.505000000000000338,-0.487032407750934648
0.506000000000000227,-0.461970297881492464
0.507000000000000339,-0.438271849733883223
0.508000000000000229,-0.415916406801631833
0.509000000000000341,-0.394883037447772367
0.510000000000000231,-0.375150555928987273
0.511000000000000343,-0.356697542996902039
0.512000000000000233,-0.339502366070681960
0.513000000000000345,-0.323543198975634994
0.514000000000000234,-0.308798041243518395
0.515000000000000346,-0.295244736970677712
0.516000000000000236,-0.282860993231241808
0.517000000000000348,-0.271624398042976722
0.518000000000000238,-0.261512437884150850
0.519000000000000350,-0.252502514760427454
0.520000000000000240,-0.244571962821297229
0.521000000000000352,-0.237698064526188635
0.522000000000000242,-0.231858066360847687
0.523000000000000353,-0.227029194105213522
0.524000000000000243,-0.223188667654294959
0.525000000000000355,-0.220313715394185122
0.526000000000000245,-0.218381588135671267
0.527000000000000357,-0.217369572608310690
0.528000000000000247,-0.217255004518276784
0.529000000000000359,-0.218015281173485759
0.530000000000000249,-0.219627873680068142
0.531000000000000361,-0.222070338714315252
0.532000000000000250,-0.225320329874723335
0.533000000000000362,-0.229355608618882822
0.534000000000000252,-0.234154054790233712
0.535000000000000364,-0.239693676740119710
0.536000000000000254,-0.245952621050393561
0.537000000000000366,-0.252909181862484123
0.538000000000000256,-0.260541809818646442
0.539000000000000368,-0.268829120621488893
0.540000000000000258,-0.277749903217917815
0.541000000000000369,-0.287283127613855771
0.542000000000000259,-0.297407952326062042
0.543000000000000371,-0.308103731477702092
0.544000000000000261,-0.319350021544218099
0.545000000000000373,-0.331126587756208957
0.546000000000000263,-0.343413410166084454
0.547000000000000375,-0.356190689385401549
0.548000000000000265,-0.369438851999596474
0.549000000000000377,-0.383138555667221214
0.550000000000000266,-0.397270693910412365
0.551000000000000378,-0.411816400603747135
0.552000000000000268,-0.426757054168293848
0.553000000000000380,-0.442074281477902786
0.554000000000000270,-0.457749961484653745
0.555000000000000382,-0.473766228570443371
0.556000000000000272,-0.490105475631578524
0.557000000000000384,-0.506750356903279187
0.558000000000000274,-0.523683790530992566
0.559000000000000385,-0.540888960895257398
0.560000000000000275,-0.558349320696929441
0.561000000000000387,-0.576048592809509930
0.562000000000000277,-0.593970771905123707
0.563000000000000389,-0.612100125860905453
0.564000000000000279,-0.630421196952176688
0.565000000000000391,-0.648918802839012487
0.566000000000000281,-0.667578037352416498
0.567000000000000393,-0.686384271086630138
0.568000000000000282,-0.705323151803621040
0.569000000000000394,-0.724380604656049143
0.570000000000000284,-0.743542832234608819
0.571000000000000396,-0.762796314445968959
0.572000000000000286,-0.782127808226958043
0.573000000000000398,-0.801524347100954437
0.574000000000000288,-0.820973240582081987
0.575000000000000400,-0.840462073432977519
0.576000000000000290,-0.859978704781409142
0.577000000000000401,-0.879511267101434790
0.578000000000000291,-0.899048165064204818
0.579000000000000403,-0.918578074263746158
0.580000000000000293,-0.938089939822790209
0.581000000000000405,-0.957572974883784012
0.582000000000000295,-0.977016658989775189
0.583000000000000407,-0.996410736360294869
0.584000000000000297,-1.015745214066649416
0.585000000000000409,-1.035010360111528138
0.586000000000000298,-1.054196701417165816
0.587000000000000410,-1.073295021726748955
0.588000000000000300,-1.092296359423128305
0.589000000000000412,-1.111192005269278082
0.590000000000000302,-1.129973500074404447
0.591000000000000414,-1.148632632289945388
0.592000000000000304,-1.167161435539147085
0.593000000000000416,-1.185552186084237292
0.594000000000000306,-1.203797400234768222
0.595000000000000417,-1.221889831700900597
0.596000000000000307,-1.239822468894955509
0.597000000000000419,-1.257588532184908958
0.598000000000000309,-1.275181471103016939
0.599000000000000421,-1.292594961512817164
0.600000000000000311,-1.309822902737762362
0.601000000000000423,-1.326859414654504299
0.602000000000000313,-1.343698834753741078
0.603000000000000425,-1.360335715171667292
0.604000000000000314,-1.376764819694667352
0.605000000000000426,-1.392981120740125034
0.606000000000000316,-1.408979796315856570
0.607000000000000428,-1.424756226960788741
0.608000000000000318,-1.440305992669351998
0.609000000000000430,-1.455624869801980470
0.610000000000000320,-1.470708827983951306
0.611000000000000432,-1.485554026994964083
0.612000000000000322,-1.500156813651420062
0.613000000000000433,-1.514513718683649923
0.614000000000000323,-1.528621453610016445
0.615000000000000435,-1.542476907609862113
0.616000000000000325,-1.556077144397111978
0.617000000000000437,-1.569419399096457113
0.618000000000000327,-1.582501075123695866
0.619000000000000439,-1.595319741072024344
0.620000000000000329,-1.607873127605804697
0.621000000000000441,-1.620159124363371506
0.622000000000000330,-1.632175776870358419
0.623000000000000442,-1.643921283464970795
0.624000000000000332,-1.655393992236472656
0.625000000000000444,-1.666592397978358120
0.626000000000000334,-1.677515139157241819
0.627000000000000446,-1.688160994898831202
0.628000000000000336,-1.698528881991997919
0.629000000000000448,-1.708617851912088925
0.630000000000000338,-1.718427087864443648
0.631000000000000449,-1.727955901849200115
0.632000000000000339,-1.737203731748196534
0.633000000000000451,-1.746170138434935293
0.634000000000000341,-1.754854802908382583
0.635000000000000453,-1.763257523451511322
0.636000000000000343,-1.771378212815116315
0.637000000000000455,-1.779216895427901957
0.638000000000000345,-1.786773704633184634
0.639000000000000457,-1.794048879953124453
0.640000000000000346,-1.801042764380831995
0.641000000000000458,-1.807755801701093734
0.642000000000000348,-1.814188533840041417
0.643000000000000460,-1.820341598244406667
0.644000000000000350,-1.826215725290668335
0.645000000000000462,-1.831811735724588441
0.646000000000000352,-1.837130538131420021
0.647000000000000464,-1.842173126437250286
0.648000000000000353,-1.846940577441642306
0.649000000000000465,-1.851434048381987996
0.650000000000000355,-1.855654774529733375
0.651000000000000467,-1.859604066818744128
0.652000000000000357,-1.863283309506014174
0.653000000000000469,-1.866693957864827613
0.654000000000000359,-1.869837535910636728
0.655000000000000471,-1.872715634159643816
0.656000000000000361,-1.875329907420280717
0.657000000000000473,-1.877682072617638198
0.658000000000000362,-1.879773906650881399
0.659000000000000474,-1.881607244283707958
