# Fe111_CS-61591-AC
# h[nm],U(h)[kJ/mol]
0.200000000000000011,105.974747624127715540
0.201000000000000012,97.866130917184435134
0.202000000000000013,93.455782340403942499
0.203000000000000014,90.733259274515560833
0.204000000000000015,88.567213359826283181
0.205000000000000016,86.383174042140041138
0.206000000000000016,83.944412823803162382
0.207000000000000017,81.206212674453610134
0.208000000000000018,78.221738002780398347
0.209000000000000019,75.083612515402862186
0.210000000000000020,71.889729410803255405
0.211000000000000021,68.725098952830251164
0.212000000000000022,65.653958374768123463
0.213000000000000023,62.718140069317847463
0.214000000000000024,59.938978246624557755
0.215000000000000024,57.320955385451966890
0.216000000000000025,54.855941883989125074
0.217000000000000026,52.527336507556711354
0.218000000000000027,50.313725151517203926
0.219000000000000028,48.191881272669327529
0.220000000000000029,46.139063022038790507
0.221000000000000030,44.134641773778731988
0.222000000000000031,42.161140628384778495
0.223000000000000032,40.204781371318986771
0.224000000000000032,38.255642761668056551
0.225000000000000033,36.307527905698265158
0.226000000000000034,34.357628005208248112
0.227000000000000035,32.406056790390707079
0.228000000000000036,30.455316312224869790
0.229000000000000037,28.509741647895090466
0.230000000000000038,26.574960144342874457
0.231000000000000039,24.657390433623600501
0.232000000000000040,22.763797717671856446
0.233000000000000040,20.900914712442396848
0.234000000000000041,19.075132046943849673
0.235000000000000042,17.292257667831339774
0.236000000000000043,15.557341720362732218
0.237000000000000044,13.874561274170257974
0.238000000000000045,12.247157958560196178
0.239000000000000046,10.677420903398289198
0.240000000000000047,9.166707203328844145
0.241000000000000048,7.715492310399051590
0.242000000000000048,6.323443208142230709
0.243000000000000049,4.989507842393888559
0.244000000000000050,3.712015011011328802
0.245000000000000051,2.488779691524051429
0.246000000000000052,1.317209570723401502
0.247000000000000053,0.194409302305013659
0.248000000000000054,-0.882720264043318492
0.249000000000000055,-1.917389980863755783
0.250000000000000056,-2.912838937509770521
0.251000000000000056,-3.872260622683114661
0.252000000000000057,-4.798739261922949417
0.253000000000000058,-5.695196503283751710
0.254000000000000059,-6.564348317665603005
0.255000000000000060,-7.408671735369749101
0.256000000000000061,-8.230380851596116543
0.257000000000000062,-9.031411394551193794
0.258000000000000063,-9.813413054293057769
0.259000000000000064,-10.577748712237113438
0.260000000000000064,-11.325499684510941023
0.261000000000000065,-12.057476091603124502
0.262000000000000066,-12.774231486996882268
0.263000000000000067,-13.476080914203549810
0.264000000000000068,-14.163121610825939456
0.265000000000000069,-14.835255636499770304
0.266000000000000070,-15.492213765781528423
0.267000000000000071,-16.133580054737770126
0.268000000000000071,-16.758816559020047521
0.269000000000000072,-17.367287749856114232
0.270000000000000073,-17.958284241260738412
0.271000000000000074,-18.531045505792143047
0.272000000000000075,-19.084781316540905038
0.273000000000000076,-19.618691709155932301
0.274000000000000077,-20.131985309207326651
0.275000000000000078,-20.623895916839519060
0.276000000000000079,-21.093697282403599758
0.277000000000000079,-21.540716043608078678
0.278000000000000080,-21.964342826813606280
0.279000000000000081,-22.364041542614472746
0.280000000000000082,-22.739356929039363564
0.281000000000000083,-23.089920414849498087
0.282000000000000084,-23.415454390818947417
0.283000000000000085,-23.715774988871260121
0.284000000000000086,-23.990793477843944004
0.285000000000000087,-24.240516390782609335
0.286000000000000087,-24.465044502347105038
0.287000000000000088,-24.664570776448805134
0.288000000000000089,-24.839377403921012899
0.289000000000000090,-24.989832048129251518
0.290000000000000091,-25.116383413205390696
0.291000000000000092,-25.219556245279356688
0.292000000000000093,-25.299945871892958849
0.293000000000000094,-25.358212378911002105
0.294000000000000095,-25.395074517865847241
0.295000000000000095,-25.411303429939895437
0.296000000000000096,-25.407716265840473824
0.297000000000000097,-25.385169773773242241
0.298000000000000098,-25.344553920674389502
0.299000000000000099,-25.286785604907205283
0.300000000000000100,-25.212802511835924690
0.301000000000000101,-25.123557157121112482
0.302000000000000102,-25.020011156283622711
0.303000000000000103,-24.903129753096951760
0.304000000000000103,-24.773876633718401763
0.305000000000000104,-24.633209048180397360
0.306000000000000105,-24.482073255945113743
0.307000000000000106,-24.321400307687408571
0.308000000000000107,-24.152102171313213574
0.309000000000000108,-23.975068206440475649
0.310000000000000109,-23.791161988159846175
0.311000000000000110,-23.601218477843282528
0.312000000000000111,-23.406041536066332753
0.313000000000000111,-23.206401770340892909
0.314000000000000112,-23.003034708301605349
0.315000000000000113,-22.796639285233638361
0.316000000000000114,-22.587876633354774469
0.317000000000000115,-22.377369159049589342
0.318000000000000116,-22.165699893280709887
0.319000000000000117,-21.953412099652020117
0.320000000000000118,-21.741009124051338119
0.321000000000000119,-21.528954469438883024
0.322000000000000119,-21.317672079153304310
0.323000000000000120,-21.107546812062651043
0.324000000000000121,-20.898925092976931239
0.325000000000000122,-20.692115721945789630
0.326000000000000123,-20.487390826375037278
0.327000000000000124,-20.284986940294288615
0.328000000000000125,-20.085106195583868782
0.329000000000000126,-19.887917610507798827
0.330000000000000127,-19.693558461491040390
0.331000000000000127,-19.502135724714637632
0.332000000000000128,-19.313727574768410733
0.333000000000000129,-19.128384928293375111
0.334000000000000130,-18.946133021253846351
0.335000000000000131,-18.766973009197737809
0.336000000000000132,-18.590883580584311119
0.337000000000000133,-18.417822573978277489
0.338000000000000134,-18.247728590620834410
0.339000000000000135,-18.080522594589623964
0.340000000000000135,-17.916109493444473344
0.341000000000000136,-17.754379692923972556
0.342000000000000137,-17.595210619904243288
0.343000000000000138,-17.438468208454573016
0.344000000000000139,-17.284008344423504866
0.345000000000000140,-17.131678264561106317
0.346000000000000141,-16.981317906727834810
0.347000000000000142,-16.832761208257231544
0.348000000000000143,-16.685837350027902914
0.349000000000000143,-16.540371944259057102
0.350000000000000144,-16.396188164474555293
0.351000000000000145,-16.253107816481779935
0.352000000000000146,-16.110952349585179633
0.353000000000000147,-15.969543807599473340
0.354000000000000148,-15.828705719546269037
0.355000000000000149,-15.688263930209226160
0.356000000000000150,-15.548047370989399596
0.357000000000000151,-15.407888771744092438
0.358000000000000151,-15.267625314509860601
0.359000000000000152,-15.127099230206061620
0.360000000000000153,-14.986158339588181221
0.361000000000000154,-14.844656539873493983
0.362000000000000155,-14.702454238594606650
0.363000000000000156,-14.559418736351465995
0.364000000000000157,-14.415424560229885387
0.365000000000000158,-14.270353749736154114
0.366000000000000159,-14.124096097163043595
0.367000000000000159,-13.976549344354690874
0.368000000000000160,-13.827619337876617678
0.369000000000000161,-13.677220144623612796
0.370000000000000162,-13.525274129913645638
0.371000000000000163,-13.371712000121494412
0.372000000000000164,-13.216472811900677797
0.373000000000000165,-13.059503950030649122
0.374000000000000166,-12.900761075904560116
0.375000000000000167,-12.740208048646255889
0.376000000000000167,-12.577816820811154486
0.377000000000000168,-12.413567310586433479
0.378000000000000169,-12.247447252362025694
0.379000000000000170,-12.079452027495729993
0.380000000000000171,-11.909584477043441808
0.381000000000000172,-11.737854698170959722
0.382000000000000173,-11.564279825905620314
0.383000000000000174,-11.388883801826851894
0.384000000000000175,-11.211697131232602587
0.385000000000000175,-11.032756630256438157
0.386000000000000176,-10.852105164346026456
0.387000000000000177,-10.669791379449652169
0.388000000000000178,-10.485869427193049930
0.389000000000000179,-10.300398685264100962
0.390000000000000180,-10.113443474159113933
0.391000000000000181,-9.925072771380493819
0.392000000000000182,-9.735359924113192065
0.393000000000000183,-9.544382361344695198
0.394000000000000183,-9.352221306333264650
0.395000000000000184,-9.158961490269037498
0.396000000000000185,-8.964690867914487882
0.397000000000000186,-8.769500335954315773
0.398000000000000187,-8.573483454729361242
0.399000000000000188,-8.376736173975849908
0.400000000000000189,-8.179356563139775105
0.401000000000000190,-7.981444546785690264
0.402000000000000191,-7.783101645572045868
0.403000000000000191,-7.584430723217930215
0.404000000000000192,-7.385535739842535641
0.405000000000000193,-7.186521512015805691
0.406000000000000194,-6.987493479818214226
0.407000000000000195,-6.788557481169233299
0.408000000000000196,-6.589819533646744887
0.409000000000000197,-6.391385623985186726
0.410000000000000198,-6.193361505407017020
0.411000000000000199,-5.995852502910623549
0.412000000000000199,-5.798963326608381763
0.413000000000000200,-5.602797893181079125
0.414000000000000201,-5.407459155488364644
0.415000000000000202,-5.213048940350740068
0.416000000000000203,-5.019667794496049495
0.417000000000000204,-4.827414838641455042
0.418000000000000205,-4.636387629663024867
0.419000000000000206,-4.446682030786284656
0.420000000000000207,-4.258392089714042150
0.421000000000000207,-4.071609924593149188
0.422000000000000208,-3.886425617706504632
0.423000000000000209,-3.702927116764771931
0.424000000000000210,-3.521200143659818593
0.425000000000000211,-3.341328110531580187
0.426000000000000212,-3.163392042990609720
0.427000000000000213,-2.987470510329932605
0.428000000000000214,-2.813639562552714857
0.429000000000000214,-2.641972674035288016
0.430000000000000215,-2.472540693639835752
0.431000000000000216,-2.305411801086312273
0.432000000000000217,-2.140651469388742179
0.433000000000000218,-1.978322433158423266
0.434000000000000219,-1.818484662573665478
0.435000000000000220,-1.661195342814031362
0.436000000000000221,-1.506508858755764457
0.437000000000000222,-1.354476784724455651
0.438000000000000222,-1.205147879101029051
0.439000000000000223,-1.058568083577434260
0.440000000000000224,-0.914780526859302112
0.441000000000000225,-0.773825532614189626
0.442000000000000226,-0.635740631465968042
0.443000000000000227,-0.500560576837489002
0.444000000000000228,-0.368317364446666795
0.445000000000000229,-0.239040255263438528
0.446000000000000230,-0.112755801738338060
0.447000000000000230,0.010512122883527519
0.448000000000000231,0.130742292345622457
0.449000000000000232,0.247916092439191826
0.450000000000000233,0.362017483513609906
0.451000000000000234,0.473032960608770536
0.452000000000000235,0.580951511376455731
0.453000000000000236,0.685764571953221824
0.454000000000000237,0.787465980942822830
0.455000000000000238,0.886051931662083847
0.456000000000000238,0.981520922799127171
0.457000000000000239,1.073873707628807406
0.458000000000000240,1.163113241924952579
0.459000000000000241,1.249244630705107717
0.460000000000000242,1.332275073938048227
0.461000000000000243,1.412213811340372827
0.462000000000000244,1.489072066383276383
0.463000000000000245,1.562862989626450538
0.464000000000000246,1.633601601491108779
0.465000000000000246,1.701304734579732081
0.466000000000000247,1.765990975645695071
0.467000000000000248,1.827680607311396699
0.468000000000000249,1.886395549629034774
0.469000000000000250,1.942159301574080121
0.470000000000000251,1.994996882556995477
0.471000000000000252,2.044934774034828706
0.472000000000000253,2.092000861299878611
0.473000000000000254,2.136224375518975371
0.474000000000000254,2.177635836092748800
0.475000000000000255,2.216266993400455299
0.476000000000000256,2.252150771992342815
0.477000000000000257,2.285321214287616698
0.478000000000000258,2.315813424832751544
0.479000000000000259,2.343663515171361844
0.480000000000000260,2.368908549373355932
0.481000000000000261,2.391586490268099219
0.482000000000000262,2.411736146422804872
0.483000000000000262,2.429397119904690872
0.484000000000000263,2.444609754862111739
0.485000000000000264,2.457415086957353889
0.486000000000000265,2.467854793680628767
0.487000000000000266,2.475971145572531285
0.488000000000000267,2.481806958379423111
0.489000000000000268,2.485405546163649948
0.490000000000000269,2.486810675388469782
0.491000000000000270,2.486066519994834856
0.492000000000000270,2.483217617485387496
0.493000000000000271,2.478308826028559508
0.494000000000000272,2.471385282594085187
0.495000000000000273,2.462492362128742229
0.496000000000000274,2.451675637779907824
0.497000000000000275,2.438980842172353114
0.498000000000000276,2.424453829742065469
0.499000000000000277,2.408140540129598328
0.500000000000000222,2.390086962633468204
0.501000000000000334,2.370339101723172526
0.502000000000000224,2.348942943609603873
0.503000000000000336,2.325944423869716893
0.504000000000000226,2.301389396120824493
0.505000000000000338,2.275323601738883372
0.506000000000000227,2.247792640614021842
0.507000000000000339,2.218841942935549039
0.508000000000000229,2.188516741997780901
0.509000000000000341,2.156862048016911615
0.510000000000000231,2.123922622948740901
0.511000000000000343,2.089742956295788545
0.512000000000000233,2.054367241892138818
0.513000000000000345,2.017839355653117117
0.514000000000000234,1.980202834276855839
0.515000000000000346,1.941500854883754901
0.516000000000000236,1.901776215579762397
0.517000000000000348,1.861071316928396779
0.518000000000000238,1.819428144316707741
0.519000000000000350,1.776888251199136848
0.520000000000000240,1.733492743203770559
0.521000000000000352,1.689282263084372904
0.522000000000000242,1.644296976502025887
0.523000000000000353,1.598576558619216881
0.524000000000000243,1.552160181489872670
0.525000000000000355,1.505086502227790834
0.526000000000000245,1.457393651936548906
0.527000000000000357,1.409119225383193896
0.528000000000000247,1.360300271398541927
0.529000000000000359,1.310973283986339055
0.530000000000000249,1.261174194123889425
0.531000000000000361,1.210938362236450683
0.532000000000000250,1.160300571328034547
0.533000000000000362,1.109295020750821870
0.534000000000000252,1.057955320596169813
0.535000000000000364,1.006314486689223520
0.536000000000000254,0.954404936170557550
0.537000000000000366,0.902258483646974918
0.538000000000000256,0.849906337894987152
0.539000000000000368,0.797379099099605360
0.540000000000000258,0.744706756612068532
0.541000000000000369,0.691918687209493455
0.542000000000000259,0.639043653840522641
0.543000000000000371,0.586109804840240001
0.544000000000000261,0.533144673598680230
0.545000000000000373,0.480175178666909397
0.546000000000000263,0.427227624285258734
0.547000000000000375,0.374327701317962169
0.548000000000000265,0.321500488579604504
0.549000000000000377,0.268770454537822889
0.550000000000000266,0.216161459378208243
0.551000000000000378,0.163696757416440936
0.552000000000000268,0.111398999843917948
0.553000000000000380,0.059290237792656020
0.554000000000000270,0.007391925706062652
0.555000000000000382,-0.044275074998068528
0.556000000000000272,-0.095690491985186060
0.557000000000000384,-0.146834637795296458
0.558000000000000274,-0.197688405380438137
0.559000000000000385,-0.248233263400685633
0.560000000000000275,-0.298451251290620001
0.561000000000000387,-0.348324974108220053
0.562000000000000277,-0.397837597177370439
0.563000000000000389,-0.446972840535573623
0.564000000000000279,-0.495714973197439512
0.565000000000000391,-0.544048807244984389
0.566000000000000281,-0.591959691754771256
0.567000000000000393,-0.639433506572424148
0.568000000000000282,-0.686456655944012617
0.569000000000000394,-0.733016062014271497
0.570000000000000284,-0.779099158200567410
0.571000000000000396,-0.824693882452224636
0.572000000000000286,-0.869788670403511821
0.573000000000000398,-0.914372448429256357
0.574000000000000288,-0.958434626611096241
0.575000000000000400,-1.001965091622756487
0.576000000000000290,-1.044954199541776596
0.577000000000000401,-1.087392768595693449
0.578000000000000291,-1.129272071849636516
0.579000000000000403,-1.170583829842705592
0.580000000000000293,-1.211320203179774735
0.581000000000000405,-1.251473785085659873
0.582000000000000295,-1.291037593927626181
0.583000000000000407,-1.330005065712937640
0.584000000000000297,-1.368370046566902865
0.585000000000000409,-1.406126785197660212
0.586000000000000298,-1.443269925352792082
0.587000000000000410,-1.479794498273539149
0.588000000000000300,-1.515695915151343831
0.589000000000000412,-1.550969959592047198
0.590000000000000302,-1.585612780092124030
0.591000000000000414,-1.619620882531838335
0.592000000000000304,-1.652991122689412951
0.593000000000000416,-1.685720698780594606
0.594000000000000306,-1.717807144027485577
0.595000000000000417,-1.749248319260630735
0.596000000000000307,-1.780042405557791030
0.597000000000000419,-1.810187896923158846
0.598000000000000309,-1.839683593010195350
0.599000000000000421,-1.868528591891254198
0.600000000000000311,-1.896722282877105314
0.601000000000000423,-1.924264339389225809
0.602000000000000313,-1.951154711887404858
0.603000000000000425,-1.977393620855574907
0.604000000000000314,-2.002981549847937082
0.605000000000000426,-2.027919238598031360
0.606000000000000316,-2.052207676192659758
0.607000000000000428,-2.075848094312875869
0.608000000000000318,-2.098841960543909479
0.609000000000000430,-2.121190971755862797
0.610000000000000320,-2.142897047556754142
0.611000000000000432,-2.163962323819695222
0.612000000000000322,-2.184389146285413030
0.613000000000000433,-2.204180064241687109
0.614000000000000323,-2.223337824280830155
0.615000000000000435,-2.241865364136440775
0.616000000000000325,-2.259765806600357418
0.617000000000000437,-2.277042453520995213
0.618000000000000327,-2.293698779883687422
0.619000000000000439,-2.309738427974009856
0.620000000000000329,-2.325165201624684208
0.621000000000000441,-2.339983060546685145
0.622000000000000330,-2.354196114745149782
0.623000000000000442,-2.367808619020494998
0.624000000000000332,-2.380824967555089877
0.625000000000000444,-2.393249688585949553
0.626000000000000334,-2.405087439163517082
0.627000000000000446,-2.416342999996852647
0.628000000000000336,-2.427021270385274043
0.629000000000000448,-2.437127263236566144
0.630000000000000338,-2.446666100171655867
0.631000000000000449,-2.455643006715857446
0.632000000000000339,-2.464063307576435324
0.633000000000000451,-2.471932422006382080
0.634000000000000341,-2.479255859254185346
0.635000000000000453,-2.486039214099416306
0.636000000000000343,-2.492288162473627722
0.637000000000000455,-2.498008457166501994
0.638000000000000345,-2.503205923616568462
0.639000000000000457,-2.507886455786313640
0.640000000000000346,-2.512056012121040460
0.641000000000000458,-2.515720611591116818
0.642000000000000348,-2.518886329816952152
0.643000000000000460,-2.521559295276255330
0.644000000000000350,-2.523745685592900134
0.645000000000000462,-2.525451723906809498
0.646000000000000352,-2.526683675324181699
0.647000000000000464,-2.527447843447440334
0.648000000000000353,-2.527750566984130032
0.649000000000000465,-2.527598216434086442
0.650000000000000355,-2.526997190854133102
0.651000000000000467,-2.525953914699493819
0.652000000000000357,-2.524474834741246454
0.653000000000000469,-2.522566417058826449
0.654000000000000359,-2.520235144107011216
0.655000000000000471,-2.517487511856332016
0.656000000000000361,-2.514330027006183688
0.657000000000000473,-2.510769204269757804
0.658000000000000362,-2.506811563729905323
0.659000000000000474,-2.502463628265060969
0.660000000000000364,-2.497731921044343384
0.661000000000000476,-2.492622963090918908
0.662000000000000366,-2.487143270912737236
