# Fe111_THEOBROMINE-AC
# h[nm],U(h)[kJ/mol]
0.149999999999999994,86.488673708574864918
0.150999999999999995,78.361037363040779269
0.151999999999999996,73.158685820683146517
0.152999999999999997,68.708133465893041603
0.153999999999999998,64.190702184225713722
0.154999999999999999,59.434218669626773135
0.156000000000000000,54.526776582334356647
0.157000000000000001,49.621446708499334477
0.158000000000000002,44.849717998290728360
0.159000000000000002,40.293337958363885321
0.160000000000000003,35.984696552576536988
0.161000000000000004,31.918799582358701628
0.162000000000000005,28.067812812812679368
0.163000000000000006,24.393884570056869165
0.164000000000000007,20.858645654116021007
0.165000000000000008,17.429215643969619975
0.166000000000000009,14.081217983799296789
0.167000000000000010,10.799544898756897382
0.168000000000000010,7.577618713720648991
0.169000000000000011,4.415790859260005696
0.170000000000000012,1.319374953127423478
0.171000000000000013,-1.703335260965107567
0.172000000000000014,-4.642839634127377657
0.173000000000000015,-7.489875255426372114
0.174000000000000016,-10.236483819112457638
0.175000000000000017,-12.876708549564472861
0.176000000000000018,-15.406959142677319363
0.177000000000000018,-17.826100777092481309
0.178000000000000019,-20.135329867314645469
0.179000000000000020,-22.337898331558442067
0.180000000000000021,-24.438742509443919459
0.181000000000000022,-26.444064612705705741
0.182000000000000023,-28.360905271933074090
0.183000000000000024,-30.196736419207233837
0.184000000000000025,-31.959095103874528121
0.185000000000000026,-33.655271269496147113
0.186000000000000026,-35.292056204830061006
0.187000000000000027,-36.875553353055515515
0.188000000000000028,-38.411049356577287028
0.189000000000000029,-39.902940506280735633
0.190000000000000030,-41.354708000593845441
0.191000000000000031,-42.768934437749457800
0.192000000000000032,-44.147353604488692724
0.193000000000000033,-45.490925738566957648
0.194000000000000034,-46.799930900293027491
0.195000000000000034,-48.074073778576881466
0.196000000000000035,-49.312594087615579497
0.197000000000000036,-50.514377607911924883
0.198000000000000037,-51.678063833096118174
0.199000000000000038,-52.802147060028254089
0.200000000000000039,-53.885068574460049717
0.201000000000000040,-54.925298319060900099
0.202000000000000041,-55.921405074139329372
0.203000000000000042,-56.872114729716315651
0.204000000000000042,-57.776356681454288378
0.205000000000000043,-58.633298746607394492
0.206000000000000044,-59.442371276371318345
0.207000000000000045,-60.203281346035360855
0.208000000000000046,-60.916018043245216518
0.209000000000000047,-61.580849956786778421
0.210000000000000048,-62.198316002752200404
0.211000000000000049,-62.769210720434521988
0.212000000000000050,-63.294565134850905963
0.213000000000000050,-63.775624223658589074
0.214000000000000051,-64.213821949812057710
0.215000000000000052,-64.610754733162451657
0.216000000000000053,-64.968154139030716010
0.217000000000000054,-65.287859463518771008
0.218000000000000055,-65.571790797140167228
0.219000000000000056,-65.821923052773158247
0.220000000000000057,-66.040261352907251080
0.221000000000000058,-66.228818086067420268
0.222000000000000058,-66.389591864154667178
0.223000000000000059,-66.524548541818077751
0.224000000000000060,-66.635604396178536035
0.225000000000000061,-66.724611510293740935
0.226000000000000062,-66.793345356529485457
0.227000000000000063,-66.843494536177843202
0.228000000000000064,-66.876652598812128758
0.229000000000000065,-66.894311838490196465
0.230000000000000066,-66.897858943458018643
0.231000000000000066,-66.888572360884154477
0.232000000000000067,-66.867621227783715199
0.233000000000000068,-66.836065713083257833
0.234000000000000069,-66.794858613178377027
0.235000000000000070,-66.744848043799578363
0.236000000000000071,-66.686781074033817163
0.237000000000000072,-66.621308153484221748
0.238000000000000073,-66.548988190360518047
0.239000000000000073,-66.470294146404086177
0.240000000000000074,-66.385619023616897039
0.241000000000000075,-66.295282127487837442
0.242000000000000076,-66.199535501530561987
0.243000000000000077,-66.098570438239761415
0.244000000000000078,-65.992523981851860526
0.245000000000000079,-65.881485348396324753
0.246000000000000080,-65.765502198324924166
0.247000000000000081,-65.644586706399067566
0.248000000000000081,-65.518721382422469901
0.249000000000000082,-65.387864604768168419
0.250000000000000111,-65.251955836426745350
0.251000000000000112,-65.110920500464317229
0.252000000000000113,-64.964674498323461194
0.253000000000000114,-64.813128360312049381
0.254000000000000115,-64.656191022927629319
0.255000000000000115,-64.493773232363025727
0.256000000000000116,-64.325790577659148539
0.257000000000000117,-64.152166160542861917
0.258000000000000118,-63.972832912034633068
0.259000000000000119,-63.787735568473138414
0.260000000000000120,-63.596832321712653879
0.261000000000000121,-63.400096159938485130
0.262000000000000122,-63.197515916855763862
0.263000000000000123,-62.989097047968712673
0.264000000000000123,-62.774862153318636615
0.265000000000000124,-62.554851266420278932
0.266000000000000125,-62.329121929264474034
0.267000000000000126,-62.097749073163527100
0.268000000000000127,-61.860824724941814168
0.269000000000000128,-61.618457557536579827
0.270000000000000129,-61.370772303504921297
0.271000000000000130,-61.117909049248680731
0.272000000000000131,-60.860022426998057199
0.273000000000000131,-60.597280720748379679
0.274000000000000132,-60.329864901447137981
0.275000000000000133,-60.057967605791660048
0.276000000000000134,-59.781792072035713659
0.277000000000000135,-59.501551045230726800
0.278000000000000136,-59.217465663351291028
0.279000000000000137,-58.929764334789055624
0.280000000000000138,-58.638681616746417546
0.281000000000000139,-58.344457103134104159
0.282000000000000139,-58.047334329676594677
0.283000000000000140,-57.747559703062357528
0.284000000000000141,-57.445381460146151653
0.285000000000000142,-57.141048662420374171
0.286000000000000143,-56.834810230224334759
0.287000000000000144,-56.526914020455151899
0.288000000000000145,-56.217605950884184551
0.289000000000000146,-55.907129173566445957
0.290000000000000147,-55.595723299259702799
0.291000000000000147,-55.283623674242981849
0.292000000000000148,-54.971060710440987407
0.293000000000000149,-54.658259269318897111
0.294000000000000150,-54.345438099613502914
0.295000000000000151,-54.032809328604287202
0.296000000000000152,-53.720578006307007968
0.297000000000000153,-53.408941701685456849
0.298000000000000154,-53.098090149724292530
0.299000000000000155,-52.788204947987892979
0.300000000000000155,-52.479459301099630864
0.301000000000000156,-52.172017811416523614
0.302000000000000157,-51.866036314039718036
0.303000000000000158,-51.561661754193337970
0.304000000000000159,-51.259032104916812500
0.305000000000000160,-50.958276322951832071
0.306000000000000161,-50.659514340658738263
0.307000000000000162,-50.362857091769043905
0.308000000000000163,-50.068406568768544673
0.309000000000000163,-49.776255909707600722
0.310000000000000164,-49.486489512249868028
0.311000000000000165,-49.199183172797233965
0.312000000000000166,-48.914404248565503508
0.313000000000000167,-48.632211840529727453
0.314000000000000168,-48.352656995212342395
0.315000000000000169,-48.075782923345720121
0.316000000000000170,-47.801625233506385371
0.317000000000000171,-47.530212178887879304
0.318000000000000171,-47.261564915452318303
0.319000000000000172,-46.995697769777549979
0.320000000000000173,-46.732618514994896941
0.321000000000000174,-46.472328653293182299
0.322000000000000175,-46.214823703545071965
0.323000000000000176,-45.960093492693907535
0.324000000000000177,-45.708122449619914107
0.325000000000000178,-45.458889900285953445
0.326000000000000179,-45.212370363042523991
0.327000000000000179,-44.968533843050423116
0.328000000000000180,-44.727346124856211418
0.329000000000000181,-44.488769062231661167
0.330000000000000182,-44.252760864460029211
0.331000000000000183,-44.019276378324491361
0.332000000000000184,-43.788267365121278374
0.333000000000000185,-43.559682772086873115
0.334000000000000186,-43.333468997691610980
0.335000000000000187,-43.109570150312507053
0.336000000000000187,-42.887928299857016157
0.337000000000000188,-42.668483721962942923
0.338000000000000189,-42.451175134454047111
0.339000000000000190,-42.235939925778879456
0.340000000000000191,-42.022714375207733895
0.341000000000000192,-41.811433864607508326
0.342000000000000193,-41.602033081653999602
0.343000000000000194,-41.394446214381488858
0.344000000000000195,-41.188607137004353831
0.345000000000000195,-40.984449586980339575
0.346000000000000196,-40.781907333314748598
0.347000000000000197,-40.580914336135052167
0.348000000000000198,-40.381404897591082204
0.349000000000000199,-40.183313804160292193
0.350000000000000200,-39.986576460460142357
0.351000000000000201,-39.791129014689282428
0.352000000000000202,-39.596908475837871322
0.353000000000000203,-39.403852822823061786
0.354000000000000203,-39.211901105721196359
0.355000000000000204,-39.020993539279643869
0.356000000000000205,-38.831071588904386260
0.357000000000000206,-38.642078049327480471
0.358000000000000207,-38.453957116167849506
0.359000000000000208,-38.266654450605905424
0.360000000000000209,-38.080117237397821839
0.361000000000000210,-37.894294236460268621
0.362000000000000210,-37.709135828259832124
0.363000000000000211,-37.524594053243802705
0.364000000000000212,-37.340622645550794800
0.365000000000000213,-37.157177061240140858
0.366000000000000214,-36.974214501278943601
0.367000000000000215,-36.791693929525152384
0.368000000000000216,-36.609576085942890700
0.369000000000000217,-36.427823495284819444
0.370000000000000218,-36.246400471473172900
0.371000000000000218,-36.065273117908063227
0.372000000000000219,-35.884409323927954460
0.373000000000000220,-35.703778757643227948
0.374000000000000221,-35.523352855359355829
0.375000000000000222,-35.343104807801061895
0.376000000000000223,-35.163009543344514896
0.377000000000000224,-34.983043708458708920
0.378000000000000225,-34.803185645552083827
0.379000000000000226,-34.623415368414455884
0.380000000000000226,-34.443714535439184488
0.381000000000000227,-34.264066420803551694
0.382000000000000228,-34.084455883780535146
0.383000000000000229,-33.904869336348234299
0.384000000000000230,-33.725294709257390480
0.385000000000000231,-33.545721416711586471
0.386000000000000232,-33.366140319808337722
0.387000000000000233,-33.186543688883098469
0.388000000000000234,-33.006925164892585656
0.389000000000000234,-32.827279719967648930
0.390000000000000235,-32.647603617259662201
0.391000000000000236,-32.467894370199232412
0.392000000000000237,-32.288150701279612065
0.393000000000000238,-32.108372500472242450
0.394000000000000239,-31.928560783375388610
0.395000000000000240,-31.748717649192496282
0.396000000000000241,-31.568846238630737133
0.397000000000000242,-31.388950691805355575
0.398000000000000242,-31.209036106230524155
0.399000000000000243,-31.029108494972273746
0.400000000000000244,-30.849174745034339651
0.401000000000000245,-30.669242576043281190
0.402000000000000246,-30.489320499294770173
0.403000000000000247,-30.309417777218140344
0.404000000000000248,-30.129544383312957478
0.405000000000000249,-29.949710962606520326
0.406000000000000250,-29.769928792677774254
0.407000000000000250,-29.590209745289236309
0.408000000000000251,-29.410566248664952838
0.409000000000000252,-29.231011250449107308
0.410000000000000253,-29.051558181376389456
0.411000000000000254,-28.872220919682415996
0.412000000000000255,-28.693013756279174942
0.413000000000000256,-28.513951360717658901
0.414000000000000257,-28.335048747957095827
0.415000000000000258,-28.156321245957723676
0.416000000000000258,-27.977784464111202567
0.417000000000000259,-27.799454262520736592
0.418000000000000260,-27.621346722140621921
0.419000000000000261,-27.443478115782632187
0.420000000000000262,-27.265864879994904157
0.421000000000000263,-27.088523587817114446
0.422000000000000264,-26.911470922413439411
0.423000000000000265,-26.734723651583824022
0.424000000000000266,-26.558298603152131534
0.425000000000000266,-26.382212641228157679
0.426000000000000267,-26.206482643339292338
0.427000000000000268,-26.031125478426446307
0.428000000000000269,-25.856157985697297619
0.429000000000000270,-25.681596954329211968
0.430000000000000271,-25.507459104012674800
0.431000000000000272,-25.333761066325717337
0.432000000000000273,-25.160519366928333795
0.433000000000000274,-24.987750408565652549
0.434000000000000274,-24.815470454867288197
0.435000000000000275,-24.643695614930230420
0.436000000000000276,-24.472441828671723130
0.437000000000000277,-24.301724852937752530
0.438000000000000278,-24.131560248353096654
0.439000000000000279,-23.961963366897599315
0.440000000000000280,-23.792949340193338514
0.441000000000000281,-23.624533068487245657
0.442000000000000282,-23.456729210312953882
0.443000000000000282,-23.289552172815838560
0.444000000000000283,-23.123016102724783138
0.445000000000000284,-22.957134877954199936
0.446000000000000285,-22.791922099819537095
0.447000000000000286,-22.627391085849737351
0.448000000000000287,-22.463554863179602705
0.449000000000000288,-22.300426162505530669
0.450000000000000289,-22.138017412587661426
0.451000000000000290,-21.976340735281752359
0.452000000000000290,-21.815407941084160370
0.453000000000000291,-21.655230525173241318
0.454000000000000292,-21.495819663930856080
0.455000000000000293,-21.337186211927459567
0.456000000000000294,-21.179340699354796129
0.457000000000000295,-21.022293329890025859
0.458000000000000296,-20.866053978975525496
0.459000000000000297,-20.710632192498866999
0.460000000000000298,-20.556037185857292116
0.461000000000000298,-20.402277843391797063
0.462000000000000299,-20.249362718175778042
0.463000000000000300,-20.097300032143397885
0.464000000000000301,-19.946097676543566024
0.465000000000000302,-19.795763212705136169
0.466000000000000303,-19.646303873099487447
0.467000000000000304,-19.497726562686832352
0.468000000000000305,-19.350037860533124245
0.469000000000000306,-19.203244021684220399
0.470000000000000306,-19.057350979284915837
0.471000000000000307,-18.912364346930001346
0.472000000000000308,-18.768289421235621717
0.473000000000000309,-18.625131184618691549
0.474000000000000310,-18.482894308273159822
0.475000000000000311,-18.341583155331491639
0.476000000000000312,-18.201201784201025191
0.477000000000000313,-18.061753952063803297
0.478000000000000314,-17.923243118530088225
0.479000000000000314,-17.785672449435434572
0.480000000000000315,-17.649044820771269571
0.481000000000000316,-17.513362822739932056
0.482000000000000317,-17.378628763924716338
0.483000000000000318,-17.244844675566195491
0.484000000000000319,-17.112012315936105722
0.485000000000000320,-16.980133174800730700
0.486000000000000321,-16.849208477965476050
0.487000000000000322,-16.719239191893088048
0.488000000000000322,-16.590226028387881740
0.489000000000000323,-16.462169449339018712
0.490000000000000324,-16.335069671515544343
0.491000000000000325,-16.208926671406874931
0.492000000000000326,-16.083740190101906364
0.493000000000000327,-15.959509738200935658
0.494000000000000328,-15.836234600754172774
0.495000000000000329,-15.713913842221336026
0.496000000000000330,-15.592546311446705332
0.497000000000000330,-15.472130646644526308
0.498000000000000331,-15.352665280389681257
0.499000000000000332,-15.234148444608871742
0.500000000000000333,-15.116578175567704889
0.501000000000000334,-14.999952318849320676
0.502000000000000335,-14.884268534320380439
0.503000000000000336,-14.769524301080569018
0.504000000000000337,-14.655716922391590629
0.505000000000000338,-14.542843530582320710
0.506000000000000338,-14.430901091926600088
0.507000000000000339,-14.319886411490404754
0.508000000000000340,-14.209796137945421179
0.509000000000000341,-14.100626768346151252
0.510000000000000342,-13.992374652867752616
0.511000000000000343,-13.885035999502084891
0.512000000000000344,-13.778606878709576122
0.513000000000000345,-13.673083228024646374
0.514000000000000346,-13.568460856612535537
0.515000000000000346,-13.464735449775625753
0.516000000000000347,-13.361902573407295591
0.517000000000000348,-13.259957678391831593
0.518000000000000349,-13.158896104948436090
0.519000000000000350,-13.058713086918311674
0.520000000000000351,-12.959403755993099239
0.521000000000000352,-12.860963145883683723
0.522000000000000353,-12.763386196428104569
0.523000000000000353,-12.666667757637558367
0.524000000000000354,-12.570802593679784920
0.525000000000000355,-12.475785386798589727
0.526000000000000356,-12.381610741169264855
0.527000000000000357,-12.288273186688920546
0.528000000000000358,-12.195767182701306552
0.529000000000000359,-12.104087121655663140
0.530000000000000360,-12.013227332699177197
0.531000000000000361,-11.923182085202757463
0.532000000000000361,-11.833945592219826892
0.533000000000000362,-11.745512013878073532
0.534000000000000363,-11.657875460703966297
0.535000000000000364,-11.571029996879943269
0.536000000000000365,-11.484969643434478570
0.537000000000000366,-11.399688381364921241
0.538000000000000367,-11.315180154693262438
0.539000000000000368,-11.231438873455184435
0.540000000000000369,-11.148458416622331058
0.541000000000000369,-11.066232634958362624
0.542000000000000370,-10.984755353808974832
0.543000000000000371,-10.904020375826201317
0.544000000000000372,-10.824021483627564777
0.545000000000000373,-10.744752442390401725
0.546000000000000374,-10.666207002381828062
0.547000000000000375,-10.588378901424928102
0.548000000000000376,-10.511261867301723072
0.549000000000000377,-10.434849620093398670
0.550000000000000377,-10.359135874458440085
0.551000000000000378,-10.284114341849329932
0.552000000000000379,-10.209778732668464585
0.553000000000000380,-10.136122758363869778
0.554000000000000381,-10.063140133465495296
0.555000000000000382,-9.990824577562843700
0.556000000000000383,-9.919169817224460672
0.557000000000000384,-9.848169587860322594
0.558000000000000385,-9.777817635527643603
0.559000000000000385,-9.708107718680969001
0.560000000000000386,-9.639033609867359687
0.561000000000000387,-9.570589097367442122
0.562000000000000388,-9.502767986783139165
0.563000000000000389,-9.435564102572836731
0.564000000000000390,-9.368971289534949065
0.565000000000000391,-9.302983414240543425
0.566000000000000392,-9.237594366415995850
0.567000000000000393,-9.172798060276456056
0.568000000000000393,-9.108588435810947459
0.569000000000000394,-9.044959460019969200
0.570000000000000395,-8.981905128106507874
0.571000000000000396,-8.919419464621171301
0.572000000000000397,-8.857496524562424867
0.573000000000000398,-8.796130394432697841
0.574000000000000399,-8.735315193251249610
0.575000000000000400,-8.675045073524605854
0.576000000000000401,-8.615314222175436853
0.577000000000000401,-8.556116861430705711
0.578000000000000402,-8.497447249669912495
0.579000000000000403,-8.439299682234281619
0.580000000000000404,-8.381668492197707820
0.581000000000000405,-8.324548051100309820
0.582000000000000406,-8.267932769645337743
0.583000000000000407,-8.211817098360338463
0.584000000000000408,-8.156195528223326718
0.585000000000000409,-8.101062591254741818
0.586000000000000409,-8.046412861076030154
0.587000000000000410,-7.992240953435630679
0.588000000000000411,-7.938541526703074780
0.589000000000000412,-7.885309282332056746
0.590000000000000413,-7.832538965293148081
0.591000000000000414,-7.780225364476993200
0.592000000000000415,-7.728363313068669527
0.593000000000000416,-7.676947688893912769
0.594000000000000417,-7.625973414738036027
0.595000000000000417,-7.575435458638196451
0.596000000000000418,-7.525328834149630275
0.597000000000000419,-7.475648600586775494
0.598000000000000420,-7.426389863239679201
0.599000000000000421,-7.377547773566642597
0.600000000000000422,-7.329117529363536221
0.601000000000000423,-7.281094374910638933
0.602000000000000424,-7.233473601097498040
0.603000000000000425,-7.186250545526492672
0.604000000000000425,-7.139420592595785209
