# Fe111_ARG-AC
# h[nm],U(h)[kJ/mol]
0.149999999999999994,82.400808698790640960
0.150999999999999995,71.391098634719725169
0.151999999999999996,67.291503317981465671
0.152999999999999997,64.753933239337129635
0.153999999999999998,61.819432791229246504
0.154999999999999999,58.113840755802968374
0.156000000000000000,53.878978298295393756
0.157000000000000001,49.493168352950242195
0.158000000000000002,45.266180791119296600
0.159000000000000002,41.378583467234626880
0.160000000000000003,37.889470908360500800
0.161000000000000004,34.770190132481545220
0.162000000000000005,31.942108785907429080
0.163000000000000006,29.308439924355024431
0.164000000000000007,26.776805822298587856
0.165000000000000008,24.272653555375924839
0.166000000000000009,21.745156415580289888
0.167000000000000010,19.167686702177888947
0.168000000000000010,16.534844077605185930
0.169000000000000011,13.857677392721772236
0.170000000000000012,11.158321325834467785
0.171000000000000013,8.464874039881980394
0.172000000000000014,5.807009980757340095
0.173000000000000015,3.212565675264328124
0.174000000000000016,0.705153158976974503
0.175000000000000017,-1.697264676573237763
0.176000000000000018,-3.982972689314234316
0.177000000000000018,-6.146444500513021936
0.178000000000000019,-8.187800545033045552
0.179000000000000020,-10.111946746481288884
0.180000000000000021,-11.927536319732059411
0.181000000000000022,-13.645871370678756662
0.182000000000000023,-15.279834097386512326
0.183000000000000024,-16.842911932930608288
0.184000000000000025,-18.348358357812422526
0.185000000000000026,-19.808512071814600830
0.186000000000000026,-21.234281962515993314
0.187000000000000027,-22.634793711038760478
0.188000000000000028,-24.017185596730836750
0.189000000000000029,-25.386535651744473796
0.190000000000000030,-26.745899281990460850
0.191000000000000031,-28.096435325538873684
0.192000000000000032,-29.437598810404161043
0.193000000000000033,-30.767379999347745922
0.194000000000000034,-32.082571327500730263
0.195000000000000034,-33.379046267437132656
0.196000000000000035,-34.652036771772429802
0.197000000000000036,-35.896398573944580335
0.198000000000000037,-37.106856148074207624
0.199000000000000038,-38.278221452193683660
0.200000000000000039,-39.405582651235135927
0.201000000000000040,-40.484460808117290753
0.202000000000000041,-41.510934033986231384
0.203000000000000042,-42.481729807792845577
0.204000000000000042,-43.394287127039845586
0.205000000000000043,-44.246790858749974973
0.206000000000000044,-45.038181149667323666
0.207000000000000045,-45.768141056479770157
0.208000000000000046,-46.437065699763046212
0.209000000000000047,-47.046016257731281485
0.210000000000000048,-47.596662024240607991
0.211000000000000049,-48.091213583969853573
0.212000000000000050,-48.532349927754381724
0.213000000000000050,-48.923142061335127551
0.214000000000000051,-49.266975367187249901
0.215000000000000052,-49.567472674822624867
0.216000000000000053,-49.828419690745562320
0.217000000000000054,-50.053694143548717932
0.218000000000000055,-50.247199718918558631
0.219000000000000056,-50.412805598266949403
0.220000000000000057,-50.554292176502514167
0.221000000000000058,-50.675303321005571888
0.222000000000000058,-50.779305346045859437
0.223000000000000059,-50.869552714685710271
0.224000000000000060,-50.949060343003722551
0.225000000000000061,-51.020582268093889411
0.226000000000000062,-51.086596350218670182
0.227000000000000063,-51.149294608947926122
0.228000000000000064,-51.210578741165839745
0.229000000000000065,-51.272060333474165361
0.230000000000000066,-51.335065260746205240
0.231000000000000066,-51.400641754424476915
0.232000000000000067,-51.469571626710795442
0.233000000000000068,-51.542384148293180601
0.234000000000000069,-51.619372096031796104
0.235000000000000070,-51.700609511576523403
0.236000000000000071,-51.785970740843211502
0.237000000000000072,-51.875150356421826814
0.238000000000000073,-51.967683599252779914
0.239000000000000073,-52.062967011363049608
0.240000000000000074,-52.160278967307178277
0.241000000000000075,-52.258799847539748384
0.242000000000000076,-52.357631631706020414
0.243000000000000077,-52.455816723329029116
0.244000000000000078,-52.552355849243632235
0.245000000000000079,-52.646224907114330449
0.246000000000000080,-52.736390662285181463
0.247000000000000081,-52.821825220918618982
0.248000000000000081,-52.901519229817289158
0.249000000000000082,-52.974493774465869933
0.250000000000000111,-53.039810965697007816
0.251000000000000112,-53.096583222025969917
0.252000000000000113,-53.143981269191989725
0.253000000000000114,-53.181240890881781525
0.254000000000000115,-53.207668475114608952
0.255000000000000115,-53.222645409453399168
0.256000000000000116,-53.225631385210817825
0.257000000000000117,-53.216166676276792202
0.258000000000000118,-53.193873462240219396
0.259000000000000119,-53.158456268252358257
0.260000000000000120,-53.109701595714376765
0.261000000000000121,-53.047476818494679662
0.262000000000000122,-52.971728419121703269
0.263000000000000123,-52.882479638366476138
0.264000000000000123,-52.779827609942699951
0.265000000000000124,-52.663940049809049526
0.266000000000000125,-52.535051566858442129
0.267000000000000126,-52.393459658706071025
0.268000000000000127,-52.239520452926171856
0.269000000000000128,-52.073644250505353170
0.270000000000000129,-51.896290924545681378
0.271000000000000130,-51.707965223420956136
0.272000000000000131,-51.509212023714418649
0.273000000000000131,-51.300611574392704028
0.274000000000000132,-51.082774769835339157
0.275000000000000133,-50.856338485577680331
0.276000000000000134,-50.621961006962358454
0.277000000000000135,-50.380317577356876768
0.278000000000000136,-50.132096089198981304
0.279000000000000137,-49.877992937893793624
0.280000000000000138,-49.618709055517854267
0.281000000000000139,-49.354946138393799515
0.282000000000000139,-49.087403079890506774
0.283000000000000140,-48.816772617281756652
0.284000000000000141,-48.543738199158752877
0.285000000000000142,-48.268971077743330511
0.286000000000000143,-47.993127628479406610
0.287000000000000144,-47.716846897492558810
0.288000000000000145,-47.440748375892390243
0.289000000000000146,-47.165429998445375759
0.290000000000000147,-46.891466362858707839
0.291000000000000147,-46.619407164783169151
0.292000000000000148,-46.349775842655283498
0.293000000000000149,-46.083068425648505695
0.294000000000000150,-45.819752577281839478
0.295000000000000151,-45.560266826633899484
0.296000000000000152,-45.305019978620947541
0.297000000000000153,-45.054390694413598339
0.298000000000000154,-44.808727232776348615
0.299000000000000155,-44.568347342913163800
0.300000000000000155,-44.333538299279780404
0.301000000000000156,-44.104557068773722506
0.302000000000000157,-43.881630600728399827
0.303000000000000158,-43.664956230211160459
0.304000000000000159,-43.454702185250468460
0.305000000000000160,-43.251008188788176767
0.306000000000000161,-43.053986146363413923
0.307000000000000162,-42.863720910780060080
0.308000000000000163,-42.680271115283304084
0.309000000000000163,-42.503670067069990068
0.310000000000000164,-42.333926693276858089
0.311000000000000165,-42.171026531924852065
0.312000000000000166,-42.014932760647020871
0.313000000000000167,-41.865587256382383430
0.314000000000000168,-41.722911679582821876
0.315000000000000169,-41.586808576844923380
0.316000000000000170,-41.457162496246276362
0.317000000000000171,-41.333841110031102062
0.318000000000000171,-41.216696339651946346
0.319000000000000172,-41.105565478531218560
0.320000000000000173,-41.000272308256768383
0.321000000000000174,-40.900628204267405863
0.322000000000000175,-40.806433227417372223
0.323000000000000176,-40.717477198132066007
0.324000000000000177,-40.633540750178397616
0.325000000000000178,-40.554396361374344337
0.326000000000000179,-40.479809358849792034
0.327000000000000179,-40.409538896746710179
0.328000000000000180,-40.343338904509934650
0.329000000000000181,-40.280959004169275772
0.330000000000000182,-40.222145395250706201
0.331000000000000183,-40.166641706178765503
0.332000000000000184,-40.114189811242518147
0.333000000000000185,-40.064530612395707010
0.334000000000000186,-40.017404785347586937
0.335000000000000187,-39.972553489572781871
0.336000000000000187,-39.929719042030839660
0.337000000000000188,-39.888645554533596282
0.338000000000000189,-39.849079534837315464
0.339000000000000190,-39.810770451662406799
0.340000000000000191,-39.773471263958796840
0.341000000000000192,-39.736938914841992698
0.342000000000000193,-39.700934790718591216
0.343000000000000194,-39.665225146207703233
0.344000000000000195,-39.629581495540840308
0.345000000000000195,-39.593780971192288121
0.346000000000000196,-39.557606650551619509
0.347000000000000197,-39.520847851503532411
0.348000000000000198,-39.483300397825338734
0.349000000000000199,-39.444766855350970047
0.350000000000000200,-39.405056739883377759
0.351000000000000201,-39.363986697862706876
0.352000000000000202,-39.321380660818661568
0.353000000000000203,-39.277069974651013240
0.354000000000000203,-39.230893504792774706
0.355000000000000204,-39.182697718316411795
0.356000000000000205,-39.132336744045787214
0.357000000000000206,-39.079672411734883042
0.358000000000000207,-39.024574271368109635
0.359000000000000208,-38.966919593629711471
0.360000000000000209,-38.906593352577715450
0.361000000000000210,-38.843488191543812604
0.362000000000000210,-38.777504373264591209
0.363000000000000211,-38.708549715230915922
0.364000000000000212,-38.636539511221947407
0.365000000000000213,-38.561396439968248728
0.366000000000000214,-38.483050461865396130
0.367000000000000215,-38.401438704634443866
0.368000000000000216,-38.316505338800453728
0.369000000000000217,-38.228201443833185635
0.370000000000000218,-38.136484865767521057
0.371000000000000218,-38.041320067092591728
0.372000000000000219,-37.942677969671038340
0.373000000000000220,-37.840535791420933265
0.374000000000000221,-37.734876877464223810
0.375000000000000222,-37.625690526416910586
0.376000000000000223,-37.512971812467206689
0.377000000000000224,-37.396721403859608301
0.378000000000000225,-37.276945378374165330
0.379000000000000226,-37.153655036361854513
0.380000000000000226,-37.026866711870049187
0.381000000000000227,-36.896601582363310001
0.382000000000000228,-36.762885477519475330
0.383000000000000229,-36.625748687552857064
0.384000000000000230,-36.485225771491847979
0.385000000000000231,-36.341355365812709977
0.386000000000000232,-36.194179993805690287
0.387000000000000233,-36.043745876027287522
0.388000000000000234,-35.890102742167378835
0.389000000000000234,-35.733303644639264007
0.390000000000000235,-35.573404774176495380
0.391000000000000236,-35.410465277701362652
0.392000000000000237,-35.244547078707881838
0.393000000000000238,-35.075714700383166189
0.394000000000000239,-34.904035091671801183
0.395000000000000240,-34.729577456469527874
0.396000000000000241,-34.552413086115336682
0.397000000000000242,-34.372615195333750648
0.398000000000000242,-34.190258761763445250
0.399000000000000243,-34.005420369192790986
0.400000000000000244,-33.818178054608019067
0.401000000000000245,-33.628611159146359455
0.402000000000000246,-33.436800183032502787
0.403000000000000247,-33.242826644564367200
0.404000000000000248,-33.046772943202462613
0.405000000000000249,-32.848722226805378455
0.406000000000000250,-32.648758263043433203
0.407000000000000250,-32.446965315012349151
0.408000000000000251,-32.243428021059216348
0.409000000000000252,-32.038231278824419235
0.410000000000000253,-31.831460133494140052
0.411000000000000254,-31.623199670250897952
0.412000000000000255,-31.413534910901837804
0.413000000000000256,-31.202550714657586894
0.414000000000000257,-30.990331683028472298
0.415000000000000258,-30.776962068798745520
0.416000000000000258,-30.562525689034050203
0.417000000000000259,-30.347105842072302551
0.418000000000000260,-30.130785228443944135
0.419000000000000261,-29.913645875662524531
0.420000000000000262,-29.695769066823697102
0.421000000000000263,-29.477235272946426647
0.422000000000000264,-29.258124088987596423
0.423000000000000265,-29.038514173458054302
0.424000000000000266,-28.818483191566166113
0.425000000000000266,-28.598107761812059380
0.426000000000000267,-28.377463405954301834
0.427000000000000268,-28.156624502269199439
0.428000000000000269,-27.935664242021129411
0.429000000000000270,-27.714654589061513690
0.430000000000000271,-27.493666242472880157
0.431000000000000272,-27.272768602174057406
0.432000000000000273,-27.052029737401674936
0.433000000000000274,-26.831516357983229426
0.434000000000000274,-26.611293788316391584
0.435000000000000275,-26.391425943969714751
0.436000000000000276,-26.171975310819881599
0.437000000000000277,-25.953002926640664327
0.438000000000000278,-25.734568365059953265
0.439000000000000279,-25.516729721801155506
0.440000000000000280,-25.299543603125997038
0.441000000000000281,-25.083065116397275318
0.442000000000000282,-24.867347862680013293
0.443000000000000282,-24.652443931301270652
0.444000000000000283,-24.438403896289479178
0.445000000000000284,-24.225276814615682497
0.446000000000000285,-24.013110226159792404
0.447000000000000286,-23.801950155327016745
0.448000000000000287,-23.591841114239997523
0.449000000000000288,-23.382826107434553364
0.450000000000000289,-23.174946637987595466
0.451000000000000290,-22.968242715007672672
0.452000000000000290,-22.762752862420082778
0.453000000000000291,-22.558514128979727076
0.454000000000000292,-22.355562099446917301
0.455000000000000293,-22.153930906862321137
0.456000000000000294,-21.953653245859502618
0.457000000000000295,-21.754760386954490770
0.458000000000000296,-21.557282191753770917
0.459000000000000297,-21.361247129023791302
0.460000000000000298,-21.166682291566090157
0.461000000000000298,-20.973613413844780951
0.462000000000000299,-20.782064890313598937
0.463000000000000300,-20.592059794392195471
0.464000000000000301,-20.403619898042457237
0.465000000000000302,-20.216765691897563784
0.466000000000000303,-20.031516405897527022
0.467000000000000304,-19.847890030387201676
0.468000000000000305,-19.665903337633647396
0.469000000000000306,-19.485571903721673692
0.470000000000000306,-19.306910130787763080
0.471000000000000307,-19.129931269553654971
0.472000000000000308,-18.954647442123246037
0.473000000000000309,-18.781069665006729252
0.474000000000000310,-18.609207872338295431
0.475000000000000311,-18.439070939254222026
0.476000000000000312,-18.270666705400696372
0.477000000000000313,-18.104001998540276475
0.478000000000000314,-17.939082658229189349
0.479000000000000314,-17.775913559537375619
0.480000000000000315,-17.614498636785143049
0.481000000000000316,-17.454840907271467643
0.482000000000000317,-17.296942494969879789
0.483000000000000318,-17.140804654169350840
0.484000000000000319,-16.986427793038391343
0.485000000000000320,-16.833811497092014520
0.486000000000000321,-16.682954552541946924
0.487000000000000322,-16.533854969511708077
0.488000000000000322,-16.386510005099072629
0.489000000000000323,-16.240916186269558352
0.490000000000000324,-16.097069332565347111
0.491000000000000325,-15.954964578615081550
0.492000000000000326,-15.814596396430697922
0.493000000000000327,-15.675958617478736201
0.494000000000000328,-15.539044454513762261
0.495000000000000329,-15.403846523163050364
0.496000000000000330,-15.270356863251780766
0.497000000000000330,-15.138566959859355521
0.498000000000000331,-15.008467764097622066
0.499000000000000332,-14.880049713603103356
0.500000000000000333,-14.753302752735285353
0.501000000000000334,-14.628216352474396444
0.502000000000000335,-14.504779530012076094
0.503000000000000336,-14.382980868029630273
0.504000000000000337,-14.262808533658368759
0.505000000000000338,-14.144250297117801907
0.506000000000000338,-14.027293550027525981
0.507000000000000339,-13.911925323389308318
0.508000000000000340,-13.798132305236498141
0.509000000000000341,-13.685900857948093190
0.510000000000000342,-13.575217035225474405
0.511000000000000343,-13.466066598730103365
0.512000000000000344,-13.358435034380983453
0.513000000000000345,-13.252307568311072927
0.514000000000000346,-13.147669182482141892
0.515000000000000346,-13.044504629957975439
0.516000000000000347,-12.942798449836095287
0.517000000000000348,-12.842534981838813479
0.518000000000000349,-12.743698380564028483
0.519000000000000350,-12.646272629397371290
0.520000000000000351,-12.550241554086886353
0.521000000000000352,-12.455588835981954432
0.522000000000000353,-12.362298024938469965
0.523000000000000353,-12.270352551892344195
0.524000000000000354,-12.179735741103900892
0.525000000000000355,-12.090430822075472150
0.526000000000000356,-12.002420941145269140
0.527000000000000357,-11.915689172760362879
0.528000000000000358,-11.830218530431832136
0.529000000000000359,-11.745991977375570769
0.530000000000000360,-11.662992436842028354
0.531000000000000361,-11.581202802138561125
0.532000000000000361,-11.500605946348013475
0.533000000000000362,-11.421184731747432650
0.534000000000000363,-11.342922018930838846
0.535000000000000364,-11.265800675639969342
0.536000000000000365,-11.189803585307265266
0.537000000000000366,-11.114913655315186602
0.538000000000000367,-11.041113824976156010
0.539000000000000368,-10.968387073237522600
0.540000000000000369,-10.896716426115800047
0.541000000000000369,-10.826084963864776256
0.542000000000000370,-10.756475827881901708
0.543000000000000371,-10.687872227357456012
0.544000000000000372,-10.620257445671123619
0.545000000000000373,-10.553614846540508410
0.546000000000000374,-10.487927879926186137
0.547000000000000375,-10.423180087697911489
0.548000000000000376,-10.359355109066683553
0.549000000000000377,-10.296436685787178078
0.550000000000000377,-10.234408667135200588
0.551000000000000378,-10.173255014664896123
0.552000000000000379,-10.112959806750200897
0.553000000000000380,-10.053507242915191711
0.554000000000000381,-9.994881647957919668
0.555000000000000382,-9.937067475872332523
0.556000000000000383,-9.880049313572715874
0.557000000000000384,-9.823811884425339258
0.558000000000000385,-9.768340051591621886
0.559000000000000385,-9.713618821187427699
0.560000000000000386,-9.659633345262792048
0.561000000000000387,-9.606368924606538684
0.562000000000000388,-9.553811011380132001
0.563000000000000389,-9.501945211584995832
0.564000000000000390,-9.450757287367654413
0.565000000000000391,-9.400233159166848651
0.566000000000000392,-9.350358907706844747
0.567000000000000393,-9.301120775840979960
0.568000000000000393,-9.252505170249619937
0.569000000000000394,-9.204498662996408953
0.570000000000000395,-9.157087992946982169
0.571000000000000396,-9.110260067053777888
0.572000000000000397,-9.064001961511113592
0.573000000000000398,-9.018300922784041163
0.574000000000000399,-8.973144368514935465
0.575000000000000400,-8.928519888311438280
0.576000000000000401,-8.884415244419290758
0.577000000000000401,-8.840818372283839821
0.578000000000000402,-8.797717381003497650
0.579000000000000403,-8.755100553678767383
0.580000000000000404,-8.712956347660190559
0.581000000000000405,-8.671273394698541637
0.582000000000000406,-8.630040501000490138
0.583000000000000407,-8.589246647193091277
0.584000000000000408,-8.548880988200107112
0.585000000000000409,-8.508932853033346788
0.586000000000000409,-8.469391744502026143
0.587000000000000410,-8.430247338843139815
0.588000000000000411,-8.391489485275753779
0.589000000000000412,-8.353108205482076443
0.590000000000000413,-8.315093693018086540
0.591000000000000414,-8.277436312656528017
0.592000000000000415,-8.240126599664868934
0.593000000000000416,-8.203155259020867618
0.594000000000000417,-8.166513164568359073
0.595000000000000417,-8.130191358115755662
0.596000000000000418,-8.094181048479608620
0.597000000000000419,-8.058473610475845206
0.598000000000000420,-8.023060583860745609
0.599000000000000421,-7.987933672224211357
0.600000000000000422,-7.953084741837352922
0.601000000000000423,-7.918505820456684496
0.602000000000000424,-7.884189096087024673
0.603000000000000425,-7.850126915705120112
0.604000000000000425,-7.816311783946107816
