# Fe111_OXOLANE-AC
# h[nm],U(h)[kJ/mol]
0.149999999999999994,85.880605954322092543
0.150999999999999995,82.437462192153418528
0.151999999999999996,79.076869950617876270
0.152999999999999997,75.726344552739504934
0.153999999999999998,72.408767377234795504
0.154999999999999999,69.164311232639803961
0.156000000000000000,66.020778992379774763
0.157000000000000001,62.987508728667329194
0.158000000000000002,60.059104980352302050
0.159000000000000002,57.221889474681020715
0.160000000000000003,54.459788070263016380
0.161000000000000004,51.758465696162048175
0.162000000000000005,49.107581982661827169
0.163000000000000006,46.501505331689848788
0.164000000000000007,43.938963104148314187
0.165000000000000008,41.422083094619821964
0.166000000000000009,38.955190619170004140
0.167000000000000010,36.543617813509648329
0.168000000000000010,34.192682778013335110
0.169000000000000011,31.906916623864834293
0.170000000000000012,29.689558584680206366
0.171000000000000013,27.542301294822834734
0.172000000000000014,25.465246481692027203
0.173000000000000015,23.457021663335670070
0.174000000000000016,21.515007278846070449
0.175000000000000017,19.635627911100137055
0.176000000000000018,17.814668483333282012
0.177000000000000018,16.047584767627178337
0.178000000000000019,14.329786036841269947
0.179000000000000020,12.656875470399578276
0.180000000000000021,11.024840575663708009
0.181000000000000022,9.430191240797366703
0.182000000000000023,7.870047087629473026
0.183000000000000024,6.342178643410410821
0.184000000000000025,4.845008655728610947
0.185000000000000026,3.377580817322563433
0.186000000000000026,1.939503431716900650
0.187000000000000027,0.530875309444037713
0.188000000000000028,-0.847799408881316885
0.189000000000000029,-2.195701622814318466
0.190000000000000030,-3.511787890333745388
0.191000000000000031,-4.794877319735593169
0.192000000000000032,-6.043731707703436484
0.193000000000000033,-7.257126776578897598
0.194000000000000034,-8.433913150713719276
0.195000000000000034,-9.573066389981388369
0.196000000000000035,-10.673725962446676263
0.197000000000000036,-11.735223489256966900
0.198000000000000037,-12.757100939409372842
0.199000000000000038,-13.739119699813013398
0.200000000000000039,-14.681261608564273757
0.201000000000000040,-15.583723128995064400
0.202000000000000041,-16.446903871308762746
0.203000000000000042,-17.271390649445304888
0.204000000000000042,-18.057938204286806183
0.205000000000000043,-18.807447640361662167
0.206000000000000044,-19.520943520520880554
0.207000000000000045,-20.199550449041478117
0.208000000000000046,-20.844469854404543696
0.209000000000000047,-21.456957563557860880
0.210000000000000048,-22.038302643680488302
0.211000000000000049,-22.589807878226370264
0.212000000000000050,-23.112772143407276815
0.213000000000000050,-23.608474860625769054
0.214000000000000051,-24.078162620443613662
0.215000000000000052,-24.523038004732203632
0.216000000000000053,-24.944250575578124085
0.217000000000000054,-25.342889951895042344
0.218000000000000055,-25.719980856887026732
0.219000000000000056,-26.076479990733311354
0.220000000000000057,-26.413274562245163679
0.221000000000000058,-26.731182299846771855
0.222000000000000058,-27.030952755123774267
0.223000000000000059,-27.313269710432940940
0.224000000000000060,-27.578754504797167613
0.225000000000000061,-27.827970098689633005
0.226000000000000062,-28.061425707574482402
0.227000000000000063,-28.279581845529776274
0.228000000000000064,-28.482855633310244059
0.229000000000000065,-28.671626239276811532
0.230000000000000066,-28.846240336253579528
0.231000000000000066,-29.007017472178610262
0.232000000000000067,-29.154255267060573686
0.233000000000000068,-29.288234362969546964
0.234000000000000069,-29.409223067365321214
0.235000000000000070,-29.517481642836525424
0.236000000000000071,-29.613266208169427784
0.237000000000000072,-29.696832226508139030
0.238000000000000073,-29.768437566159207108
0.239000000000000073,-29.828345128314840196
0.240000000000000074,-29.876825043626887179
0.241000000000000075,-29.914156446179209325
0.242000000000000076,-29.940628839019545637
0.243000000000000077,-29.956543070075873914
0.244000000000000078,-29.962211941053020325
0.245000000000000079,-29.957960474851784483
0.246000000000000080,-29.944125869242689930
0.247000000000000081,-29.921057166032824171
0.248000000000000081,-29.889114665857228204
0.249000000000000082,-29.848669119078635958
0.250000000000000111,-29.800100723158699623
0.251000000000000112,-29.743797956335946253
0.252000000000000113,-29.680156276574866325
0.253000000000000114,-29.609576713591359010
0.254000000000000115,-29.532464380371315826
0.255000000000000115,-29.449226929026174560
0.256000000000000116,-29.360272974120430689
0.257000000000000117,-29.266010504800402003
0.258000000000000118,-29.166845305186502202
0.259000000000000119,-29.063179400596624191
0.260000000000000120,-28.955409545272392080
0.261000000000000121,-28.843925765406133621
0.262000000000000122,-28.729109969437466532
0.263000000000000123,-28.611334635817634364
0.264000000000000123,-28.490961586744724343
0.265000000000000124,-28.368340854760994318
0.266000000000000125,-28.243809647586544997
0.267000000000000126,-28.117691415145099398
0.268000000000000127,-27.990295021423065691
0.269000000000000128,-27.861914022594856277
0.270000000000000129,-27.732826051745423257
0.271000000000000130,-27.603292309525521375
0.272000000000000131,-27.473557159184554877
0.273000000000000131,-27.343847823636259875
0.274000000000000132,-27.214374181522241969
0.275000000000000133,-27.085328658642009003
0.276000000000000134,-26.956886210611127552
0.277000000000000135,-26.829204392187818939
0.278000000000000136,-26.702423508365455973
0.279000000000000137,-26.576666842060358675
0.280000000000000138,-26.452040953024443581
0.281000000000000139,-26.328636042475274337
0.282000000000000139,-26.206526377857453980
0.283000000000000140,-26.085770772121257721
0.284000000000000141,-25.966413111924897095
0.285000000000000142,-25.848482929228175919
0.286000000000000143,-25.731996010843506184
0.287000000000000144,-25.616955040641339991
0.288000000000000145,-25.503350269265716577
0.289000000000000146,-25.391160206397927368
0.290000000000000147,-25.280352330808895545
0.291000000000000147,-25.170883813659116868
0.292000000000000148,-25.062702250737249443
0.293000000000000149,-24.955746399569267879
0.294000000000000150,-24.849946917579181616
0.295000000000000151,-24.745227097735202904
0.296000000000000152,-24.641503598370807282
0.297000000000000153,-24.538687164125455809
0.298000000000000154,-24.436683335203799317
0.299000000000000155,-24.335393142402757860
0.300000000000000155,-24.234713785601403657
0.301000000000000156,-24.134539293648835212
0.302000000000000157,-24.034761163817851326
0.303000000000000158,-23.935268979217077856
0.304000000000000159,-23.835951002770762841
0.305000000000000160,-23.736694746582038817
0.306000000000000161,-23.637387515693070839
0.307000000000000162,-23.537916925442690541
0.308000000000000163,-23.438171391798629628
0.309000000000000163,-23.338040594208425915
0.310000000000000164,-23.237415910668470787
0.311000000000000165,-23.136190824856278425
0.312000000000000166,-23.034261305305978595
0.313000000000000167,-22.931526156731599997
0.314000000000000168,-22.827887343717272017
0.315000000000000169,-22.723250287098206712
0.316000000000000170,-22.617524133451546220
0.317000000000000171,-22.510621998201802541
0.318000000000000171,-22.402461182922838390
0.319000000000000172,-22.292963367486603232
0.320000000000000173,-22.182054777769032228
0.321000000000000174,-22.069666329676039140
0.322000000000000175,-21.955733750297408591
0.323000000000000176,-21.840197677034694834
0.324000000000000177,-21.723003735580267204
0.325000000000000178,-21.604102597650143736
0.326000000000000179,-21.483450019392805075
0.327000000000000179,-21.361006861409798319
0.328000000000000180,-21.236739091333294738
0.329000000000000181,-21.110617769910287933
0.330000000000000182,-20.982619021542525672
0.331000000000000183,-20.852723990228383855
0.332000000000000184,-20.720918781844723355
0.333000000000000185,-20.587194393696556460
0.334000000000000186,-20.451546632248582824
0.335000000000000187,-20.313976019936486495
0.336000000000000187,-20.174487691937454059
0.337000000000000188,-20.033091283758306389
0.338000000000000189,-19.889800810477904491
0.339000000000000190,-19.744634538455699158
0.340000000000000191,-19.597614850293389566
0.341000000000000192,-19.448768103810273544
0.342000000000000193,-19.298124485764752478
0.343000000000000194,-19.145717861027314655
0.344000000000000195,-18.991585617880513581
0.345000000000000195,-18.835768510093334527
0.346000000000000196,-18.678310496387101836
0.347000000000000197,-18.519258577881132055
0.348000000000000198,-18.358662634076665654
0.349000000000000199,-18.196575257908033763
0.350000000000000200,-18.033051590361328209
0.351000000000000201,-17.868149155131415995
0.352000000000000202,-17.701927693760318050
0.353000000000000203,-17.534449001671454482
0.354000000000000203,-17.365776765487417777
0.355000000000000204,-17.195976401991515559
0.356000000000000205,-17.025114899067808949
0.357000000000000206,-16.853260658928544302
0.358000000000000207,-16.680483343913177663
0.359000000000000208,-16.506853725119491116
0.360000000000000209,-16.332443534103994409
0.361000000000000210,-16.157325317866565229
0.362000000000000210,-15.981572297312704123
0.363000000000000211,-15.805258229366254241
0.364000000000000212,-15.628457272885691864
0.365000000000000213,-15.451243858517912599
0.366000000000000214,-15.273692562605736711
0.367000000000000215,-15.095877985247714292
0.368000000000000216,-14.917874632592864614
0.369000000000000217,-14.739756803437051857
0.370000000000000218,-14.561598480173277181
0.371000000000000218,-14.383473224134027291
0.372000000000000219,-14.205454075350868237
0.373000000000000220,-14.027613456744063569
0.374000000000000221,-13.850023082743504688
0.375000000000000222,-13.672753872331217195
0.376000000000000223,-13.495875866485866013
0.377000000000000224,-13.319458150000039964
0.378000000000000225,-13.143568777632506084
0.379000000000000226,-12.968274704549497045
0.380000000000000226,-12.793641721001668188
0.381000000000000227,-12.619734391176503863
0.382000000000000228,-12.446615996159710704
0.383000000000000229,-12.274348480933602090
0.384000000000000230,-12.102992405334935810
0.385000000000000231,-11.932606898890616876
0.386000000000000232,-11.763249619445067751
0.387000000000000233,-11.594976715489575980
0.388000000000000234,-11.427842792100742386
0.389000000000000234,-11.261900880392463620
0.390000000000000235,-11.097202410383129489
0.391000000000000236,-10.933797187178246446
0.392000000000000237,-10.771733370366497695
0.393000000000000238,-10.611057456526488352
0.394000000000000239,-10.451814264739986982
0.395000000000000240,-10.294046925007076965
0.396000000000000241,-10.137796869458226112
0.397000000000000242,-9.983103826257870850
0.398000000000000242,-9.830005816094722348
0.399000000000000243,-9.678539151153909614
0.400000000000000244,-9.528738436466666073
0.401000000000000245,-9.380636573534507860
0.402000000000000246,-9.234264766125145130
0.403000000000000247,-9.089652528138817189
0.404000000000000248,-8.946827693445085217
0.405000000000000249,-8.805816427591290463
0.406000000000000250,-8.666643241285555632
0.407000000000000250,-8.529331005558869805
0.408000000000000251,-8.393900968512360450
0.409000000000000252,-8.260372773558106729
0.410000000000000253,-8.128764479063217863
0.411000000000000254,-7.999092579309461826
0.412000000000000255,-7.871372026682388778
0.413000000000000256,-7.745616255006230411
0.414000000000000257,-7.621837203942902761
0.415000000000000258,-7.500045344375775080
0.416000000000000258,-7.380249704700974078
0.417000000000000259,-7.262457897951293262
0.418000000000000260,-7.146676149680184054
0.419000000000000261,-7.032909326535263794
0.420000000000000262,-6.921160965453537983
0.421000000000000263,-6.811433303412388618
0.422000000000000264,-6.703727307672965985
0.423000000000000265,-6.598042706454667616
0.424000000000000266,-6.494378019982001149
0.425000000000000266,-6.392730591846904176
0.426000000000000267,-6.293096620632243621
0.427000000000000268,-6.195471191744216455
0.428000000000000269,-6.099848309403523849
0.429000000000000270,-6.006220928747503685
0.430000000000000271,-5.914580987997309691
0.431000000000000272,-5.824919440646483260
0.432000000000000273,-5.737226287629193067
0.433000000000000274,-5.651490609428471146
0.434000000000000274,-5.567700598086718244
0.435000000000000275,-5.485843589082645799
0.436000000000000276,-5.405906093040821148
0.437000000000000277,-5.327873827241582205
0.438000000000000278,-5.251731746901119990
0.439000000000000279,-5.177464076193169618
0.440000000000000280,-5.105054338985368645
0.441000000000000281,-5.034485389265098476
0.442000000000000282,-4.965739441231275642
0.443000000000000282,-4.898798099029869846
0.444000000000000283,-4.833642386112783740
0.445000000000000284,-4.770252774200890222
0.446000000000000285,-4.708609211833528541
0.447000000000000286,-4.648691152488334311
0.448000000000000287,-4.590477582256180966
0.449000000000000288,-4.533947047057740320
0.450000000000000289,-4.479077679389041222
0.451000000000000290,-4.425847224584821937
0.452000000000000290,-4.374233066589477303
0.453000000000000291,-4.324212253226574099
0.454000000000000292,-4.275761520958953454
0.455000000000000293,-4.228857319132356629
0.456000000000000294,-4.183475833696681079
0.457000000000000295,-4.139593010399624795
0.458000000000000296,-4.097184577448662601
0.459000000000000297,-4.056226067637898502
0.460000000000000298,-4.016692839937313408
0.461000000000000298,-3.978560100542565259
0.462000000000000299,-3.941802923384426727
0.463000000000000300,-3.906396270097375556
0.464000000000000301,-3.872315009447794942
0.465000000000000302,-3.839533936222665922
0.466000000000000303,-3.808027789580379796
0.467000000000000304,-3.777771270865661446
0.468000000000000305,-3.748739060891466579
0.469000000000000306,-3.720905836690807433
0.470000000000000306,-3.694246287742285695
0.471000000000000307,-3.668735131673338312
0.472000000000000308,-3.644347129445748124
0.473000000000000309,-3.621057100028256315
0.474000000000000310,-3.598839934561568921
0.475000000000000311,-3.577670610021356445
0.476000000000000312,-3.557524202385164536
0.477000000000000313,-3.538375899309386341
0.478000000000000314,-3.520201012322860201
0.479000000000000314,-3.502974988543776647
0.480000000000000315,-3.486673421926818062
0.481000000000000316,-3.471272064047783434
0.482000000000000317,-3.456746834432956383
0.483000000000000318,-3.443073830440822380
0.484000000000000319,-3.430229336703734866
0.485000000000000320,-3.418189834137442151
0.486000000000000321,-3.406932008526324829
0.487000000000000322,-3.396432758692418563
0.488000000000000322,-3.386669204256372634
0.489000000000000323,-3.377618692998506589
0.490000000000000324,-3.369258807828278357
0.491000000000000325,-3.361567373370479395
0.492000000000000326,-3.354522462176456887
0.493000000000000327,-3.348102400568818915
0.494000000000000328,-3.342285774127998543
0.495000000000000329,-3.337051432829039932
0.496000000000000330,-3.332378495837068133
0.497000000000000330,-3.328246355969756820
0.498000000000000331,-3.324634683835232973
0.499000000000000332,-3.321523431653638170
0.500000000000000333,-3.318892836770740651
0.501000000000000334,-3.316723424871770298
0.502000000000000335,-3.314996012903679734
0.503000000000000336,-3.313691711713957488
0.504000000000000337,-3.312791928414040576
0.505000000000000338,-3.312278368475323642
0.506000000000000338,-3.312133037565659244
0.507000000000000339,-3.312338243134166138
0.508000000000000340,-3.312876595752114017
0.509000000000000341,-3.313731010217469297
0.510000000000000342,-3.314884706430712757
0.511000000000000343,-3.316321210049315571
0.512000000000000344,-3.318024352928282017
0.513000000000000345,-3.319978273353930032
0.514000000000000346,-3.322167416078109170
0.515000000000000346,-3.324576532159809972
0.516000000000000347,-3.327190678621116948
0.517000000000000348,-3.329995217924293094
0.518000000000000349,-3.332975817276636832
0.519000000000000350,-3.336118447769686579
0.520000000000000351,-3.339409383359265515
0.521000000000000352,-3.342835199692554049
0.522000000000000353,-3.346382772788520921
0.523000000000000353,-3.350039277577699259
0.524000000000000354,-3.353792186307287260
0.525000000000000355,-3.357629266817403479
0.526000000000000356,-3.361538580694182876
0.527000000000000357,-3.365508481305306443
0.528000000000000358,-3.369527611723447613
0.529000000000000359,-3.373584902542873465
0.530000000000000360,-3.377669569594554666
0.531000000000000361,-3.381771111564747745
0.532000000000000361,-3.385879307522086101
0.533000000000000362,-3.389984214357991910
0.534000000000000363,-3.394076164145175767
0.535000000000000364,-3.398145761418770228
0.536000000000000365,-3.402183880384650472
0.537000000000000366,-3.406181662059258652
0.538000000000000367,-3.410130511345227600
0.539000000000000368,-3.414022094046919698
0.540000000000000369,-3.417848333829915042
0.541000000000000369,-3.421601409128355975
0.542000000000000370,-3.425273750003978712
0.543000000000000371,-3.428858034960466483
0.544000000000000372,-3.432347187716784820
0.545000000000000373,-3.435734373942903375
0.546000000000000374,-3.439012997961330420
0.547000000000000375,-3.442176699417699215
0.548000000000000376,-3.445219349923594798
0.549000000000000377,-3.448135049674665886
0.550000000000000377,-3.450918124046991498
0.551000000000000378,-3.453563120174608425
0.552000000000000379,-3.456064803510918271
0.553000000000000380,-3.458418154376693643
0.554000000000000381,-3.460618364497277888
0.555000000000000382,-3.462660833531442162
0.556000000000000383,-3.464541165594339223
0.557000000000000384,-3.466255165776870317
0.558000000000000385,-3.467798836663702478
0.559000000000000385,-3.469168374852096726
0.560000000000000386,-3.470360167473592661
0.561000000000000387,-3.471370788720590461
0.562000000000000388,-3.472196996379720790
0.563000000000000389,-3.472835728373813602
0.564000000000000390,-3.473284099314282170
0.565000000000000391,-3.473539397065583678
0.566000000000000392,-3.473599079323375527
0.567000000000000393,-3.473460770207925208
0.568000000000000393,-3.473122256874247249
0.569000000000000394,-3.472581486140393192
0.570000000000000395,-3.471836561135249077
0.571000000000000396,-3.470885737967086104
0.572000000000000397,-3.469727422414168760
0.573000000000000398,-3.468360166638503550
0.574000000000000399,-3.466782665923889173
0.575000000000000400,-3.464993755439304657
0.576000000000000401,-3.462992407028617770
0.577000000000000401,-3.460777726027580492
0.578000000000000402,-3.458348948108977083
0.579000000000000403,-3.455705436156780941
0.580000000000000404,-3.452846677170090750
0.581000000000000405,-3.449772279197618197
0.582000000000000406,-3.446481968303371168
0.583000000000000407,-3.442975585564246099
0.584000000000000408,-3.439253084100081459
0.585000000000000409,-3.435314526136746593
0.586000000000000409,-3.431160080102817034
0.587000000000000410,-3.426790017760288798
0.588000000000000411,-3.422204711369772667
0.589000000000000412,-3.417404630890597872
0.590000000000000413,-3.412390341216166689
0.591000000000000414,-3.407162499444923665
0.592000000000000415,-3.401721852187205908
0.593000000000000416,-3.396069232908274671
0.594000000000000417,-3.390205559307746253
0.595000000000000417,-3.384131830735617630
0.596000000000000418,-3.377849125645094652
0.597000000000000419,-3.371358599082341811
0.598000000000000420,-3.364661480213284594
0.599000000000000421,-3.357759069887549686
0.600000000000000422,-3.350652738239632722
0.601000000000000423,-3.343343922327308260
0.602000000000000424,-3.335834123807319251
0.603000000000000425,-3.328124906648358916
0.604000000000000425,-3.320217894881268617
0.605000000000000426,-3.312114770386469509
0.606000000000000427,-3.303817270718530263
0.607000000000000428,-3.295327186967768718
0.608000000000000429,-3.286646361658840387
