# Fe111_SULFAMIDHYD-AC
# h[nm],U(h)[kJ/mol]
0.149999999999999994,84.527912328805598463
0.150999999999999995,82.565532777459551994
0.151999999999999996,79.054594058012611413
0.152999999999999997,75.223102739969746722
0.153999999999999998,71.580273416730108238
0.154999999999999999,68.263048286402607800
0.156000000000000000,65.238948467920451435
0.157000000000000001,62.418112381784581544
0.158000000000000002,59.709703885993370420
0.159000000000000002,57.045670520518989122
0.160000000000000003,54.386510263335331672
0.161000000000000004,51.718112295689493862
0.162000000000000005,49.045044928276148255
0.163000000000000006,46.383280060709807913
0.164000000000000007,43.753848649510089786
0.165000000000000008,41.178020772957374618
0.166000000000000009,38.674091963427372320
0.167000000000000010,36.255593679141384200
0.168000000000000010,33.930634757317193362
0.169000000000000011,31.702059031801685052
0.170000000000000012,29.568130810328472791
0.171000000000000013,27.523508613275559753
0.172000000000000014,25.560322780188474923
0.173000000000000015,23.669225362037114024
0.174000000000000016,21.840326640814812009
0.175000000000000017,20.063969900501383847
0.176000000000000018,18.331324589440324502
0.177000000000000018,16.634798530959830742
0.178000000000000019,14.968283543231430954
0.179000000000000020,13.327257034495383792
0.180000000000000021,11.708766115331538771
0.181000000000000022,10.111321649888047602
0.182000000000000023,8.534728412333912217
0.183000000000000024,6.979874899765041718
0.184000000000000025,5.448502982115761561
0.185000000000000026,3.942973893998735768
0.186000000000000026,2.466043414018607827
0.187000000000000027,1.020655649685123567
0.188000000000000028,-0.390238216788680592
0.189000000000000029,-1.763832495397616329
0.190000000000000030,-3.097589313509659270
0.191000000000000031,-4.389330869440956739
0.192000000000000032,-5.637303092985339603
0.193000000000000033,-6.840213127694245721
0.194000000000000034,-7.997243664418999920
0.195000000000000034,-9.108047501270236879
0.196000000000000035,-10.172725832749595298
0.197000000000000036,-11.191793727855246843
0.198000000000000037,-12.166136086097715463
0.199000000000000038,-13.096957098753909676
0.200000000000000039,-13.985725921855282294
0.201000000000000040,-14.834120913370309580
0.202000000000000041,-15.643974420689705340
0.203000000000000042,-16.417219742097763913
0.204000000000000042,-17.155841539579636645
0.205000000000000043,-17.861830658720233345
0.206000000000000044,-18.537144020311941972
0.207000000000000045,-19.183669990894749446
0.208000000000000046,-19.803199417173203756
0.209000000000000047,-20.397402321948597148
0.210000000000000048,-20.967810105605664717
0.211000000000000049,-21.515802975218882409
0.212000000000000050,-22.042602230369062966
0.213000000000000050,-22.549266967822610752
0.214000000000000051,-23.036694723212555402
0.215000000000000052,-23.505625543630134899
0.216000000000000053,-23.956648977531571632
0.217000000000000054,-24.390213474686255779
0.218000000000000055,-24.806637706343142469
0.219000000000000056,-25.206123341918512892
0.220000000000000057,-25.588768851116469705
0.221000000000000058,-25.954583937545471883
0.222000000000000058,-26.303504249926781711
0.223000000000000059,-26.635406058473439117
0.224000000000000060,-26.950120625771610605
0.225000000000000061,-27.247448042548665370
0.226000000000000062,-27.527170338291576002
0.227000000000000063,-27.789063714192149490
0.228000000000000064,-28.032909780899803565
0.229000000000000065,-28.258505715755358523
0.230000000000000066,-28.465673283368943203
0.231000000000000066,-28.654266689500655474
0.232000000000000067,-28.824179261192000467
0.233000000000000068,-28.975348966032765219
0.234000000000000069,-29.107762800437107842
0.235000000000000070,-29.221460090990007075
0.236000000000000071,-29.316534764484639908
0.237000000000000072,-29.393136651398133807
0.238000000000000073,-29.451471894455046652
0.239000000000000073,-29.491802538817562862
0.240000000000000074,-29.514445383535797163
0.241000000000000075,-29.519770175399553835
0.242000000000000076,-29.508197226461646778
0.243000000000000077,-29.480194535445814807
0.244000000000000078,-29.436274491196535052
0.245000000000000079,-29.376990233441130584
0.246000000000000080,-29.302931742579751528
0.247000000000000081,-29.214721726136978930
0.248000000000000081,-29.113011365031354671
0.249000000000000082,-28.998475978063897429
0.250000000000000111,-28.871810658095597546
0.251000000000000112,-28.733725928367459090
0.252000000000000113,-28.584943462394583946
0.253000000000000114,-28.426191905901994517
0.254000000000000115,-28.258202834423816086
0.255000000000000115,-28.081706875502721488
0.256000000000000116,-27.897430019941840129
0.257000000000000117,-27.706090142306543100
0.258000000000000118,-27.508393746869199248
0.259000000000000119,-27.305032951453590329
0.260000000000000120,-27.096682718176584359
0.261000000000000121,-26.883998336907744431
0.262000000000000122,-26.667613164374934343
0.263000000000000123,-26.448136619231394917
0.264000000000000123,-26.226152431063887605
0.265000000000000124,-26.002217139251307287
0.266000000000000125,-25.776858835771577105
0.267000000000000126,-25.550576144487155972
0.268000000000000127,-25.323837428105015590
0.269000000000000128,-25.097080212890951145
0.270000000000000129,-24.870710820305742317
0.271000000000000130,-24.645104194007814158
0.272000000000000131,-24.420603910118998670
0.273000000000000131,-24.197522358260524555
0.274000000000000132,-23.976141080622834778
0.275000000000000133,-23.756711256219766426
0.276000000000000134,-23.539454317481116163
0.277000000000000135,-23.324562686446263626
0.278000000000000136,-23.112200618019937082
0.279000000000000137,-22.902505138030296195
0.280000000000000138,-22.695587064176660164
0.281000000000000139,-22.491532098358511860
0.282000000000000139,-22.290401979330994209
0.283000000000000140,-22.092235685124144595
0.284000000000000141,-21.897050675185948165
0.285000000000000142,-21.704844162756593562
0.286000000000000143,-21.515594408543798011
0.287000000000000144,-21.329262027342956287
0.288000000000000145,-21.145791299824562515
0.289000000000000146,-20.965111482289259470
0.290000000000000147,-20.787138107765411377
0.291000000000000147,-20.611774272389617124
0.292000000000000148,-20.438911901564964069
0.293000000000000149,-20.268432990932055304
0.294000000000000150,-20.100210817710610911
0.295000000000000151,-19.934111118474604041
0.296000000000000152,-19.769993229907498744
0.297000000000000153,-19.607711189547316621
0.298000000000000154,-19.447114793970797564
0.299000000000000155,-19.288050612282823693
0.300000000000000155,-19.130362953170347851
0.301000000000000156,-18.973894784148907178
0.302000000000000157,-18.818488601974699748
0.303000000000000158,-18.663987253516740594
0.304000000000000159,-18.510234706680890326
0.305000000000000160,-18.357076771252046399
0.306000000000000161,-18.204361769772923196
0.307000000000000162,-18.051941158807469634
0.308000000000000163,-17.899670101145954249
0.309000000000000163,-17.747407989696892372
0.310000000000000164,-17.595018923979651504
0.311000000000000165,-17.442372140281392490
0.312000000000000166,-17.289342396674307167
0.313000000000000167,-17.135810314203911986
0.314000000000000168,-16.981662675658547812
0.315000000000000169,-16.826792683414076635
0.316000000000000170,-16.671100177917935525
0.317000000000000171,-16.514491818433278070
0.318000000000000171,-16.356881227708257143
0.319000000000000172,-16.198189102268745643
0.320000000000000173,-16.038343290054960733
0.321000000000000174,-15.877278837135326839
0.322000000000000175,-15.714938005234557750
0.323000000000000176,-15.551270261808856077
0.324000000000000177,-15.386232244389086432
0.325000000000000178,-15.219787700894537252
0.326000000000000179,-15.051907407595709998
0.327000000000000179,-14.882569066374447431
0.328000000000000180,-14.711757182895501828
0.329000000000000181,-14.539462927265319081
0.330000000000000182,-14.365683978710825031
0.331000000000000183,-14.190424355766674935
0.332000000000000184,-14.013694233410708634
0.333000000000000185,-13.835509748537782926
0.334000000000000186,-13.655892795109963345
0.335000000000000187,-13.474870810268047450
0.336000000000000187,-13.292476552635012155
0.337000000000000188,-13.108747873987031340
0.338000000000000189,-12.923727485412451088
0.339000000000000190,-12.737462719023501023
0.340000000000000191,-12.550005286230057067
0.341000000000000192,-12.361411033530247394
0.342000000000000193,-12.171739696717347456
0.343000000000000194,-11.981054654349598820
0.344000000000000195,-11.789422681275869564
0.345000000000000195,-11.596913702958863368
0.346000000000000196,-11.403600551286505294
0.347000000000000197,-11.209558722512721118
0.348000000000000198,-11.014866137921007549
0.349000000000000199,-10.819602907757062127
0.350000000000000200,-10.623851098932117765
0.351000000000000201,-10.427694506954409803
0.352000000000000202,-10.231218432504693538
0.353000000000000203,-10.034509463031008991
0.354000000000000203,-9.837655259699101151
0.355000000000000204,-9.640744349997943274
0.356000000000000205,-9.443865926264260580
0.357000000000000206,-9.247109650356057031
0.358000000000000207,-9.050565464673075766
0.359000000000000208,-8.854323409691623681
0.360000000000000209,-8.658473448152131269
0.361000000000000210,-8.463105296010610346
0.362000000000000210,-8.268308260239322749
0.363000000000000211,-8.074171083537759586
0.364000000000000212,-7.880781795992317207
0.365000000000000213,-7.688227573701570172
0.366000000000000214,-7.496594604364470449
0.367000000000000215,-7.305967959809930967
0.368000000000000216,-7.116431475429355835
0.369000000000000217,-6.928067636457599932
0.370000000000000218,-6.740957471033250492
0.371000000000000218,-6.555180449955626543
0.372000000000000219,-6.370814393043549018
0.373000000000000220,-6.187935381989712269
0.374000000000000221,-6.006617679594402404
0.375000000000000222,-5.826933655252924282
0.376000000000000223,-5.648953716563036132
0.377000000000000224,-5.472746246911377455
0.378000000000000225,-5.298377548891386013
0.379000000000000226,-5.125911793399561489
0.380000000000000226,-4.955410974252224321
0.381000000000000227,-4.786934868160569678
0.382000000000000228,-4.620540999898717693
0.383000000000000229,-4.456284612496498099
0.384000000000000230,-4.294218642286470988
0.385000000000000231,-4.134393698633525460
0.386000000000000232,-3.976858048173898652
0.387000000000000233,-3.821657603390216984
0.388000000000000234,-3.668835915349016652
0.389000000000000234,-3.518434170427666707
0.390000000000000235,-3.370491190858170061
0.391000000000000236,-3.225043438916870286
0.392000000000000237,-3.082125024590073537
0.393000000000000238,-2.941767716547960099
0.394000000000000239,-2.804000956260760624
0.395000000000000240,-2.668851875093909420
0.396000000000000241,-2.536345314221267966
0.397000000000000242,-2.406503847198380619
0.398000000000000242,-2.279347805040802033
0.399000000000000243,-2.154895303655650185
0.400000000000000244,-2.033162273477648885
0.401000000000000245,-1.914162491164993485
0.402000000000000246,-1.797907613213216349
0.403000000000000247,-1.684407211349292055
0.404000000000000248,-1.573668809572034588
0.405000000000000249,-1.465697922708391054
0.406000000000000250,-1.360498096359336495
0.407000000000000250,-1.258070948112835818
0.408000000000000251,-1.158416209905315908
0.409000000000000252,-1.061531771417196124
0.410000000000000253,-0.967413724391621321
0.411000000000000254,-0.876056407769969736
0.412000000000000255,-0.787452453541223507
0.413000000000000256,-0.701592833206531097
0.414000000000000257,-0.618466904763924186
0.415000000000000258,-0.538062460122256891
0.416000000000000258,-0.460365772857037836
0.417000000000000259,-0.385361646224730736
0.418000000000000260,-0.313033461355778697
0.419000000000000261,-0.243363225550146473
0.420000000000000262,-0.176331620603040529
0.421000000000000263,-0.111918051091686177
0.422000000000000264,-0.050100692557703143
0.423000000000000265,0.009143460477130671
0.424000000000000266,0.065838546720427216
0.425000000000000266,0.120009790599779231
0.426000000000000267,0.171683455086804326
0.427000000000000268,0.220886794903971173
0.428000000000000269,0.267648010160649874
0.429000000000000270,0.311996200461865048
0.430000000000000271,0.353961319530359586
0.431000000000000272,0.393574130379976961
0.432000000000000273,0.430866161075552256
0.433000000000000274,0.465869661112072453
0.434000000000000274,0.498617558443280262
0.435000000000000275,0.529143417187589504
0.436000000000000276,0.557481396036762389
0.437000000000000277,0.583666207390681313
0.438000000000000278,0.607733077239290931
0.439000000000000279,0.629717705810783013
0.440000000000000280,0.649656229003079067
0.441000000000000281,0.667585180613821327
0.442000000000000282,0.683541455382088992
0.443000000000000282,0.697562272853550658
0.444000000000000283,0.709685142078821274
0.445000000000000284,0.719947827153371356
0.446000000000000285,0.728388313605790261
0.447000000000000286,0.735044775639575598
0.448000000000000287,0.739955544232475004
0.449000000000000288,0.743159076095888382
0.450000000000000289,0.744693923495645338
0.451000000000000290,0.744598704934324895
0.452000000000000290,0.742912076694074774
0.453000000000000291,0.739672705237863104
0.454000000000000292,0.734919240466050949
0.455000000000000293,0.728690289824273307
0.456000000000000294,0.721024393257628127
0.457000000000000295,0.711959999005476574
0.458000000000000296,0.701535440230114604
0.459000000000000297,0.689788912472188986
0.460000000000000298,0.676758451924606708
0.461000000000000298,0.662481914516527270
0.462000000000000299,0.646996955797903395
0.463000000000000300,0.630341011614963032
0.464000000000000301,0.612551279566150852
0.465000000000000302,0.593664701227808012
0.466000000000000303,0.573717945138223495
0.467000000000000304,0.552747390528585791
0.468000000000000305,0.530789111788610879
0.469000000000000306,0.507878863654676715
0.470000000000000306,0.484052067107784534
0.471000000000000307,0.459343795968398638
0.472000000000000308,0.433788764175106478
0.473000000000000309,0.407421313733745905
0.474000000000000310,0.380275403323531824
0.475000000000000311,0.352384597546398504
0.476000000000000312,0.323782056806011076
0.477000000000000313,0.294500527802334156
0.478000000000000314,0.264572334627969696
0.479000000000000314,0.234029370452169733
0.480000000000000315,0.202903089778530665
0.481000000000000316,0.171224501262267903
0.482000000000000317,0.139024161073060648
0.483000000000000318,0.106332166789394028
0.484000000000000319,0.073178151810435119
0.485000000000000320,0.039591280271460680
0.486000000000000321,0.005600242448989245
0.487000000000000322,-0.028766749358181399
0.488000000000000322,-0.063481964485794601
0.489000000000000323,-0.098518157112285690
0.490000000000000324,-0.133848569031903619
0.491000000000000325,-0.169446932006041245
0.492000000000000326,-0.205287469706059766
0.493000000000000327,-0.241344899260627688
0.494000000000000328,-0.277594432420567250
0.495000000000000329,-0.314011776353892824
0.496000000000000330,-0.350573134083696725
0.497000000000000330,-0.387255204581239243
0.498000000000000331,-0.424035182526570853
0.499000000000000332,-0.460890757748579016
0.500000000000000333,-0.497800114356492407
0.501000000000000334,-0.534741929574418906
0.502000000000000335,-0.571695372290365045
0.503000000000000336,-0.608640101331040517
0.504000000000000337,-0.645556263473497038
0.505000000000000338,-0.682424491204438710
0.506000000000000338,-0.719225900237839277
0.507000000000000339,-0.755942086801326574
0.508000000000000340,-0.792555124701532998
0.509000000000000341,-0.829047562178351627
0.510000000000000342,-0.865402418558008257
0.511000000000000343,-0.901603180714402597
0.512000000000000344,-0.937633799348154051
0.513000000000000345,-0.973478685092418417
0.514000000000000346,-1.009122704454490593
0.515000000000000346,-1.044551175601810211
0.516000000000000347,-1.079749864000931980
0.517000000000000348,-1.114704977917712059
0.518000000000000349,-1.149403163786817617
0.519000000000000350,-1.183831501458339153
0.520000000000000351,-1.217977499329308433
0.521000000000000352,-1.251829089367395786
0.522000000000000353,-1.285374622034153536
0.523000000000000353,-1.318602861114823499
0.524000000000000354,-1.351502978461479820
0.525000000000000355,-1.384064548656268157
0.526000000000000356,-1.416277543601063948
0.527000000000000357,-1.448132327039867828
0.528000000000000358,-1.479619649020065708
0.529000000000000359,-1.510730640298219907
0.530000000000000360,-1.541456806696342552
0.531000000000000361,-1.571790023413950133
0.532000000000000361,-1.601722529301348841
0.533000000000000362,-1.631246921099225755
0.534000000000000363,-1.660356147649585168
0.535000000000000364,-1.689043504082781810
0.536000000000000365,-1.717302625985328346
0.537000000000000366,-1.745127483552922687
0.538000000000000367,-1.772512375733036549
0.539000000000000368,-1.799451924361184840
0.540000000000000369,-1.825941068294918423
0.541000000000000369,-1.851975057549327897
0.542000000000000370,-1.877549447437829144
0.543000000000000371,-1.902660092721710994
0.544000000000000372,-1.927303141771921302
0.545000000000000373,-1.951475030746292472
0.546000000000000374,-1.975172477785412273
0.547000000000000375,-1.998392477230078956
0.548000000000000376,-2.021132293863266760
0.549000000000000377,-2.043389457179285440
0.550000000000000377,-2.065161755682813460
0.551000000000000378,-2.086447231220268428
0.552000000000000379,-2.107244173345893312
0.553000000000000380,-2.127551113724857057
0.554000000000000381,-2.147366820575491886
0.555000000000000382,-2.166690293152730096
0.556000000000000383,-2.185520756274674792
0.557000000000000384,-2.203857654894135987
0.558000000000000385,-2.221700648716889770
0.559000000000000385,-2.239049606868278808
0.560000000000000386,-2.255904602609688503
0.561000000000000387,-2.272265908106386956
0.562000000000000388,-2.288133989248070321
0.563000000000000389,-2.303509500523377440
0.564000000000000390,-2.318393279949581220
0.565000000000000391,-2.332786344058574102
0.566000000000000392,-2.346689882940165894
0.567000000000000393,-2.360105255343641684
0.568000000000000393,-2.373033983838475081
0.569000000000000394,-2.385477750035006395
0.570000000000000395,-2.397438389865817587
0.571000000000000396,-2.408917888928457707
0.572000000000000397,-2.419918377890169836
0.573000000000000398,-2.430442127955135589
0.574000000000000399,-2.440491546394690570
0.575000000000000400,-2.450069172141023266
0.576000000000000401,-2.459177671444615854
0.577000000000000401,-2.467819833595836343
0.578000000000000402,-2.475998566710883697
0.579000000000000403,-2.483716893582328389
0.580000000000000404,-2.490977947594384734
0.581000000000000405,-2.497784968703066877
0.582000000000000406,-2.504141299481265293
0.583000000000000407,-2.510050381228778438
0.584000000000000408,-2.515515750147322205
0.585000000000000409,-2.520541033580388390
0.586000000000000409,-2.525129946317948626
0.587000000000000410,-2.529286286965817254
0.588000000000000411,-2.533013934379511500
0.589000000000000412,-2.536316844162457951
0.590000000000000413,-2.539199045228252238
0.591000000000000414,-2.541664636426771207
0.592000000000000415,-2.543717783233816920
0.593000000000000416,-2.545362714503968338
0.594000000000000417,-2.546603719286347989
0.595000000000000417,-2.547445143702861348
0.596000000000000418,-2.547891387888581161
0.597000000000000419,-2.547946902993837082
0.598000000000000420,-2.547616188247566082
0.599000000000000421,-2.546903788081481324
0.600000000000000422,-2.545814289314582979
0.601000000000000423,-2.544352318397502088
0.602000000000000424,-2.542522538716179614
0.603000000000000425,-2.540329647954377545
0.604000000000000425,-2.537778375514400331
0.605000000000000426,-2.534873479995575885
0.606000000000000427,-2.531619746729835363
0.607000000000000428,-2.528021985373868130
0.608000000000000429,-2.524085027557227079
0.609000000000000430,-2.519813724585785675
0.610000000000000431,-2.515212945199955641
0.611000000000000432,-2.510287573386986715
