# Fe111_METHANESULFINATE-AC
# h[nm],U(h)[kJ/mol]
0.149999999999999994,77.634057924456541855
0.150999999999999995,74.630905946436314480
0.151999999999999996,70.943784823007547402
0.152999999999999997,67.134220841703026394
0.153999999999999998,63.462900236809367982
0.154999999999999999,60.015967157941553012
0.156000000000000000,56.788699825618188299
0.157000000000000001,53.737884581921591121
0.158000000000000002,50.812178065072444610
0.159000000000000002,47.967692638087257251
0.160000000000000003,45.174196992533119044
0.161000000000000004,42.415786813083684592
0.162000000000000005,39.688663897263026570
0.163000000000000006,36.997739645511629192
0.164000000000000007,34.353106229542454741
0.165000000000000008,31.766947551964847207
0.166000000000000009,29.251146596893221385
0.167000000000000010,26.815646204779746142
0.168000000000000010,24.467504006017119167
0.169000000000000011,22.210523443897734808
0.170000000000000012,20.045321893305931837
0.171000000000000013,17.969699398996755946
0.172000000000000014,15.979187247379055492
0.173000000000000015,14.067677421018714767
0.174000000000000016,12.228057381416268967
0.175000000000000017,10.452796784703103583
0.176000000000000018,8.734452122303910215
0.177000000000000018,7.066071221444012451
0.178000000000000019,5.441491925788631612
0.179000000000000020,3.855538331989820655
0.180000000000000021,2.304124096080734319
0.181000000000000022,0.784276036251727149
0.182000000000000023,-0.705906952487515005
0.183000000000000024,-2.167344320924283974
0.184000000000000025,-3.600098978055992660
0.185000000000000026,-5.003523838002374546
0.186000000000000026,-6.376418343882733097
0.187000000000000027,-7.717185494043180327
0.188000000000000028,-9.023981899776867266
0.189000000000000029,-10.294855311971469192
0.190000000000000030,-11.527865790284749892
0.191000000000000031,-12.721188207471765708
0.192000000000000032,-13.873195062749271500
0.193000000000000033,-14.982519619075185702
0.194000000000000034,-16.048100190239061646
0.195000000000000034,-17.069207003508733322
0.196000000000000035,-18.045453476118346714
0.197000000000000036,-18.976793995429240169
0.198000000000000037,-19.863510409940676738
0.199000000000000038,-20.706189447360699774
0.200000000000000039,-21.505693200718816627
0.201000000000000040,-22.263124685641962230
0.202000000000000041,-22.979790290346318926
0.203000000000000042,-23.657160730734389631
0.204000000000000042,-24.296831899609749428
0.205000000000000043,-24.900486772219174725
0.206000000000000044,-25.469859308549256838
0.207000000000000045,-26.006701082380214274
0.208000000000000046,-26.512751172567721625
0.209000000000000047,-26.989709676366185676
0.210000000000000048,-27.439215049532737822
0.211000000000000049,-27.862825344128175686
0.212000000000000050,-28.262003302215525480
0.213000000000000050,-28.638105171274609972
0.214000000000000051,-28.992373033880163291
0.215000000000000052,-29.325930388489677370
0.216000000000000053,-29.639780678321614005
0.217000000000000054,-29.934808439440693917
0.218000000000000055,-30.211782725447221765
0.219000000000000056,-30.471362462771786284
0.220000000000000057,-30.714103395767573090
0.221000000000000058,-30.940466292938292980
0.222000000000000058,-31.150826103255109700
0.223000000000000059,-31.345481773245971624
0.224000000000000060,-31.524666460196471007
0.225000000000000061,-31.688557903337720489
0.226000000000000062,-31.837288742416582465
0.227000000000000063,-31.970956600795972236
0.228000000000000064,-32.089633777589185115
0.229000000000000065,-32.193376419794518029
0.230000000000000066,-32.282233070564210209
0.231000000000000066,-32.356252513323418896
0.232000000000000067,-32.415490853233180246
0.233000000000000068,-32.460017797331040867
0.234000000000000069,-32.489922112507109375
0.235000000000000070,-32.505316256259433771
0.236000000000000071,-32.506340188941663882
0.237000000000000072,-32.493164388025626010
0.238000000000000073,-32.465992094832799353
0.239000000000000073,-32.425060832349757334
0.240000000000000074,-32.370643239251748469
0.241000000000000075,-32.303047270246850076
0.242000000000000076,-32.222615816456112725
0.243000000000000077,-32.129725801903084914
0.244000000000000078,-32.024786813435206057
0.245000000000000079,-31.908239321676138189
0.246000000000000080,-31.780552550042006743
0.247000000000000081,-31.642222047569909193
0.248000000000000081,-31.493767019419134812
0.249000000000000082,-31.335727466524623708
0.250000000000000111,-31.168661183106411983
0.251000000000000112,-30.993140657658948101
0.252000000000000113,-30.809749919744337632
0.253000000000000114,-30.619081371462890218
0.254000000000000115,-30.421732638943222327
0.255000000000000115,-30.218303475633128130
0.256000000000000116,-30.009392745635256716
0.257000000000000117,-29.795595511857946747
0.258000000000000118,-29.577500250375074131
0.259000000000000119,-29.355686209141481413
0.260000000000000120,-29.130720926112747549
0.261000000000000121,-28.903157918888432221
0.262000000000000122,-28.673534555251240619
0.263000000000000123,-28.442370111417858425
0.264000000000000123,-28.210164022458563693
0.265000000000000124,-27.977394327182270928
0.266000000000000125,-27.744516307824106605
0.267000000000000126,-27.511961323108415911
0.268000000000000127,-27.280135831689229065
0.269000000000000128,-27.049420601585808299
0.270000000000000129,-26.820170100025073623
0.271000000000000130,-26.592712057067977582
0.272000000000000131,-26.367347195523841208
0.273000000000000131,-26.144349118935089393
0.274000000000000132,-25.923964348835180971
0.275000000000000133,-25.706412502034631018
0.276000000000000134,-25.491886598362320626
0.277000000000000135,-25.280553489073490425
0.278000000000000136,-25.072554396019498313
0.279000000000000137,-24.868005551649428497
0.280000000000000138,-24.666998929969700782
0.281000000000000139,-24.469603058715360788
0.282000000000000139,-24.275863903178169778
0.283000000000000140,-24.085805812381860136
0.284000000000000141,-23.899432518588326957
0.285000000000000142,-23.716728181450513091
0.286000000000000143,-23.537658468493582120
0.287000000000000144,-23.362171663997202131
0.288000000000000145,-23.190199798765316785
0.289000000000000146,-23.021659793696805707
0.290000000000000147,-22.856454610509931769
0.291000000000000147,-22.694474403417448372
0.292000000000000148,-22.535597665997151751
0.293000000000000149,-22.379692367947900067
0.294000000000000150,-22.226617076862613231
0.295000000000000151,-22.076222060584871798
0.296000000000000152,-21.928350366139774508
0.297000000000000153,-21.782838871644315759
0.298000000000000154,-21.639519308002096665
0.299000000000000155,-21.498219247573686630
0.300000000000000155,-21.358763057383605144
0.301000000000000156,-21.220972814778590987
0.302000000000000157,-21.084669183787561053
0.303000000000000158,-20.949672250752065850
0.304000000000000159,-20.815802318095954604
0.305000000000000160,-20.682880655384188628
0.306000000000000161,-20.550730207084512813
0.307000000000000162,-20.419176256690111160
0.308000000000000163,-20.288047047088433317
0.309000000000000163,-20.157174357270619680
0.310000000000000164,-20.026394035667578919
0.311000000000000165,-19.895546490573899234
0.312000000000000166,-19.764477138279318069
0.313000000000000167,-19.633036809670535661
0.314000000000000168,-19.501082116193824589
0.315000000000000169,-19.368475776182396686
0.316000000000000170,-19.235086902652025032
0.317000000000000171,-19.100791253755019738
0.318000000000000171,-18.965471447156538431
0.319000000000000172,-18.829017139660145119
0.320000000000000173,-18.691325173460608511
0.321000000000000174,-18.552299690443312841
0.322000000000000175,-18.411852215981411973
0.323000000000000176,-18.269901713704566504
0.324000000000000177,-18.126374612727438773
0.325000000000000178,-17.981204808833297193
0.326000000000000179,-17.834333641107949830
0.327000000000000179,-17.685709845512576521
0.328000000000000180,-17.535289486872091658
0.329000000000000181,-17.383035870738140716
0.330000000000000182,-17.228919436563224110
0.331000000000000183,-17.072917633596709663
0.332000000000000184,-16.915014780882721368
0.333000000000000185,-16.755201912706738199
0.334000000000000186,-16.593476610801435100
0.335000000000000187,-16.429842824583378302
0.336000000000000187,-16.264310680651480112
0.337000000000000188,-16.096896282735347228
0.338000000000000189,-15.927621503237904932
0.339000000000000190,-15.756513767471284737
0.340000000000000191,-15.583605831639113504
0.341000000000000192,-15.408935555572202958
0.342000000000000193,-15.232545671177060598
0.343000000000000194,-15.054483547510486119
0.344000000000000195,-14.874800953346134946
0.345000000000000195,-14.693553818052734528
0.346000000000000196,-14.510801991557176649
0.347000000000000197,-14.326609004120417268
0.348000000000000198,-14.141041826609182408
0.349000000000000199,-13.954170631902405475
0.350000000000000200,-13.766068558028473845
0.351000000000000201,-13.576811473586975154
0.352000000000000202,-13.386477745968056396
0.353000000000000203,-13.195148012842537355
0.354000000000000203,-13.002904957357293014
0.355000000000000204,-12.809833087433379006
0.356000000000000205,-12.616018519528168440
0.357000000000000206,-12.421548767188335560
0.358000000000000207,-12.226512534686914790
0.359000000000000208,-12.030999516006197325
0.360000000000000209,-11.835100199397215803
0.361000000000000210,-11.638905677717790610
0.362000000000000210,-11.442507464722936561
0.363000000000000211,-11.245997317455335818
0.364000000000000212,-11.049467064858280452
0.365000000000000213,-10.853008442709738191
0.366000000000000214,-10.656712934953803895
0.367000000000000215,-10.460671621484610938
0.368000000000000216,-10.264975032417790857
0.369000000000000217,-10.069713008865965875
0.370000000000000218,-9.874974570217229797
0.371000000000000218,-9.680847787899223178
0.372000000000000219,-9.487419665596192431
0.373000000000000220,-9.294776025872362624
0.374000000000000221,-9.103001403141920633
0.375000000000000222,-8.912178942913715929
0.376000000000000223,-8.722390307227877670
0.377000000000000224,-8.533715586191421565
0.378000000000000225,-8.346233215510618919
0.379000000000000226,-8.160019899909610075
0.380000000000000226,-7.975150542317324565
0.381000000000000227,-7.791698178697783916
0.382000000000000228,-7.609733918393234653
0.383000000000000229,-7.429326889844081627
0.384000000000000230,-7.250544191544930683
0.385000000000000231,-7.073450848092517340
0.386000000000000232,-6.898109771177527882
0.387000000000000233,-6.724581725369835006
0.388000000000000234,-6.552925298544413302
0.389000000000000234,-6.383196876793571839
0.390000000000000235,-6.215450623669726227
0.391000000000000236,-6.049738463602555960
0.392000000000000237,-5.886110069333563288
0.393000000000000238,-5.724612853211614727
0.394000000000000239,-5.565291962193025910
0.395000000000000240,-5.408190276390834939
0.396000000000000241,-5.253348411018793129
0.397000000000000242,-5.100804721576973400
0.398000000000000242,-4.950595312127693326
0.399000000000000243,-4.802754046512108133
0.400000000000000244,-4.657312562359872565
0.401000000000000245,-4.514300287746990215
0.402000000000000246,-4.373744460358931718
0.403000000000000247,-4.235670149018874397
0.404000000000000248,-4.100100277444030716
0.405000000000000249,-3.967055650095480779
0.406000000000000250,-3.836554979990229874
0.407000000000000250,-3.708614918347281186
0.408000000000000251,-3.583250085942635277
0.409000000000000252,-3.460473106051625614
0.410000000000000253,-3.340294638859979237
0.411000000000000254,-3.222723417228824161
0.412000000000000255,-3.107766283701905330
0.413000000000000256,-2.995428228646965785
0.414000000000000257,-2.885712429426550152
0.415000000000000258,-2.778620290497110012
0.416000000000000258,-2.674151484338704865
0.417000000000000259,-2.572303993120946153
0.418000000000000260,-2.473074151014555522
0.419000000000000261,-2.376456687060957584
0.420000000000000262,-2.282444768516149303
0.421000000000000263,-2.191030044588096803
0.422000000000000264,-2.102202690490458714
0.423000000000000265,-2.015951451738549061
0.424000000000000266,-1.932263688616951969
0.425000000000000266,-1.851125420751045692
0.426000000000000267,-1.772521371718081440
0.427000000000000268,-1.696435013636430567
0.428000000000000269,-1.622848611674653441
0.429000000000000270,-1.551743268424950584
0.430000000000000271,-1.483098968088497394
0.431000000000000272,-1.416894620422934015
0.432000000000000273,-1.353108104405047030
0.433000000000000274,-1.291716311564375719
0.434000000000000274,-1.232695188946036025
0.435000000000000275,-1.176019781663643071
0.436000000000000276,-1.121664275005661127
0.437000000000000277,-1.069602036060850248
0.438000000000000278,-1.019805654830901576
0.439000000000000279,-0.972246984800513858
0.440000000000000280,-0.926897182937375219
0.441000000000000281,-0.883726749096570563
0.442000000000000282,-0.842705564806096374
0.443000000000000282,-0.803802931411917498
0.444000000000000283,-0.766987607563100804
0.445000000000000284,-0.732227846019260165
0.446000000000000285,-0.699491429764243389
0.447000000000000286,-0.668745707411919632
0.448000000000000287,-0.639957627891197145
0.449000000000000288,-0.613093774399273150
0.450000000000000289,-0.588120397613393520
0.451000000000000290,-0.565003448152911703
0.452000000000000290,-0.543708608284757533
0.453000000000000291,-0.524201322866790442
0.454000000000000292,-0.506446829524677455
0.455000000000000293,-0.490410188059133556
0.456000000000000294,-0.476056309081578088
0.457000000000000295,-0.463349981877114181
0.458000000000000296,-0.452255901495094981
0.459000000000000297,-0.442738695068090660
0.460000000000000298,-0.434762947361386765
0.461000000000000298,-0.428293225555650525
0.462000000000000299,-0.423294103266529831
0.463000000000000300,-0.419730183805465284
0.464000000000000301,-0.417566122686861607
0.465000000000000302,-0.416766649387401711
0.466000000000000303,-0.417296588363964549
0.467000000000000304,-0.419120879337020635
0.468000000000000305,-0.422204596847299829
0.469000000000000306,-0.426512969093623184
0.470000000000000306,-0.432011396060539288
0.471000000000000307,-0.438665466944811677
0.472000000000000308,-0.446440976890129515
0.473000000000000309,-0.455303943039848835
0.474000000000000310,-0.465220619917895095
0.475000000000000311,-0.476157514148366712
0.476000000000000312,-0.488081398524439880
0.477000000000000313,-0.500959325437704051
0.478000000000000314,-0.514758639679087526
0.479000000000000314,-0.529446990622846392
0.480000000000000315,-0.544992343805177915
0.481000000000000316,-0.561362991909309939
0.482000000000000317,-0.578527565168899360
0.483000000000000318,-0.596455041201786051
0.484000000000000319,-0.615114754286212873
0.485000000000000320,-0.634476404091704027
0.486000000000000321,-0.654510063876809989
0.487000000000000322,-0.675186188166003509
0.488000000000000322,-0.696475619918060174
0.489000000000000323,-0.718349597198122969
0.490000000000000324,-0.740779759365848056
0.491000000000000325,-0.763738152791827885
0.492000000000000326,-0.787197236114524967
0.493000000000000327,-0.811129885049884036
0.494000000000000328,-0.835509396765763745
0.495000000000000329,-0.860309493833173455
0.496000000000000330,-0.885504327766317045
0.497000000000000330,-0.911068482163239990
0.498000000000000331,-0.936976975458942873
0.499000000000000332,-0.963205263302426951
0.500000000000000333,-0.989729240569384827
0.501000000000000334,-1.016525243021819680
0.502000000000000335,-1.043570048625874991
0.503000000000000336,-1.070840878539011998
0.504000000000000337,-1.098315397777510416
0.505000000000000338,-1.125971715575109666
0.506000000000000338,-1.153788385443459186
0.507000000000000339,-1.181744404944909288
0.508000000000000340,-1.209819215187987185
0.509000000000000341,-1.237992700055669637
0.510000000000000342,-1.266245185176593457
0.511000000000000343,-1.294557436648893001
0.512000000000000344,-1.322910659526457255
0.513000000000000345,-1.351286496076956833
0.514000000000000346,-1.379667023821075311
0.515000000000000346,-1.408034753361960378
0.516000000000000347,-1.436372626013880049
0.517000000000000348,-1.464664011238844710
0.518000000000000349,-1.492892703899758589
0.519000000000000350,-1.521042921338441989
0.520000000000000351,-1.549099300286852721
0.521000000000000352,-1.577046893619364676
0.522000000000000353,-1.604871166954051631
0.523000000000000353,-1.632557995110613280
0.524000000000000354,-1.660093658432348906
0.525000000000000355,-1.687464838979565895
0.526000000000000356,-1.714658616601429486
0.527000000000000357,-1.741662464893235951
0.528000000000000358,-1.768464247045906657
0.529000000000000359,-1.795052211594102998
0.530000000000000360,-1.821414988069584906
0.531000000000000361,-1.847541582565848772
0.532000000000000361,-1.873421373220209407
0.533000000000000362,-1.899044105619133616
0.534000000000000363,-1.924399888132603875
0.535000000000000364,-1.949479187182998619
0.536000000000000365,-1.974272822453908560
0.537000000000000366,-1.998771962044094463
0.538000000000000367,-2.022968117571668056
0.539000000000000368,-2.046853139233355101
0.540000000000000369,-2.070419210823665868
0.541000000000000369,-2.093658844718468526
0.542000000000000370,-2.116564876827537134
0.543000000000000371,-2.139130461520245774
0.544000000000000372,-2.161349066528681195
0.545000000000000373,-2.183214467832088168
0.546000000000000374,-2.204720744526613707
0.547000000000000375,-2.225862273684005022
0.548000000000000376,-2.246633725202932919
0.549000000000000377,-2.267030056656359704
0.550000000000000377,-2.287046508138322665
0.551000000000000378,-2.306678597113360318
0.552000000000000379,-2.325922113271620351
0.553000000000000380,-2.344773113392698338
0.554000000000000381,-2.363227916220984604
0.555000000000000382,-2.381283097355312961
0.556000000000000383,-2.398935484155504394
0.557000000000000384,-2.416182150668316098
0.558000000000000385,-2.433020412575228608
0.559000000000000385,-2.449447822164355415
0.560000000000000386,-2.465462163328639100
0.561000000000000387,-2.481061446592494057
0.562000000000000388,-2.496243904168850669
0.563000000000000389,-2.511007985048501645
0.564000000000000390,-2.525352350123581946
0.565000000000000391,-2.539275867346887150
0.566000000000000392,-2.552777606928675169
0.567000000000000393,-2.565856836572465216
0.568000000000000393,-2.578513016751331488
0.569000000000000394,-2.590745796026058478
0.570000000000000395,-2.602555006406446658
0.571000000000000396,-2.613940658757011981
0.572000000000000397,-2.624902938248213413
0.573000000000000398,-2.635442199854318268
0.574000000000000399,-2.645558963898841043
0.575000000000000400,-2.655253911648609133
0.576000000000000401,-2.664527880957205497
0.577000000000000401,-2.673381861958683992
0.578000000000000402,-2.681816992812283473
0.579000000000000403,-2.689834555498808566
0.580000000000000404,-2.697435971669319255
0.581000000000000405,-2.704622798546727935
0.582000000000000406,-2.711396724880768438
0.583000000000000407,-2.717759566956858830
0.584000000000000408,-2.723713264659246569
0.585000000000000409,-2.729259877588792182
0.586000000000000409,-2.734401581235745837
0.587000000000000410,-2.739140663207762394
0.588000000000000411,-2.743479519513388087
0.589000000000000412,-2.747420650901224004
0.590000000000000413,-2.750966659254888036
0.591000000000000414,-2.754120244043912979
0.592000000000000415,-2.756884198830612753
0.593000000000000416,-2.759261407832983792
0.594000000000000417,-2.761254842543636734
0.595000000000000417,-2.762867558404681567
0.596000000000000418,-2.764102691538567136
0.597000000000000419,-2.764963455534716896
0.598000000000000420,-2.765453138291866786
0.599000000000000421,-2.765575098915932895
0.600000000000000422,-2.765332764673240629
0.601000000000000423,-2.764729627998883110
0.602000000000000424,-2.763769243559994315
0.603000000000000425,-2.762455225373693146
0.604000000000000425,-2.760791243979358711
0.605000000000000426,-2.758781023665014764
0.606000000000000427,-2.756428339747432510
0.607000000000000428,-2.753737015905660446
0.608000000000000429,-2.750710921567584233
