# graphene_PHE
# h[nm],U(h)[kJ/mol]
0.200000000000000011,56.491539358185491437
0.201000000000000012,56.229326341710056170
0.202000000000000013,55.045100110996074250
0.203000000000000014,53.472232809194338188
0.204000000000000015,51.803619259389030560
0.205000000000000016,50.182357434385039596
0.206000000000000016,48.662667961406043560
0.207000000000000017,47.249815883940534889
0.208000000000000018,45.925427360694619949
0.209000000000000019,44.662823652839691135
0.210000000000000020,43.435680267673347998
0.211000000000000021,42.222349500188308014
0.212000000000000022,41.007474744627472774
0.213000000000000023,39.782009780779780783
0.214000000000000024,38.542386205899411777
0.215000000000000024,37.289309652227927927
0.216000000000000025,36.026481951615465960
0.217000000000000026,34.759420571711551418
0.218000000000000027,33.494462423382707073
0.219000000000000028,32.237984597536005538
0.220000000000000029,30.995840914649249953
0.221000000000000030,29.772993897324745660
0.222000000000000031,28.573312209335409051
0.223000000000000032,27.399500371242659469
0.224000000000000032,26.253128273408368187
0.225000000000000033,25.134730998234886101
0.226000000000000034,24.043953601496291128
0.227000000000000035,22.979720038532452264
0.228000000000000036,21.940409880302564005
0.229000000000000037,20.924030565559014860
0.230000000000000038,19.928376530779313924
0.231000000000000039,18.951169590684393995
0.232000000000000040,17.990177408934066250
0.233000000000000040,17.043308836258749039
0.234000000000000041,16.108686357037495185
0.235000000000000042,15.184696939427675844
0.236000000000000043,14.270023294779781153
0.237000000000000044,13.363657982830826398
0.238000000000000045,12.464903008362412606
0.239000000000000046,11.573357594272943416
0.240000000000000047,10.688896729771526495
0.241000000000000048,9.811642917958881327
0.242000000000000048,8.941933314987341674
0.243000000000000049,8.080284187764796400
0.244000000000000050,7.227354337891820357
0.245000000000000051,6.383908860656076989
0.246000000000000052,5.550784340032146602
0.247000000000000053,4.728856331078771902
0.248000000000000054,3.919009754623176800
0.249000000000000055,3.122112628325393047
0.250000000000000056,2.338993384171800027
0.251000000000000056,1.570421874990047151
0.252000000000000057,0.817094050658932813
0.253000000000000058,0.079620186645810637
0.254000000000000059,-0.641483528719281493
0.255000000000000060,-1.345800298507192849
0.256000000000000061,-2.033015202783693187
0.257000000000000062,-2.702915180039554777
0.258000000000000063,-3.355386831149026250
0.259000000000000064,-3.990412374352813707
0.260000000000000064,-4.608064073157604135
0.261000000000000065,-5.208497445817890537
0.262000000000000066,-5.791943546810442101
0.263000000000000067,-6.358700588815280774
0.264000000000000068,-6.909125149383879894
0.265000000000000069,-7.443623180723034416
0.266000000000000070,-7.962641014699722852
0.267000000000000071,-8.466656528976136187
0.268000000000000071,-8.956170614667868790
0.269000000000000072,-9.431699061516622962
0.270000000000000073,-9.893764953604513579
0.271000000000000074,-10.342891647341023287
0.272000000000000075,-10.779596383977946061
0.273000000000000076,-11.204384571333740439
0.274000000000000077,-11.617744753768253219
0.275000000000000078,-12.020144275722739025
0.276000000000000079,-12.412025632277289944
0.277000000000000079,-12.793803490099715958
0.278000000000000080,-13.165862353762353365
0.279000000000000081,-13.528554845576342913
0.280000000000000082,-13.882200561706966369
0.281000000000000083,-14.227085463262884701
0.282000000000000084,-14.563461758162024040
0.283000000000000085,-14.891548227738791610
0.284000000000000086,-15.211530951144435875
0.285000000000000087,-15.523564380479992764
0.286000000000000087,-15.827772720178154842
0.287000000000000088,-16.124251565304341227
0.288000000000000089,-16.413069755080226031
0.289000000000000090,-16.694271399952917534
0.290000000000000091,-16.967878042854600551
0.291000000000000092,-17.233890917848526669
0.292000000000000093,-17.492293272067538368
0.293000000000000094,-17.743052719664234473
0.294000000000000095,-17.986123599354023384
0.295000000000000095,-18.221449310000970456
0.296000000000000096,-18.448964601531187668
0.297000000000000097,-18.668597801229868338
0.298000000000000098,-18.880272958158251129
0.299000000000000099,-19.083911890995274518
0.300000000000000100,-19.279436127047652860
0.301000000000000101,-19.466768722471417874
0.302000000000000102,-19.645835955894462188
0.303000000000000103,-19.816568889622846683
0.304000000000000103,-19.978904794445007553
0.305000000000000104,-20.132788435721135301
0.306000000000000105,-20.278173219959061413
0.307000000000000106,-20.415022202435967102
0.308000000000000107,-20.543308957633243494
0.309000000000000108,-20.663018315312807971
0.310000000000000109,-20.774146965986865609
0.311000000000000110,-20.876703940322908437
0.312000000000000111,-20.970710967693417359
0.313000000000000111,-21.056202719629443010
0.314000000000000112,-21.133226944380055556
0.315000000000000113,-21.201844499122401544
0.316000000000000114,-21.262129286618467461
0.317000000000000115,-21.314168103282554512
0.318000000000000116,-21.358060405716258856
0.319000000000000117,-21.393918002792709387
0.320000000000000118,-21.421864680336248909
0.321000000000000119,-21.442035765355626609
0.322000000000000119,-21.454577636653091588
0.323000000000000120,-21.459647188456550282
0.324000000000000121,-21.457411253512361782
0.325000000000000122,-21.448045991837108915
0.326000000000000123,-21.431736251064883447
0.327000000000000124,-21.408674904044250553
0.328000000000000125,-21.379062169043415054
0.329000000000000126,-21.343104917614518001
0.330000000000000127,-21.301015974853182655
0.331000000000000127,-21.253013416471269181
0.332000000000000128,-21.199319866780200528
0.333000000000000129,-21.140161801363944960
0.334000000000000130,-21.075768857904915166
0.335000000000000131,-21.006373158316907990
0.336000000000000132,-20.932208645035533578
0.337000000000000133,-20.853510434023256437
0.338000000000000134,-20.770514186760991038
0.339000000000000135,-20.683455503224752903
0.340000000000000135,-20.592569337583775280
0.341000000000000136,-20.498089438105999704
0.342000000000000137,-20.400247812520014179
0.343000000000000138,-20.299274219857501578
0.344000000000000139,-20.195395689589332733
0.345000000000000140,-20.088836068670339330
0.346000000000000141,-19.979815596922655629
0.347000000000000142,-19.868550511016032090
0.348000000000000143,-19.755252677144707008
0.349000000000000143,-19.640129252353979439
0.350000000000000144,-19.523382374335994882
0.351000000000000145,-19.405208879392354504
0.352000000000000146,-19.285800048150669284
0.353000000000000147,-19.165341378523358173
0.354000000000000148,-19.044012385308253243
0.355000000000000149,-18.921986425752191252
0.356000000000000150,-18.799430550330562539
0.357000000000000151,-18.676505377936031493
0.358000000000000151,-18.553364994618998907
0.359000000000000152,-18.430156874979857662
0.360000000000000153,-18.307021825278297911
0.361000000000000154,-18.184093947296918969
0.362000000000000155,-18.061500621975557834
0.363000000000000156,-17.939362511817790846
0.364000000000000157,-17.817793581061700081
0.365000000000000158,-17.696901132603471751
0.366000000000000159,-17.576785860662766936
0.367000000000000159,-17.457541918184340091
0.368000000000000160,-17.339256997979802577
0.369000000000000161,-17.222012426625674664
0.370000000000000162,-17.105883270150506803
0.371000000000000163,-16.990938450562531159
0.372000000000000164,-16.877240872290411033
0.373000000000000165,-16.764847557634006137
0.374000000000000166,-16.653809790346912223
0.375000000000000167,-16.544173266500202146
0.376000000000000167,-16.435978251805202888
0.377000000000000168,-16.329259744602815374
0.378000000000000169,-16.224047643757604220
0.379000000000000170,-16.120366920726205251
0.380000000000000171,-16.018237795101295973
0.381000000000000172,-15.917675912964705631
0.382000000000000173,-15.818692527415333160
0.383000000000000174,-15.721294680670226285
0.384000000000000175,-15.625485387168936313
0.385000000000000175,-15.531263817143663886
0.386000000000000176,-15.438625480149022806
0.387000000000000177,-15.347562408076512952
0.388000000000000178,-15.258063337209609500
0.389000000000000179,-15.170113888904912969
0.390000000000000180,-15.083696748514720198
0.391000000000000181,-14.998791842194398427
0.392000000000000182,-14.915376511266192239
0.393000000000000183,-14.833425683837617726
0.394000000000000183,-14.752912043399030395
0.395000000000000184,-14.673806194149870308
0.396000000000000185,-14.596076822827395603
0.397000000000000186,-14.519690856835103077
0.398000000000000187,-14.444613618490240725
0.399000000000000188,-14.370808975231295079
0.400000000000000189,-14.298239485646709213
0.401000000000000190,-14.226866541205586358
0.402000000000000191,-14.156650503589649048
0.403000000000000191,-14.087550837543187043
0.404000000000000192,-14.019526239174558313
0.405000000000000193,-13.952534759658258068
0.406000000000000194,-13.886533924301545539
0.407000000000000195,-13.821480846953642541
0.408000000000000196,-13.757332339748160166
0.409000000000000197,-13.694045018182174900
0.410000000000000198,-13.631575401546310644
0.411000000000000199,-13.569880008731072252
0.412000000000000199,-13.508915449444256041
0.413000000000000200,-13.448638510883721864
0.414000000000000201,-13.389006239917708996
0.415000000000000202,-13.329976020832916106
0.416000000000000203,-13.271505648717473846
0.417000000000000204,-13.213553398552189577
0.418000000000000205,-13.156078090089403432
0.419000000000000206,-13.099039148603853988
0.420000000000000207,-13.042396661604538366
0.421000000000000207,-12.986111431600908972
0.422000000000000208,-12.930145025019793792
0.423000000000000209,-12.874459817373292481
0.424000000000000210,-12.819019034779838506
0.425000000000000211,-12.763786791943314114
0.426000000000000212,-12.708728126696756888
0.427000000000000213,-12.653809031218594683
0.428000000000000214,-12.598996480030647760
0.429000000000000214,-12.544258454887561527
0.430000000000000215,-12.489563966668100647
0.431000000000000216,-12.434883074378680234
0.432000000000000217,-12.380186901379399700
0.433000000000000218,-12.325447648942581935
0.434000000000000219,-12.270638607252990937
0.435000000000000220,-12.215734163958382297
0.436000000000000221,-12.160709810377635876
0.437000000000000222,-12.105542145472778515
0.438000000000000222,-12.050208877689733811
0.439000000000000223,-11.994688824771108315
0.440000000000000224,-11.938961911642547165
0.441000000000000225,-11.883009166472568552
0.442000000000000226,-11.826812715003820031
0.443000000000000227,-11.770355773251488074
0.444000000000000228,-11.713622638662901210
0.445000000000000229,-11.656598679829782483
0.446000000000000230,-11.599270324842574809
0.447000000000000230,-11.541625048374031692
0.448000000000000231,-11.483651357576716734
0.449000000000000232,-11.425338776876838409
0.450000000000000233,-11.366677831744436133
0.451000000000000234,-11.307660031517309918
0.452000000000000235,-11.248277851354005819
0.453000000000000236,-11.188524713388236620
0.454000000000000237,-11.128394967155175621
0.455000000000000238,-11.067883869357112658
0.456000000000000238,-11.006987563033977295
0.457000000000000239,-10.945703056201379511
0.458000000000000240,-10.884028200016823362
0.459000000000000241,-10.821961666531896284
0.460000000000000242,-10.759502926086437213
0.461000000000000243,-10.696652224397732667
0.462000000000000244,-10.633410559396102357
0.463000000000000245,-10.569779657855383093
0.464000000000000246,-10.505761951865197901
0.465000000000000246,-10.441360555189131532
0.466000000000000247,-10.376579239551299239
0.467000000000000248,-10.311422410891264434
0.468000000000000249,-10.245895085625644327
0.469000000000000250,-10.180002866952339247
0.470000000000000251,-10.113751921231626696
0.471000000000000252,-10.047148954476330829
0.472000000000000253,-9.980201188981636662
0.473000000000000254,-9.912916340122889025
0.474000000000000254,-9.845302593348517206
0.475000000000000255,-9.777368581392995139
0.476000000000000256,-9.709123361733571045
0.477000000000000257,-9.640576394312548203
0.478000000000000258,-9.571737519545521877
0.479000000000000259,-9.502616936634504796
0.480000000000000260,-9.433225182203393899
0.481000000000000261,-9.363573109271722927
0.482000000000000262,-9.293671866581608043
0.483000000000000262,-9.223532878291178960
0.484000000000000263,-9.153167824046755996
0.485000000000000264,-9.082588619444772249
0.486000000000000265,-9.011807396893313893
0.487000000000000266,-8.940836486882014711
0.488000000000000267,-8.869688399668056888
0.489000000000000268,-8.798375807385024672
0.490000000000000269,-8.726911526580270362
0.491000000000000270,-8.655308501185794867
0.492000000000000270,-8.583579785926403360
0.493000000000000271,-8.511738530168500461
0.494000000000000272,-8.439797962211724069
0.495000000000000273,-8.367771374024995268
0.496000000000000274,-8.295672106428041204
0.497000000000000275,-8.223513534718387419
0.498000000000000276,-8.151309054743512306
0.499000000000000277,-8.079072069417133406
0.500000000000000222,-8.006815975677920250
0.501000000000000334,-7.934554151888595364
0.502000000000000224,-7.862299945672769574
0.503000000000000336,-7.790066662186231561
0.504000000000000226,-7.717867552819451582
0.505000000000000338,-7.645715804326886023
0.506000000000000227,-7.573624528379211185
0.507000000000000339,-7.501606751533261175
0.508000000000000229,-7.429675405615094874
0.509000000000000341,-7.357843318510330910
0.510000000000000231,-7.286123205356682675
0.511000000000000343,-7.214527660132152853
0.512000000000000233,-7.143069147633312355
0.513000000000000345,-7.071759995836792712
0.514000000000000234,-7.000612388638005612
0.515000000000000346,-6.929638358959643085
0.516000000000000236,-6.858849782223806812
0.517000000000000348,-6.788258370180079382
0.518000000000000238,-6.717875665082937431
0.519000000000000350,-6.647713034210715577
0.520000000000000240,-6.577781664719243970
0.521000000000000352,-6.508092558822359486
0.522000000000000242,-6.438656529292069663
0.523000000000000353,-6.369484195270560534
0.524000000000000243,-6.300585978386767927
0.525000000000000355,-6.231972099169592383
0.526000000000000245,-6.163652573750488806
0.527000000000000357,-6.095637210847412391
0.528000000000000247,-6.027935609022950558
0.529000000000000359,-5.960557154208641961
0.530000000000000249,-5.893511017488258119
0.531000000000000361,-5.826806153132221944
0.532000000000000250,-5.760451296876015093
0.533000000000000362,-5.694454964434742195
0.534000000000000252,-5.628825450246904616
0.535000000000000364,-5.563570826439653949
0.536000000000000254,-5.498698942008739543
0.537000000000000366,-5.434217422205449566
0.538000000000000256,-5.370133668124092097
0.539000000000000368,-5.306454856482369031
0.540000000000000258,-5.243187939588377589
0.541000000000000369,-5.180339645486816025
0.542000000000000259,-5.117916478278284664
0.543000000000000371,-5.055924718604531520
0.544000000000000261,-4.994370424293572697
0.545000000000000373,-4.933259431157984487
0.546000000000000263,-4.872597353940383513
0.547000000000000375,-4.812389587399477975
0.548000000000000265,-4.752641307531296988
0.549000000000000377,-4.693357472918888718
0.550000000000000266,-4.634542826205376720
0.551000000000000378,-4.576201895684109289
0.552000000000000268,-4.518338997000748591
0.553000000000000380,-4.460958234961492685
0.554000000000000270,-4.404063505442407767
0.555000000000000382,-4.347658497394309762
0.556000000000000272,-4.291746694938484374
0.557000000000000384,-4.236331379547848996
0.558000000000000274,-4.181415632309135155
0.559000000000000385,-4.127002336260926718
0.560000000000000275,-4.073094178803366994
0.561000000000000387,-4.019693654174646191
0.562000000000000277,-3.966803065990231580
0.563000000000000389,-3.914424529840327516
0.564000000000000279,-3.862559975941627588
0.565000000000000391,-3.811211151839195566
0.566000000000000281,-3.760379625154683048
0.567000000000000393,-3.710066786376970960
0.568000000000000282,-3.660273851691780322
0.569000000000000394,-3.611001865846334535
0.570000000000000284,-3.562251705046077799
0.571000000000000396,-3.514024079879641160
0.572000000000000286,-3.466319538269257983
0.573000000000000398,-3.419138468443095213
0.574000000000000288,-3.372481101926837255
0.575000000000000400,-3.326347516551335648
0.576000000000000290,-3.280737639473698231
0.577000000000000401,-3.235651250208923635
0.578000000000000291,-3.191087983669666173
0.579000000000000403,-3.147047333211363984
0.580000000000000293,-3.103528653680592608
0.581000000000000405,-3.060531164463967002
0.582000000000000295,-3.018053952535725948
0.583000000000000407,-2.976095975501459101
0.584000000000000297,-2.934656064636247841
0.585000000000000409,-2.893732927914951958
0.586000000000000298,-2.853325153033016370
0.587000000000000410,-2.813431210415676009
0.588000000000000300,-2.774049456214146669
0.589000000000000412,-2.735178135286811862
0.590000000000000302,-2.696815384164115592
0.591000000000000414,-2.658959233995441096
0.592000000000000304,-2.621607613476671705
0.593000000000000416,-2.584758351756930139
0.594000000000000306,-2.548409181323388673
0.595000000000000417,-2.512557740862702893
0.596000000000000307,-2.477201578098091606
0.597000000000000419,-2.442338152600803003
0.598000000000000309,-2.407964838575090472
0.599000000000000421,-2.374078927615525636
0.600000000000000311,-2.340677631435940320
0.601000000000000423,-2.307758084568892087
0.602000000000000313,-2.275317347035145321
0.603000000000000425,-2.243352406982010994
0.604000000000000314,-2.211860183290331072
0.605000000000000426,-2.180837528148927174
0.606000000000000316,-2.150281229596402888
0.607000000000000428,-2.120188014029309898
0.608000000000000318,-2.090554548676531343
0.609000000000000430,-2.061377444039099949
0.610000000000000320,-2.032653256295304800
0.611000000000000432,-2.004378489670435304
0.612000000000000322,-1.976549598771075056
0.613000000000000433,-1.949162990883404500
0.614000000000000323,-1.922215028235437329
0.615000000000000435,-1.895702030222811585
0.616000000000000325,-1.869620275598046444
0.617000000000000437,-1.843966004623003752
0.618000000000000327,-1.818735421184519030
0.619000000000000439,-1.793924694872985670
0.620000000000000329,-1.769529963023946051
0.621000000000000441,-1.745547332722532818
0.622000000000000330,-1.721972882770831603
0.623000000000000442,-1.698802665618077246
0.624000000000000332,-1.676032709253850950
0.625000000000000444,-1.653659019064185554
0.626000000000000334,-1.631677579650798959
0.627000000000000446,-1.610084356613447509
0.628000000000000336,-1.588875298295609806
0.629000000000000448,-1.568046337493567144
0.630000000000000338,-1.547593393129157002
0.631000000000000449,-1.527512371886217579
0.632000000000000339,-1.507799169811105733
0.633000000000000451,-1.488449673877353163
0.634000000000000341,-1.469459763514802342
0.635000000000000453,-1.450825312103388054
0.636000000000000343,-1.432542188431881858
0.637000000000000455,-1.414606258121846594
0.638000000000000345,-1.397013385017118470
0.639000000000000457,-1.379759432539035213
0.640000000000000346,-1.362840265007861706
0.641000000000000458,-1.346251748930571646
0.642000000000000348,-1.329989754255468615
0.643000000000000460,-1.314050155593840419
0.644000000000000350,-1.298428833409154937
0.645000000000000462,-1.283121675173988452
0.646000000000000352,-1.268124576495206046
0.647000000000000464,-1.253433442207616766
0.648000000000000353,-1.239044187436650901
0.649000000000000465,-1.224952738630242788
0.650000000000000355,-1.211155034560523536
0.651000000000000467,-1.197647027295517308
0.652000000000000357,-1.184424683141403589
0.653000000000000469,-1.171483983555623665
0.654000000000000359,-1.158820926031345788
0.655000000000000471,-1.146431524953573033
0.656000000000000361,-1.134311812427462041
0.657000000000000473,-1.122457839079097131
0.658000000000000362,-1.110865674829291327
