# graphene_BUTENE2-AC
# h[nm],U(h)[kJ/mol]
0.149999999999999994,68.025671758684936208
0.150999999999999995,65.117872134366322712
0.151999999999999996,63.473756269400254837
0.152999999999999997,62.114047471496427022
0.153999999999999998,60.675881190808013343
0.154999999999999999,59.088964532019566889
0.156000000000000000,57.399275774177930032
0.157000000000000001,55.680209858739566187
0.158000000000000002,53.993487987690322427
0.159000000000000002,52.376762598677508720
0.160000000000000003,50.844233231975366039
0.161000000000000004,49.392502688305008007
0.162000000000000005,48.007541204065610430
0.163000000000000006,46.670794365813080162
0.164000000000000007,45.363705641205356756
0.165000000000000008,44.070581412592353843
0.166000000000000009,42.780036089927392595
0.167000000000000010,41.485364894713299577
0.168000000000000010,40.184194617062608756
0.169000000000000011,38.877714170857416320
0.170000000000000012,37.569719823415425708
0.171000000000000013,36.265642471412178338
0.172000000000000014,34.971665076747534329
0.173000000000000015,33.693990761567384595
0.174000000000000016,32.438286454165165651
0.175000000000000017,31.209302188690013935
0.176000000000000018,30.010650347422888728
0.177000000000000018,28.844720311638628374
0.178000000000000019,27.712700309427827250
0.179000000000000020,26.614678134627929751
0.180000000000000021,25.549794583128935699
0.181000000000000022,24.516426929731316875
0.182000000000000023,23.512383830880430935
0.183000000000000024,22.535097185096010008
0.184000000000000025,21.581800387142802578
0.185000000000000026,20.649685880690537232
0.186000000000000026,19.736037852160240647
0.187000000000000027,18.838338289389636060
0.188000000000000028,17.954346472327372908
0.189000000000000029,17.082153317124813441
0.190000000000000030,16.220212922902469188
0.191000000000000031,15.367354241223782907
0.192000000000000032,14.522776070610422749
0.193000000000000033,13.686028636522735269
0.194000000000000034,12.856984908553096503
0.195000000000000034,12.035804580652042617
0.196000000000000035,11.222893338356076498
0.197000000000000036,10.418859692640102921
0.198000000000000037,9.624471299357258758
0.199000000000000038,8.840612326021112466
0.200000000000000039,8.068243088192827983
0.201000000000000040,7.308362865630326333
0.202000000000000041,6.561976529579931494
0.203000000000000042,5.830065370139157821
0.204000000000000042,5.113562307225612003
0.205000000000000043,4.413331499421230930
0.206000000000000044,3.730152229708569855
0.207000000000000045,3.064706842996359981
0.208000000000000046,2.417572434004209292
0.209000000000000047,1.789215932000950859
0.210000000000000048,1.179992197510941532
0.211000000000000049,0.590144731982630288
0.212000000000000050,0.019808601333525643
0.213000000000000050,-0.530984814692497809
0.214000000000000051,-1.062301615930122622
0.215000000000000052,-1.574298060878236871
0.216000000000000053,-2.067212444545027950
0.217000000000000054,-2.541356455778067236
0.218000000000000055,-2.997106261317893594
0.219000000000000056,-3.434893530305695553
0.220000000000000057,-3.855196580326663902
0.221000000000000058,-4.258531794940052961
0.222000000000000058,-4.645445433528314183
0.223000000000000059,-5.016505927512866947
0.224000000000000060,-5.372296732739977543
0.225000000000000061,-5.713409786229048493
0.226000000000000062,-6.040439596506862685
0.227000000000000063,-6.353977980368037848
0.228000000000000064,-6.654609444994255441
0.229000000000000065,-6.942907202788148879
0.230000000000000066,-7.219429796857902204
0.231000000000000066,-7.484718307640480184
0.232000000000000067,-7.739294105476682617
0.233000000000000068,-7.983657109853718126
0.234000000000000069,-8.218284513315870399
0.235000000000000070,-8.443629926523859908
0.236000000000000071,-8.660122900441077576
0.237000000000000072,-8.868168781976137893
0.238000000000000073,-9.068148860461953120
0.239000000000000073,-9.260420763964702928
0.240000000000000074,-9.445319066468272240
0.241000000000000075,-9.623156069358925535
0.242000000000000076,-9.794222723245800566
0.243000000000000077,-9.958789658911605613
0.244000000000000078,-10.117108299022365969
0.245000000000000079,-10.269412025075158823
0.246000000000000080,-10.415917376878274681
0.247000000000000081,-10.556825264598968417
0.248000000000000081,-10.692322176046419102
0.249000000000000082,-10.822581364357400702
0.250000000000000111,-10.947764003601461624
0.251000000000000112,-11.068020302006678079
0.252000000000000113,-11.183490564520951693
0.253000000000000114,-11.294306198260171570
0.254000000000000115,-11.400590656056632355
0.255000000000000115,-11.502460314808347519
0.256000000000000116,-11.600025286649257694
0.257000000000000117,-11.693390162117184516
0.258000000000000118,-11.782654685499247549
0.259000000000000119,-11.867914363392420896
0.260000000000000120,-11.949261008239837167
0.261000000000000121,-12.026783219200828157
0.262000000000000122,-12.100566803196093346
0.263000000000000123,-12.170695139347888158
0.264000000000000123,-12.237249490320371237
0.265000000000000124,-12.300309264265580467
0.266000000000000125,-12.359952231207410378
0.267000000000000126,-12.416254697756459180
0.268000000000000127,-12.469291644053376089
0.269000000000000128,-12.519136826793637596
0.270000000000000129,-12.565862852101215452
0.271000000000000130,-12.609541221898824759
0.272000000000000131,-12.650242357274319005
0.273000000000000131,-12.688035602172769600
0.274000000000000132,-12.722989210556216122
0.275000000000000133,-12.755170319973364812
0.276000000000000134,-12.784644914273055605
0.277000000000000135,-12.811477777981931325
0.278000000000000136,-12.835732444652100170
0.279000000000000137,-12.857471141270304216
0.280000000000000138,-12.876754730609542676
0.281000000000000139,-12.893642653198551074
0.282000000000000139,-12.908192870385912343
0.283000000000000140,-12.920461809784928420
0.284000000000000141,-12.930504314204037897
0.285000000000000142,-12.938373594996136262
0.286000000000000143,-12.944121190599023663
0.287000000000000144,-12.947796930889074574
0.288000000000000145,-12.949448907831506261
0.289000000000000146,-12.949123452782028920
0.290000000000000147,-12.946865120678452854
0.291000000000000147,-12.942716681254186284
0.292000000000000148,-12.936719117310744309
0.293000000000000149,-12.928911630000587962
0.294000000000000150,-12.919331650996820571
0.295000000000000151,-12.908014861360197045
0.296000000000000152,-12.894995216856816711
0.297000000000000153,-12.880304979431627999
0.298000000000000154,-12.863974754501967368
0.299000000000000155,-12.846033533702229334
0.300000000000000155,-12.826508742684245234
0.301000000000000156,-12.805426293557758299
0.302000000000000157,-12.782810641541008323
0.303000000000000158,-12.758684845382136430
0.304000000000000159,-12.733070631107882065
0.305000000000000160,-12.705988458655562923
0.306000000000000161,-12.677457590948126409
0.307000000000000162,-12.647496164979038724
0.308000000000000163,-12.616121264483435738
0.309000000000000163,-12.583348993784591485
0.310000000000000164,-12.549194552419420390
0.311000000000000165,-12.513672310162762713
0.312000000000000166,-12.476795882088735468
0.313000000000000167,-12.438578203326080995
0.314000000000000168,-12.399031603184813122
0.315000000000000169,-12.358167878352189106
0.316000000000000170,-12.315998364877364324
0.317000000000000171,-12.272534008685521911
0.318000000000000171,-12.227785434383967811
0.319000000000000172,-12.181763012144285696
0.320000000000000173,-12.134476922465777804
0.321000000000000174,-12.085937218646618518
0.322000000000000175,-12.036153886809376701
0.323000000000000176,-11.985136903347832771
0.324000000000000177,-11.932896289680993362
0.325000000000000178,-11.879442164218870559
0.326000000000000179,-11.824784791462700895
0.327000000000000179,-11.768934628178735480
0.328000000000000180,-11.711902366601293579
0.329000000000000181,-11.653698974636075292
0.330000000000000182,-11.594335733048632520
0.331000000000000183,-11.533824269637053206
0.332000000000000184,-11.472176590399852714
0.333000000000000185,-11.409405107722218276
0.334000000000000186,-11.345522665614236502
0.335000000000000187,-11.280542562044768573
0.336000000000000187,-11.214478568423659866
0.337000000000000188,-11.147344946293108237
0.338000000000000189,-11.079156461296513214
0.339000000000000190,-11.009928394499640447
0.340000000000000191,-10.939676551144680516
0.341000000000000192,-10.868417266923227515
0.342000000000000193,-10.796167411858105467
0.343000000000000194,-10.722944391888235671
0.344000000000000195,-10.648766148253349328
0.345000000000000195,-10.573651154778390904
0.346000000000000196,-10.497618413158907202
0.347000000000000197,-10.420687446350454408
0.348000000000000198,-10.342878290165964827
0.349000000000000199,-10.264211483185288643
0.350000000000000200,-10.184708055081397760
0.351000000000000201,-10.104389513467225470
0.352000000000000202,-10.023277829366461944
0.353000000000000203,-9.941395421410515354
0.354000000000000203,-9.858765138862620958
0.355000000000000204,-9.775410243568174451
0.356000000000000205,-9.691354390928777818
0.357000000000000206,-9.606621609995229960
0.358000000000000207,-9.521236282772241211
0.359000000000000208,-9.435223122825501463
0.360000000000000209,-9.348607153278738480
0.361000000000000210,-9.261413684285910719
0.362000000000000210,-9.173668290060556174
0.363000000000000211,-9.085396785541522746
0.364000000000000212,-8.996625202771257435
0.365000000000000213,-8.907379767059479647
0.366000000000000214,-8.817686873002282155
0.367000000000000215,-8.727573060423189588
0.368000000000000216,-8.637064990299780476
0.369000000000000217,-8.546189420736018505
0.370000000000000218,-8.454973183037569839
0.371000000000000218,-8.363443157943859063
0.372000000000000219,-8.271626252067786567
0.373000000000000220,-8.179549374590777688
0.374000000000000221,-8.087239414257805237
0.375000000000000222,-7.994723216714009872
0.376000000000000223,-7.902027562221658918
0.377000000000000224,-7.809179143793278044
0.378000000000000225,-7.716204545773932111
0.379000000000000226,-7.623130222902972264
0.380000000000000226,-7.529982479882922242
0.381000000000000227,-7.436787451480446620
0.382000000000000228,-7.343571083182091286
0.383000000000000229,-7.250359112424907160
0.384000000000000230,-7.157177050419680775
0.385000000000000231,-7.064050164582613256
0.386000000000000232,-6.971003461588651362
0.387000000000000233,-6.878061671058060433
0.388000000000000234,-6.785249229885513600
0.389000000000000234,-6.692590267219453715
0.390000000000000235,-6.600108590097269357
0.391000000000000236,-6.507827669740580134
0.392000000000000237,-6.415770628512875717
0.393000000000000238,-6.323960227540641021
0.394000000000000239,-6.232418854997268554
0.395000000000000240,-6.141168515048002874
0.396000000000000241,-6.050230817452747267
0.397000000000000242,-5.959626967822287291
0.398000000000000242,-5.869377758522590582
0.399000000000000243,-5.779503560220565106
0.400000000000000244,-5.690024314063737876
0.401000000000000245,-5.600959524485621621
0.402000000000000246,-5.512328252627360925
0.403000000000000247,-5.424149110365692472
0.404000000000000248,-5.336440254936609229
0.405000000000000249,-5.249219384143264833
0.406000000000000250,-5.162503732136275225
0.407000000000000250,-5.076310065753913747
0.408000000000000251,-4.990654681409308679
0.409000000000000252,-4.905553402511339200
0.410000000000000253,-4.821021577405436354
0.411000000000000254,-4.737074077820413009
0.412000000000000255,-4.653725297806926342
0.413000000000000256,-4.570989153153128370
0.414000000000000257,-4.488879081262763471
0.415000000000000258,-4.407408041480922023
0.416000000000000258,-4.326588515852468397
0.417000000000000259,-4.246432510298113527
0.418000000000000260,-4.166951556193152939
0.419000000000000261,-4.088156712333642417
0.420000000000000262,-4.010058567275158303
0.421000000000000263,-3.932667242029002530
0.422000000000000264,-3.855992393100996285
0.423000000000000265,-3.780043215857985750
0.424000000000000266,-3.704828448207469371
0.425000000000000266,-3.630356374575641976
0.426000000000000267,-3.556634830169588923
0.427000000000000268,-3.483671205509311086
0.428000000000000269,-3.411472451215641577
0.429000000000000270,-3.340045083040211971
0.430000000000000271,-3.269395187123860236
0.431000000000000272,-3.199528425470176352
0.432000000000000273,-3.130450041621049007
0.433000000000000274,-3.062164866521437379
0.434000000000000274,-2.994677324560672371
0.435000000000000275,-2.927991439778141469
0.436000000000000276,-2.862110842221250451
0.437000000000000277,-2.797038774443912690
0.438000000000000278,-2.732778098134217348
0.439000000000000279,-2.669331300860097400
0.440000000000000280,-2.606700502922122631
0.441000000000000281,-2.544887464302945101
0.442000000000000282,-2.483893591703165260
0.443000000000000282,-2.423719945653631580
0.444000000000000283,-2.364367247694653340
0.445000000000000284,-2.305835887612769586
0.446000000000000285,-2.248125930726010413
0.447000000000000286,-2.191237125209133385
0.448000000000000287,-2.135168909450216201
0.449000000000000288,-2.079920419430719480
0.450000000000000289,-2.025490496121078010
0.451000000000000290,-1.971877692884413280
0.452000000000000290,-1.919080282881122868
0.453000000000000291,-1.867096266467449084
0.454000000000000292,-1.815923378581409509
0.455000000000000293,-1.765559096109694082
0.456000000000000294,-1.716000645229540211
0.457000000000000295,-1.667245008719703492
0.458000000000000296,-1.619288933235063066
0.459000000000000297,-1.572128936539556543
0.460000000000000298,-1.525761314692441362
0.461000000000000298,-1.480182149183140172
0.462000000000000299,-1.435387314010157844
0.463000000000000300,-1.391372482699767765
0.464000000000000301,-1.348133135260486171
0.465000000000000302,-1.305664565069518224
0.466000000000000303,-1.263961885687564068
0.467000000000000304,-1.223020037598635756
0.468000000000000305,-1.182833794871806621
0.469000000000000306,-1.143397771741836433
0.470000000000000306,-1.104706429106049104
0.471000000000000307,-1.066754080934807281
0.472000000000000308,-1.029534900593365832
0.473000000000000309,-0.993042927072768200
0.474000000000000310,-0.957272071127967861
0.475000000000000311,-0.922216121321178250
0.476000000000000312,-0.887868749969013438
0.477000000000000313,-0.854223518991669373
0.478000000000000314,-0.821273885663028502
0.479000000000000314,-0.789013208260405885
0.480000000000000315,-0.757434751612870771
0.481000000000000316,-0.726531692547315644
0.482000000000000317,-0.696297125231436387
0.483000000000000318,-0.666724066413029948
0.484000000000000319,-0.637805460555038950
0.485000000000000320,-0.609534184866038276
0.486000000000000321,-0.581903054225771044
0.487000000000000322,-0.554904826005638840
0.488000000000000322,-0.528532204784023074
0.489000000000000323,-0.502777846956525942
0.490000000000000324,-0.477634365241189296
0.491000000000000325,-0.453094333078971956
0.492000000000000326,-0.429150288929712076
0.493000000000000327,-0.405794740464039627
0.494000000000000328,-0.383020168651649895
0.495000000000000329,-0.360819031746484775
0.496000000000000330,-0.339183769169445370
0.497000000000000330,-0.318106805289282091
0.498000000000000331,-0.297580553102429979
0.499000000000000332,-0.277597417812566416
0.500000000000000333,-0.258149800310748412
0.501000000000000334,-0.239230100557035474
0.502000000000000335,-0.220830720864544056
0.503000000000000336,-0.202944069086965551
0.504000000000000337,-0.185562561710535784
0.505000000000000338,-0.168678626851597402
0.506000000000000338,-0.152284707160849908
0.507000000000000339,-0.136373262635422848
0.508000000000000340,-0.120936773340012627
0.509000000000000341,-0.105967742038247700
0.510000000000000342,-0.091458696735564879
0.511000000000000343,-0.077402193134833014
0.512000000000000344,-0.063790817006042638
0.513000000000000345,-0.050617186471355213
0.514000000000000346,-0.037873954206848498
0.515000000000000346,-0.025553809562301695
0.516000000000000347,-0.013649480600358827
0.517000000000000348,-0.002153736056501236
0.518000000000000349,0.008940612778887112
0.519000000000000350,0.019640710254888449
0.520000000000000351,0.029953654629481651
0.521000000000000352,0.039886496412670877
0.522000000000000353,0.049446236781847723
0.523000000000000353,0.058639826068042800
0.524000000000000354,0.067474162311600694
0.525000000000000355,0.075956089885916150
0.526000000000000356,0.084092398187811807
0.527000000000000357,0.091889820393131927
0.528000000000000358,0.099355032276209607
0.529000000000000359,0.106494651091755738
0.530000000000000360,0.113315234517817470
0.531000000000000361,0.119823279658413079
0.532000000000000361,0.126025222104499790
0.533000000000000362,0.131927435051849423
0.534000000000000363,0.137536228474549799
0.535000000000000364,0.142857848352756306
0.536000000000000365,0.147898475953349734
0.537000000000000366,0.152664227162210342
0.538000000000000367,0.157161151866783921
0.539000000000000368,0.161395233387641723
0.540000000000000369,0.165372387957780365
0.541000000000000369,0.169098464248361890
0.542000000000000370,0.172579242939654681
0.543000000000000371,0.175820436335969055
0.544000000000000372,0.178827688023304870
0.545000000000000373,0.181606572568565328
0.546000000000000374,0.184162595259117046
0.547000000000000375,0.186501191881534634
0.548000000000000376,0.188627728538351636
0.549000000000000377,0.190547501501712901
0.550000000000000377,0.192265737102800427
0.551000000000000378,0.193787591655878610
0.552000000000000379,0.195118151415960950
0.553000000000000380,0.196262432568933387
0.554000000000000381,0.197225381253155363
0.555000000000000382,0.198011873611467826
0.556000000000000383,0.198626715872600557
0.557000000000000384,0.199074644460983163
0.558000000000000385,0.199360326133979554
0.559000000000000385,0.199488358145568478
0.560000000000000386,0.199463268435569080
0.561000000000000387,0.199289515843428522
0.562000000000000388,0.198971490345698887
0.563000000000000389,0.198513513316316476
0.564000000000000390,0.197919837808792576
0.565000000000000391,0.197194648859463445
0.566000000000000392,0.196342063810986178
0.567000000000000393,0.195366132655229979
0.568000000000000393,0.194270838394785456
0.569000000000000394,0.193060097422285970
0.570000000000000395,0.191737759916809608
0.571000000000000396,0.190307610256567478
0.572000000000000397,0.188773367447172713
0.573000000000000398,0.187138685564786911
0.574000000000000399,0.185407154213400871
0.575000000000000400,0.183582298995618010
0.576000000000000401,0.181667581996236449
0.577000000000000401,0.179666402278002318
0.578000000000000402,0.177582096388879340
0.579000000000000403,0.175417938880249979
0.580000000000000404,0.173177142835409026
0.581000000000000405,0.170862860407774680
0.582000000000000406,0.168478183368275386
0.583000000000000407,0.166026143661286790
0.584000000000000408,0.163509713968661125
0.585000000000000409,0.160931808281259858
0.586000000000000409,0.158295282477486032
0.587000000000000410,0.155602934908351920
0.588000000000000411,0.152857506988548469
0.589000000000000412,0.150061683793084932
0.590000000000000413,0.147218094659017168
0.591000000000000414,0.144329313791827063
0.592000000000000415,0.141397860876029957
0.593000000000000416,0.138426201689571482
0.594000000000000417,0.135416748721624680
0.595000000000000417,0.132371861793396633
0.596000000000000418,0.129293848681534734
0.597000000000000419,0.126184965743805694
0.598000000000000420,0.123047418546646095
0.599000000000000421,0.119883362494274934
0.600000000000000422,0.116694903459002394
0.601000000000000423,0.113484098412430526
0.602000000000000424,0.110252956057230983
0.603000000000000425,0.107003437459178646
0.604000000000000425,0.103737456679171641
0.605000000000000426,0.100456881404952056
0.606000000000000427,0.097163533582225153
0.607000000000000428,0.093859190044972424
0.608000000000000429,0.090545583144629571
0.609000000000000430,0.087224401377977004
0.610000000000000431,0.083897290013408107
0.611000000000000432,0.080565851715432360
0.612000000000000433,0.077231647167162978
0.613000000000000433,0.073896195690554958
