# graphene_PHESCA-AC
# h[nm],U(h)[kJ/mol]
0.149999999999999994,75.352910211831016341
0.150999999999999995,73.215135886179240288
0.151999999999999996,71.008873926512620756
0.152999999999999997,68.841661370984553514
0.153999999999999998,66.733441246662181356
0.154999999999999999,64.673852876583879379
0.156000000000000000,62.648168358843896897
0.157000000000000001,60.646749008766377642
0.158000000000000002,58.666597059806655068
0.159000000000000002,56.709717171434093075
0.160000000000000003,54.780700588304782173
0.161000000000000004,52.884622864584642343
0.162000000000000005,51.025626450266443612
0.163000000000000006,49.206199603268764520
0.164000000000000007,47.427009883494704923
0.165000000000000008,45.687109280090581365
0.166000000000000009,43.984342021765307607
0.167000000000000010,42.315822557662059467
0.168000000000000010,40.678392259750729920
0.169000000000000011,39.069000318280288298
0.170000000000000012,37.484983574137103801
0.171000000000000013,35.924241041989240841
0.172000000000000014,34.385312453834657731
0.173000000000000015,32.867377709931631102
0.174000000000000016,31.370197190024516232
0.175000000000000017,29.894012846451300192
0.176000000000000018,28.439428029090681349
0.177000000000000018,27.007280975024588798
0.178000000000000019,25.598523483009245183
0.179000000000000020,24.214112925159327006
0.180000000000000021,22.854922699527168817
0.181000000000000022,21.521673644982200813
0.182000000000000023,20.214886880698280436
0.183000000000000024,18.934856991934900350
0.184000000000000025,17.681643418512955179
0.185000000000000026,16.455077248106839249
0.186000000000000026,15.254780300040627239
0.187000000000000027,14.080193333121689747
0.188000000000000028,12.930610354545857277
0.189000000000000029,11.805216285457433401
0.190000000000000030,10.703125601155839774
0.191000000000000031,9.623419968724711282
0.192000000000000032,8.565183319776702220
0.193000000000000033,7.527533197154641087
0.194000000000000034,6.509647585131037140
0.195000000000000034,5.510786762241735914
0.196000000000000035,4.530309998579469699
0.197000000000000036,3.567687153133255684
0.198000000000000037,2.622505412387808210
0.199000000000000038,1.694471551694734401
0.200000000000000039,0.783410200020086323
0.201000000000000040,-0.110741348536131670
0.202000000000000041,-0.987941201307555472
0.203000000000000042,-1.848053230591253371
0.204000000000000042,-2.690859167714822142
0.205000000000000043,-3.516071891881531908
0.206000000000000044,-4.323349420419360101
0.207000000000000045,-5.112309157427382011
0.208000000000000046,-5.882542012969436129
0.209000000000000047,-6.633626062238439758
0.210000000000000048,-7.365139471335758969
0.211000000000000049,-8.076672471766446648
0.212000000000000050,-8.767838218149167417
0.213000000000000050,-9.438282412039066926
0.214000000000000051,-10.087691618545715500
0.215000000000000052,-10.715800241231736578
0.216000000000000053,-11.322396154457571527
0.217000000000000054,-11.907325020922629122
0.218000000000000055,-12.470493345805458318
0.219000000000000056,-13.011870337889201110
0.220000000000000057,-13.531488662714162174
0.221000000000000058,-14.029444183503930077
0.222000000000000058,-14.505894792786614644
0.223000000000000059,-14.961058441691269749
0.224000000000000060,-15.395210475267571582
0.225000000000000061,-15.808680381258605863
0.226000000000000062,-16.201848056937535603
0.227000000000000063,-16.575139694260847989
0.228000000000000064,-16.929023378021675228
0.229000000000000065,-17.264004485207845363
0.230000000000000066,-17.580620966642534597
0.231000000000000066,-17.879438584448898553
0.232000000000000067,-18.161046171130902138
0.233000000000000068,-18.426050968276392439
0.234000000000000069,-18.675074095206547042
0.235000000000000070,-18.908746190436676926
0.236000000000000071,-19.127703261670454538
0.237000000000000072,-19.332582773296756784
0.238000000000000073,-19.524019994047577597
0.239000000000000073,-19.702644621644715528
0.240000000000000074,-19.869077695936059769
0.241000000000000075,-20.023928807207873604
0.242000000000000076,-20.167793602058758040
0.243000000000000077,-20.301251585426058455
0.244000000000000078,-20.424864214050248989
0.245000000000000079,-20.539173273826996535
0.246000000000000080,-20.644699531104851786
0.247000000000000081,-20.741941646012296729
0.248000000000000081,-20.831375334309196745
0.249000000000000082,-20.913452763024370284
0.250000000000000111,-20.988602164231981106
0.251000000000000112,-21.057227650701111799
0.252000000000000113,-21.119709216796575646
0.253000000000000114,-21.176402907881357152
0.254000000000000115,-21.227641141547135106
0.255000000000000115,-21.273733164247524030
0.256000000000000116,-21.314965627306314389
0.257000000000000117,-21.351603266794850100
0.258000000000000118,-21.383889672395589798
0.259000000000000119,-21.412048131074861601
0.260000000000000120,-21.436282532156319292
0.261000000000000121,-21.456778321201287696
0.262000000000000122,-21.473703490949809236
0.263000000000000123,-21.487209598440678349
0.264000000000000123,-21.497432798301659318
0.265000000000000124,-21.504494883069572353
0.266000000000000125,-21.508504322257568475
0.267000000000000126,-21.509557292724416300
0.268000000000000127,-21.507738693713886136
0.269000000000000128,-21.503123140714244244
0.270000000000000129,-21.495775933036064487
0.271000000000000130,-21.485753990717366690
0.272000000000000131,-21.473106757035644421
0.273000000000000131,-21.457877063536141549
0.274000000000000132,-21.440101955072851325
0.275000000000000133,-21.419813472903637575
0.276000000000000134,-21.397039394382865396
0.277000000000000135,-21.371803928254884397
0.278000000000000136,-21.344128364971020062
0.279000000000000137,-21.314031681831380638
0.280000000000000138,-21.281531103093065838
0.281000000000000139,-21.246642615489697903
0.282000000000000139,-21.209381439874906761
0.283000000000000140,-21.169762459936961818
0.284000000000000141,-21.127800609134133936
0.285000000000000142,-21.083511217173860786
0.286000000000000143,-21.036910317503959789
0.287000000000000144,-20.988014917403770454
0.288000000000000145,-20.936843232359418465
0.289000000000000146,-20.883414886481208583
0.290000000000000147,-20.827751080775435355
0.291000000000000147,-20.769874731119159605
0.292000000000000148,-20.709810577805775722
0.293000000000000149,-20.647585268534605518
0.294000000000000150,-20.583227416709071633
0.295000000000000151,-20.516767636888538107
0.296000000000000152,-20.448238559208594012
0.297000000000000153,-20.377674824545678689
0.298000000000000154,-20.305113062155491832
0.299000000000000155,-20.230591851461134922
0.300000000000000155,-20.154151669608932451
0.301000000000000156,-20.075834826346405038
0.302000000000000157,-19.995685387710622649
0.303000000000000158,-19.913749089945991244
0.304000000000000159,-19.830073244999137927
0.305000000000000160,-19.744706638866183823
0.306000000000000161,-19.657699423994547061
0.307000000000000162,-19.569103006868218131
0.308000000000000163,-19.478969931832239126
0.309000000000000163,-19.387353762140310920
0.310000000000000164,-19.294308959138270154
0.311000000000000165,-19.199890760426587377
0.312000000000000166,-19.104155057777433058
0.313000000000000167,-19.007158275516104595
0.314000000000000168,-18.908957250012662143
0.315000000000000169,-18.809609110868873216
0.316000000000000170,-18.709171164326445336
0.317000000000000171,-18.607700779366382449
0.318000000000000171,-18.505255276915775653
0.319000000000000172,-18.401891822527506548
0.320000000000000173,-18.297667322850024618
0.321000000000000174,-18.192638326158970585
0.322000000000000175,-18.086860927179703395
0.323000000000000176,-17.980390676389610860
0.324000000000000177,-17.873282493951716532
0.325000000000000178,-17.765590588396129590
0.326000000000000179,-17.657368380133597441
0.327000000000000179,-17.548668429855599271
0.328000000000000180,-17.439542371847498003
0.329000000000000181,-17.330040852216750835
0.330000000000000182,-17.220213472014226141
0.331000000000000183,-17.110108735206615904
0.332000000000000184,-16.999774001438293425
0.333000000000000185,-16.889255443504602283
0.334000000000000186,-16.778598009442841743
0.335000000000000187,-16.667845389134210876
0.336000000000000187,-16.557039985298061424
0.337000000000000188,-16.446222888749325364
0.338000000000000189,-16.335433857781616496
0.339000000000000190,-16.224711301530781782
0.340000000000000191,-16.114092267167372086
0.341000000000000192,-16.003612430762089502
0.342000000000000193,-15.893306091663621515
0.343000000000000194,-15.783206170226099729
0.344000000000000195,-15.673344208720854098
0.345000000000000195,-15.563750375266701909
0.346000000000000196,-15.454453470612117272
0.347000000000000197,-15.345480937603458216
0.348000000000000198,-15.236858873174472961
0.349000000000000199,-15.128612042693692530
0.350000000000000200,-15.020763896508972479
0.351000000000000201,-14.913336588530796689
0.352000000000000202,-14.806350996699089606
0.353000000000000203,-14.699826745182003052
0.354000000000000203,-14.593782228158698189
0.355000000000000204,-14.488234635042237741
0.356000000000000205,-14.383199977003220837
0.357000000000000206,-14.278693114659139596
0.358000000000000207,-14.174727786799078189
0.359000000000000208,-14.071316640018446620
0.360000000000000209,-13.968471259143058205
0.361000000000000210,-13.866202198327092887
0.362000000000000210,-13.764519012714298896
0.363000000000000211,-13.663430290557084135
0.364000000000000212,-13.562943685693074514
0.365000000000000213,-13.463065950283674255
0.366000000000000214,-13.363802967724456749
0.367000000000000215,-13.265159785641788659
0.368000000000000216,-13.167140648895374611
0.369000000000000217,-13.069749032510818765
0.370000000000000218,-12.972987674471429642
0.371000000000000218,-12.876858608302706344
0.372000000000000219,-12.781363195387754672
0.373000000000000220,-12.686502156956169785
0.374000000000000221,-12.592275605693096452
0.375000000000000222,-12.498683076919457235
0.376000000000000223,-12.405723559298275305
0.377000000000000224,-12.313395525025885746
0.378000000000000225,-12.221696959470563115
0.379000000000000226,-12.130625390224611948
0.380000000000000226,-12.040177915539709730
0.381000000000000227,-11.950351232117963463
0.382000000000000228,-11.861141662235130667
0.383000000000000229,-11.772545180174740054
0.384000000000000230,-11.684557437955081838
0.385000000000000231,-11.597173790333851429
0.386000000000000232,-11.510389319077457770
0.387000000000000233,-11.424198856484872877
0.388000000000000234,-11.338597008157936585
0.389000000000000234,-11.253578175012467710
0.390000000000000235,-11.169136574526211447
0.391000000000000236,-11.085266261222232131
0.392000000000000237,-11.001961146387408519
0.393000000000000238,-10.919215017028093939
0.394000000000000239,-10.837021554066080142
0.395000000000000240,-10.755374349779822651
0.396000000000000241,-10.674266924497057829
0.397000000000000242,-10.593692742546235053
0.398000000000000242,-10.513645227475510779
0.399000000000000243,-10.434117776548919920
0.400000000000000244,-10.355103774530370231
0.401000000000000245,-10.276596606767169462
0.402000000000000246,-10.198589671585388317
0.403000000000000247,-10.121076392010115441
0.404000000000000248,-10.044050226824486671
0.405000000000000249,-9.967504680981779330
0.406000000000000250,-9.891433315385407710
0.407000000000000250,-9.815829756052130151
0.408000000000000251,-9.740687702674124537
0.409000000000000252,-9.666000936595981585
0.410000000000000253,-9.591763328222787877
0.411000000000000254,-9.517968843875831197
0.412000000000000255,-9.444611552112551323
0.413000000000000256,-9.371685629527474859
0.414000000000000257,-9.299185366050906509
0.415000000000000258,-9.227105169762342740
0.416000000000000258,-9.155439571235316265
0.417000000000000259,-9.084183227430546737
0.418000000000000260,-9.013330925154109607
0.419000000000000261,-8.942877584097173482
0.420000000000000262,-8.872818259473886471
0.421000000000000263,-8.803148144273654552
0.422000000000000264,-8.733862571143923503
0.423000000000000265,-8.664957013919410755
0.424000000000000266,-8.596427088813545225
0.425000000000000266,-8.528268555287402464
0.426000000000000267,-8.460477316611470400
0.427000000000000268,-8.393049420135046290
0.428000000000000269,-8.325981057277934028
0.429000000000000270,-8.259268563258730822
0.430000000000000271,-8.192908416573679631
0.431000000000000272,-8.126897238239816801
0.432000000000000273,-8.061231790815671872
0.433000000000000274,-7.995908977212669910
0.434000000000000274,-7.930925839309726832
0.435000000000000275,-7.866279556383513061
0.436000000000000276,-7.801967443366312871
0.437000000000000277,-7.737986948943050614
0.438000000000000278,-7.674335653498836507
0.439000000000000279,-7.611011266927941499
0.440000000000000280,-7.548011626314727884
0.441000000000000281,-7.485334693496779046
0.442000000000000282,-7.422978552520151929
0.443000000000000282,-7.360941406996180270
0.444000000000000283,-7.299221577369079839
0.445000000000000284,-7.237817498103206404
0.446000000000000285,-7.176727714798344593
0.447000000000000286,-7.115950881241438708
0.448000000000000287,-7.055485756402307018
0.449000000000000288,-6.995331201381138619
0.450000000000000289,-6.935486176314766382
0.451000000000000290,-6.875949737248733484
0.452000000000000290,-6.816721032981673645
0.453000000000000291,-6.757799301888310239
0.454000000000000292,-6.699183868727066837
0.455000000000000293,-6.640874141437967282
0.456000000000000294,-6.582869607936262746
0.457000000000000295,-6.525169832906958511
0.458000000000000296,-6.467774454605034862
0.459000000000000297,-6.410683181666098740
0.460000000000000298,-6.353895789931724991
0.461000000000000298,-6.297412119293648303
0.462000000000000299,-6.241232070560717382
0.463000000000000300,-6.185355602352171189
0.464000000000000301,-6.129782728020741089
0.465000000000000302,-6.074513512608746169
0.466000000000000303,-6.019548069840161553
0.467000000000000304,-5.964886559151427292
0.468000000000000305,-5.910529182763659684
0.469000000000000306,-5.856476182798559194
0.470000000000000306,-5.802727838440334907
0.471000000000000307,-5.749284463145524882
0.472000000000000308,-5.696146401902786316
0.473000000000000309,-5.643314028544134331
0.474000000000000310,-5.590787743109322250
0.475000000000000311,-5.538567969264631685
0.476000000000000312,-5.486655151777486417
0.477000000000000313,-5.435049754047752479
0.478000000000000314,-5.383752255696861333
0.479000000000000314,-5.332763150215589221
0.480000000000000315,-5.282082942671068260
0.481000000000000316,-5.231712147473809971
0.482000000000000317,-5.181651286205080531
0.483000000000000318,-5.131900885505064736
0.484000000000000319,-5.082461475022092223
0.485000000000000320,-5.033333585423132028
0.486000000000000321,-4.984517746465562560
0.487000000000000322,-4.936014485130321816
0.488000000000000322,-4.887824323816229111
0.489000000000000323,-4.839947778595471206
0.490000000000000324,-4.792385357529900247
0.491000000000000325,-4.745137559047890363
0.492000000000000326,-4.698204870381342602
0.493000000000000327,-4.651587766062495355
0.494000000000000328,-4.605286706479941650
0.495000000000000329,-4.559302136493416313
0.496000000000000330,-4.513634484106660238
0.497000000000000330,-4.468284159197816408
0.498000000000000331,-4.423251552306588508
0.499000000000000332,-4.378537033477525320
0.500000000000000333,-4.334140951158582666
0.501000000000000334,-4.290063631154234614
0.502000000000000335,-4.246305375632240420
0.503000000000000336,-4.202866462183311391
0.504000000000000337,-4.159747142932664232
0.505000000000000338,-4.116947643702657977
0.506000000000000338,-4.074468163225537509
0.507000000000000339,-4.032308872405328870
0.508000000000000340,-3.990469913627950227
0.509000000000000341,-3.948951400118543287
0.510000000000000342,-3.907753415345026404
0.511000000000000343,-3.866876012466863077
0.512000000000000344,-3.826319213828040855
0.513000000000000345,-3.786083010493232592
0.514000000000000346,-3.746167361826129305
0.515000000000000346,-3.706572195108883250
0.516000000000000347,-3.667297405201625171
0.517000000000000348,-3.628342854241105808
0.518000000000000349,-3.589708371377258622
0.519000000000000350,-3.551393752546827098
0.520000000000000351,-3.513398760282902433
0.521000000000000352,-3.475723123559406158
0.522000000000000353,-3.438366537669470091
0.523000000000000353,-3.401328664136658908
0.524000000000000354,-3.364609130658148040
0.525000000000000355,-3.328207531078668957
0.526000000000000356,-3.292123425394389180
0.527000000000000357,-3.256356339785681620
0.528000000000000358,-3.220905766677731208
0.529000000000000359,-3.185771164828168800
0.530000000000000360,-3.150951959440624339
0.531000000000000361,-3.116447542303366625
0.532000000000000361,-3.082257271952017597
0.533000000000000362,-3.048380473855483164
0.534000000000000363,-3.014816440624174199
0.535000000000000364,-2.981564432239590889
0.536000000000000365,-2.948623676304461760
0.537000000000000366,-2.915993368312518985
0.538000000000000367,-2.883672671937069332
0.539000000000000368,-2.851660719337569816
0.540000000000000369,-2.819956611483303899
0.541000000000000369,-2.788559418493457454
0.542000000000000370,-2.757468179992736967
0.543000000000000371,-2.726681905481746604
0.544000000000000372,-2.696199574721449999
0.545000000000000373,-2.666020138130885897
0.546000000000000374,-2.636142517197457291
0.547000000000000375,-2.606565604899062194
0.548000000000000376,-2.577288266137431005
0.549000000000000377,-2.548309338181918626
0.550000000000000377,-2.519627631123102507
0.551000000000000378,-2.491241928335609312
0.552000000000000379,-2.463150986949455223
0.553000000000000380,-2.435353538329349199
0.554000000000000381,-2.407848288561305061
0.555000000000000382,-2.380633918946062799
0.556000000000000383,-2.353709086498636971
0.557000000000000384,-2.327072424453571653
0.558000000000000385,-2.300722542775255341
0.559000000000000385,-2.274658028672850385
0.560000000000000386,-2.248877447119286721
0.561000000000000387,-2.223379341373856288
0.562000000000000388,-2.198162233507930718
0.563000000000000389,-2.173224624933316917
0.564000000000000390,-2.148564996932831761
0.565000000000000391,-2.124181811192658920
0.566000000000000392,-2.100073510336057048
0.567000000000000393,-2.076238518458030313
0.568000000000000393,-2.052675241660550931
0.569000000000000394,-2.029382068587979315
0.570000000000000395,-2.006357370962315478
0.571000000000000396,-1.983599504117892875
0.572000000000000397,-1.961106807535244467
0.573000000000000398,-1.938877605373738877
0.574000000000000399,-1.916910207002752831
0.575000000000000400,-1.895202907530991299
0.576000000000000401,-1.873753988333743292
0.577000000000000401,-1.852561717577760891
0.578000000000000402,-1.831624350743484175
0.579000000000000403,-1.810940131144372689
0.580000000000000404,-1.790507290443109856
0.581000000000000405,-1.770324049164426539
0.582000000000000406,-1.750388617204318153
0.583000000000000407,-1.730699194335465707
0.584000000000000408,-1.711253970708636718
0.585000000000000409,-1.692051127349877504
0.586000000000000409,-1.673088836653326750
0.587000000000000410,-1.654365262869448516
0.588000000000000411,-1.635878562588554574
0.589000000000000412,-1.617626885219427990
0.590000000000000413,-1.599608373462913402
0.591000000000000414,-1.581821163780341877
0.592000000000000415,-1.564263386856650673
0.593000000000000416,-1.546933168058073349
0.594000000000000417,-1.529828627884276981
0.595000000000000417,-1.512947882414888756
0.596000000000000418,-1.496289043750210546
0.597000000000000419,-1.479850220446156550
0.598000000000000420,-1.463629517943206615
0.599000000000000421,-1.447625038989388324
0.600000000000000422,-1.431834884057146429
0.601000000000000423,-1.416257151754099608
0.602000000000000424,-1.400889939227548009
0.603000000000000425,-1.385731342562745327
0.604000000000000425,-1.370779457174849059
0.605000000000000426,-1.356032378194509169
0.606000000000000427,-1.341488200847087420
0.607000000000000428,-1.327145020825400978
0.608000000000000429,-1.313000934656082253
