# graphene_ILESCA-JS
# h[nm],U(h)[kJ/mol]
0.200000000000000011,76.948643270170379083
0.201000000000000012,76.307983387154365573
0.202000000000000013,75.047911225673374247
0.203000000000000014,73.547023325805710670
0.204000000000000015,72.005113694054699636
0.205000000000000016,70.513337521807656572
0.206000000000000016,69.100566295137653583
0.207000000000000017,67.763142740799963804
0.208000000000000018,66.483247992758009559
0.209000000000000019,65.239612802287894056
0.210000000000000020,64.013213443263538238
0.211000000000000021,62.789794660080211486
0.212000000000000022,61.560482910079578289
0.213000000000000023,60.321337238607632969
0.214000000000000024,59.072389933036802745
0.215000000000000024,57.816522584976233645
0.216000000000000025,56.558381270069617131
0.217000000000000026,55.303439236285250047
0.218000000000000027,54.057253403104354561
0.219000000000000028,52.824922247647442930
0.220000000000000029,51.610730064374749304
0.221000000000000030,50.417950891180751682
0.222000000000000031,49.248780836080186418
0.223000000000000032,48.104367453472193006
0.224000000000000032,46.984907354402245971
0.225000000000000033,45.889787129184711034
0.226000000000000034,44.817747077866215477
0.227000000000000035,43.767051653572664804
0.228000000000000036,42.735654609119656300
0.229000000000000037,41.721350429224365541
0.230000000000000038,40.721906659127093064
0.231000000000000039,39.735174199442489851
0.232000000000000040,38.759174559990974274
0.233000000000000040,37.792164507622807434
0.234000000000000041,36.832679570278671122
0.235000000000000042,35.879558539769519143
0.236000000000000043,34.931951514499125722
0.237000000000000044,33.989314200618423456
0.238000000000000045,33.051391198934354065
0.239000000000000046,32.118190890804569904
0.240000000000000047,31.189954337257876915
0.241000000000000048,30.267120352700253250
0.242000000000000048,29.350288632443685799
0.243000000000000049,28.440182520994056858
0.244000000000000050,27.537612719842162079
0.245000000000000051,26.643442959671368442
0.246000000000000052,25.758558409406397516
0.247000000000000053,24.883837367684737529
0.248000000000000054,24.020126583368664797
0.249000000000000055,23.168220381257235374
0.250000000000000056,22.328843626640342279
0.251000000000000056,21.502638446346139744
0.252000000000000057,20.690154532478970850
0.253000000000000058,19.891842785784824343
0.254000000000000059,19.108052005986706945
0.255000000000000060,18.339028303933119446
0.256000000000000061,17.584916892469845351
0.257000000000000062,16.845765907176456722
0.258000000000000063,16.121531912264551067
0.259000000000000064,15.412086758975025447
0.260000000000000064,14.717225481909803619
0.261000000000000065,14.036674941280733009
0.262000000000000066,13.370102944657926258
0.263000000000000067,12.717127609268432664
0.264000000000000068,12.077326754233640216
0.265000000000000069,11.450247140525515732
0.266000000000000070,10.835413404210742172
0.267000000000000071,10.232336555222181218
0.268000000000000071,9.640521939063257051
0.269000000000000072,9.059476582231807740
0.270000000000000073,8.488715863560607033
0.271000000000000074,7.927769473004795842
0.272000000000000075,7.376186636618051295
0.273000000000000076,6.833540601561708172
0.274000000000000077,6.299432388034447605
0.275000000000000078,5.773493826081307567
0.276000000000000079,5.255389904448622751
0.277000000000000079,4.744820466121380420
0.278000000000000080,4.241521291053152787
0.279000000000000081,3.745264611016087652
0.280000000000000082,3.255859104610878241
0.281000000000000083,2.773149422426405941
0.282000000000000084,2.297015293270808112
0.283000000000000085,1.827370262445059623
0.284000000000000086,1.364160112325365493
0.285000000000000087,0.907361014185779857
0.286000000000000087,0.456977458335243614
0.287000000000000088,0.013040007369664458
0.288000000000000089,-0.424397085259016482
0.289000000000000090,-0.855258351995107247
0.290000000000000091,-1.279449646897294013
0.291000000000000092,-1.696860707076750741
0.292000000000000093,-2.107367709762346664
0.293000000000000094,-2.510835798050111034
0.294000000000000095,-2.907121551498291545
0.295000000000000095,-3.296075380754664330
0.296000000000000096,-3.677543828318484032
0.297000000000000097,-4.051371760325801930
0.298000000000000098,-4.417404436883859198
0.299000000000000099,-4.775489450956531101
0.300000000000000100,-5.125478528107938914
0.301000000000000101,-5.467229181541612526
0.302000000000000102,-5.800606218822603743
0.303000000000000103,-6.125483098444007624
0.304000000000000103,-6.441743135994665970
0.305000000000000104,-6.749280561110213128
0.306000000000000105,-7.048001427647477612
0.307000000000000106,-7.337824380620761922
0.308000000000000107,-7.618681284385404595
0.309000000000000108,-7.890517717356866356
0.310000000000000109,-8.153293339222983604
0.311000000000000110,-8.406982137149324075
0.312000000000000111,-8.651572557906490601
0.313000000000000111,-8.887067533167954281
0.314000000000000112,-9.113484405451718118
0.315000000000000113,-9.330854762314443107
0.316000000000000114,-9.539224186463631128
0.317000000000000115,-9.738651929439201993
0.318000000000000116,-9.929210516439528789
0.319000000000000117,-10.110985289735776149
0.320000000000000118,-10.284073897939789433
0.321000000000000119,-10.448585738172015525
0.322000000000000119,-10.604641357922439227
0.323000000000000120,-10.752371823116288141
0.324000000000000121,-10.891918058592475305
0.325000000000000122,-11.023430166880682890
0.326000000000000123,-11.147066730828253611
0.327000000000000124,-11.262994105284139579
0.328000000000000125,-11.371385702698223241
0.329000000000000126,-11.472421277142757390
0.330000000000000127,-11.566286210913043320
0.331000000000000127,-11.653170807517456709
0.332000000000000128,-11.733269594526529289
0.333000000000000129,-11.806780639417640444
0.334000000000000130,-11.873904881228336095
0.335000000000000131,-11.934845480518820438
0.336000000000000132,-11.989807189843128654
0.337000000000000133,-12.038995746640736684
0.338000000000000134,-12.082617290186471237
0.339000000000000135,-12.120877803975805165
0.340000000000000135,-12.153982584677812895
0.341000000000000136,-12.182135738556620908
0.342000000000000137,-12.205539706046405257
0.343000000000000138,-12.224394814963563505
0.344000000000000139,-12.238898862653188715
0.345000000000000140,-12.249246727194549322
0.346000000000000141,-12.255630007632204226
0.347000000000000142,-12.258236693054891830
0.348000000000000143,-12.257250860213307675
0.349000000000000143,-12.252852399249471560
0.350000000000000144,-12.245216767004507119
0.351000000000000145,-12.234514767277378411
0.352000000000000146,-12.220912357324333897
0.353000000000000147,-12.204570479816364781
0.354000000000000148,-12.185644919409906350
0.355000000000000149,-12.164286183033258482
0.356000000000000150,-12.140639402947449810
0.357000000000000151,-12.114844261604767794
0.358000000000000151,-12.087034937300577653
0.359000000000000152,-12.057340069593433185
0.360000000000000153,-12.025882743454870294
0.361000000000000154,-11.992780491102365659
0.362000000000000155,-11.958145310466958833
0.363000000000000156,-11.922083699250121569
0.364000000000000157,-11.884696703531865580
0.365000000000000158,-11.846079979904409640
0.366000000000000159,-11.806323870120809971
0.367000000000000159,-11.765513487267245551
0.368000000000000160,-11.723728812489468964
0.369000000000000161,-11.681044801328395621
0.370000000000000162,-11.637531498746431780
0.371000000000000163,-11.593254161955053760
0.372000000000000164,-11.548273390183990017
0.373000000000000165,-11.502645260564307250
0.374000000000000166,-11.456421469330091867
0.375000000000000167,-11.409649477576881083
0.376000000000000167,-11.362372660849189288
0.377000000000000168,-11.314630461863753652
0.378000000000000169,-11.266458545709728156
0.379000000000000170,-11.217888956901994391
0.380000000000000171,-11.168950277697859974
0.381000000000000172,-11.119667787122104130
0.382000000000000173,-11.070063620178817843
0.383000000000000174,-11.020156926762215477
0.384000000000000175,-10.969964029811059447
0.385000000000000175,-10.919498582283498678
0.386000000000000176,-10.868771722560520487
0.387000000000000177,-10.817792227916394054
0.388000000000000178,-10.766566665724388585
0.389000000000000179,-10.715099542094314700
0.390000000000000180,-10.663393447666289049
0.391000000000000181,-10.611449200311691143
0.392000000000000182,-10.559265984517791637
0.393000000000000183,-10.506841487257149836
0.394000000000000183,-10.454172030166255070
0.395000000000000184,-10.401252697880405407
0.396000000000000185,-10.348077462392973658
0.397000000000000186,-10.294639303327633328
0.398000000000000187,-10.240930324031181087
0.399000000000000188,-10.186941863412895870
0.400000000000000189,-10.132664603473322984
0.401000000000000190,-10.078088672481612775
0.402000000000000191,-10.023203743775711771
0.403000000000000191,-9.967999130173623712
0.404000000000000192,-9.912463873997463537
0.405000000000000193,-9.856586832724033798
0.406000000000000194,-9.800356760287284530
0.407000000000000195,-9.743762384068498150
0.408000000000000196,-9.686792477619507125
0.409000000000000197,-9.629435929173565611
0.410000000000000198,-9.571681806006342441
0.411000000000000199,-9.513519414716899547
0.412000000000000199,-9.454938357505355384
0.413000000000000200,-9.395928584529803729
0.414000000000000201,-9.336480442430506343
0.415000000000000202,-9.276584719114030264
0.416000000000000203,-9.216232684894213989
0.417000000000000204,-9.155416130090491933
0.418000000000000205,-9.094127399187032168
0.419000000000000206,-9.032359421658963328
0.420000000000000207,-8.970105739573753567
0.421000000000000207,-8.907360532077927218
0.422000000000000208,-8.844118636879960249
0.423000000000000209,-8.780375568841739309
0.424000000000000210,-8.716127535790997527
0.425000000000000211,-8.651371451667388968
0.426000000000000212,-8.586104947115076769
0.427000000000000213,-8.520326377633683279
0.428000000000000214,-8.454034829399393658
0.429000000000000214,-8.387230122866577986
0.430000000000000215,-8.319912814259309286
0.431000000000000216,-8.252084195060970018
0.432000000000000217,-8.183746289608141211
0.433000000000000218,-8.114901850893655677
0.434000000000000219,-8.045554354681573983
0.435000000000000220,-7.975707992034925198
0.436000000000000221,-7.905367660354848169
0.437000000000000222,-7.834538953027473163
0.438000000000000222,-7.763228147772724519
0.439000000000000223,-7.691442193786569348
0.440000000000000224,-7.619188697765882701
0.441000000000000225,-7.546475908902420926
0.442000000000000226,-7.473312702930037688
0.443000000000000227,-7.399708565306241326
0.444000000000000228,-7.325673573606954037
0.445000000000000229,-7.251218379210333964
0.446000000000000230,-7.176354188342884299
0.447000000000000230,-7.101092742558597237
0.448000000000000231,-7.025446298718856397
0.449000000000000232,-6.949427608538262469
0.450000000000000233,-6.873049897759116789
0.451000000000000234,-6.796326845014147189
0.452000000000000235,-6.719272560434998987
0.453000000000000236,-6.641901564060924912
0.454000000000000237,-6.564228764099999225
0.455000000000000238,-6.486269435092275160
0.456000000000000238,-6.408039196022158990
0.457000000000000239,-6.329553988424580169
0.458000000000000240,-6.250830054527479085
0.459000000000000241,-6.171883915470334436
0.460000000000000242,-6.092732349636815314
0.461000000000000243,-6.013392371136761838
0.462000000000000244,-5.933881208471168733
0.463000000000000245,-5.854216283411077804
0.464000000000000246,-5.774415190119977837
0.465000000000000246,-5.694495674546703690
0.466000000000000247,-5.614475614114235569
0.467000000000000248,-5.534372997727818877
0.468000000000000249,-5.454205906124172110
0.469000000000000250,-5.373992492581534108
0.470000000000000251,-5.293750964008958171
0.471000000000000252,-5.213499562431268330
0.472000000000000253,-5.133256546885013094
0.473000000000000254,-5.053040175738691353
0.474000000000000254,-4.972868689449610358
0.475000000000000255,-4.892760293767939750
0.476000000000000256,-4.812733143397500690
0.477000000000000257,-4.732805326121428457
0.478000000000000258,-4.652994847399549272
0.479000000000000259,-4.573319615443425690
0.480000000000000260,-4.493797426773637582
0.481000000000000261,-4.414445952262932238
0.482000000000000262,-4.335282723667989835
0.483000000000000262,-4.256325120651408334
0.484000000000000263,-4.177590358294717809
0.485000000000000264,-4.099095475102428665
0.486000000000000265,-4.020857321496198011
0.487000000000000266,-3.942892548797547025
0.488000000000000267,-3.865217598696769841
0.489000000000000268,-3.787848693205117634
0.490000000000000269,-3.710801825086515571
0.491000000000000270,-3.634092748764778058
0.492000000000000270,-3.557736971701364048
0.493000000000000271,-3.481749746238585796
0.494000000000000272,-3.406146061902475708
0.495000000000000273,-3.330940638158988776
0.496000000000000274,-3.256147917617258969
0.497000000000000275,-3.181782059672630059
0.498000000000000276,-3.107856934582361674
0.499000000000000277,-3.034386117966370922
0.500000000000000222,-2.961382885724997749
0.501000000000000334,-2.888860209365803122
0.502000000000000224,-2.816830751730974303
0.503000000000000336,-2.745306863116597107
0.504000000000000226,-2.674300577775380994
0.505000000000000338,-2.603823610793450705
0.506000000000000227,-2.533887355332704594
0.507000000000000339,-2.464502880229007875
0.508000000000000229,-2.395680927937492655
0.509000000000000341,-2.327431912815134840
0.510000000000000231,-2.259765919731788753
0.511000000000000343,-2.192692702999629262
0.512000000000000233,-2.126221685612144974
0.513000000000000345,-2.060361958782730873
0.514000000000000234,-1.995122281773938910
0.515000000000000346,-1.930511082007394297
0.516000000000000236,-1.866536455445578779
0.517000000000000348,-1.803206167235631430
0.518000000000000238,-1.740527652606299380
0.519000000000000350,-1.678508018008451286
0.520000000000000240,-1.617154042490351218
0.521000000000000352,-1.556472179298393099
0.522000000000000242,-1.496468557694526691
0.523000000000000353,-1.437148984981326594
0.524000000000000243,-1.378518948726207061
0.525000000000000355,-1.320583619175904833
0.526000000000000245,-1.263347851853018344
0.527000000000000357,-1.206816190325882943
0.528000000000000247,-1.150992869143964592
0.529000000000000359,-1.095881816930265096
0.530000000000000249,-1.041486659623149569
0.531000000000000361,-0.987810723859492534
0.532000000000000250,-0.934857040491784752
0.533000000000000362,-0.882628348231385695
0.534000000000000252,-0.831127097410913729
0.535000000000000364,-0.780355453858267767
0.536000000000000254,-0.730315302875598760
0.537000000000000366,-0.681008253315971368
0.538000000000000256,-0.632435641751485367
0.539000000000000368,-0.584598536725832063
0.540000000000000258,-0.537497743085409985
0.541000000000000369,-0.491133806382298643
0.542000000000000259,-0.445507017343547584
0.543000000000000371,-0.400617416400468440
0.544000000000000261,-0.356464798272539851
0.545000000000000373,-0.313048716600183741
0.546000000000000263,-0.270368488621194447
0.547000000000000375,-0.228423199885348621
0.548000000000000265,-0.187211709002528398
0.549000000000000377,-0.146732652418994192
0.550000000000000266,-0.106984449217487218
0.551000000000000378,-0.067965305936270551
0.552000000000000268,-0.029673221402884122
0.553000000000000380,0.007894008421828858
0.554000000000000270,0.044738785593355958
0.555000000000000382,0.080863705331030516
0.556000000000000272,0.116271551166967677
0.557000000000000384,0.150965290100416011
0.558000000000000274,0.184948067760751123
0.559000000000000385,0.218223203582819936
0.560000000000000275,0.250794185997604835
0.561000000000000387,0.282664667641585765
0.562000000000000277,0.313838460587622770
0.563000000000000389,0.344319531600323192
0.564000000000000279,0.374111997418555942
0.565000000000000391,0.403220120067798171
0.566000000000000281,0.431648302204735934
0.567000000000000393,0.459401082496559365
0.568000000000000282,0.486483131037084071
0.569000000000000394,0.512899244802032417
0.570000000000000284,0.538654343145254177
0.571000000000000396,0.563753463338052319
0.572000000000000286,0.588201756153180044
0.573000000000000398,0.612004481495464714
0.574000000000000288,0.635167004080447684
0.575000000000000400,0.657694789162667548
0.576000000000000290,0.679593398314970232
0.577000000000000401,0.700868485260165430
0.578000000000000291,0.721525791756223556
0.579000000000000403,0.741571143536235544
0.580000000000000293,0.761010446304072552
0.581000000000000405,0.779849681786842996
0.582000000000000295,0.798094903844916659
0.583000000000000407,0.815752234640446772
0.584000000000000297,0.832827860865024916
0.585000000000000409,0.849328030027205472
0.586000000000000298,0.865259046800456622
0.587000000000000410,0.880627269432082693
0.588000000000000300,0.895439106213552938
0.589000000000000412,0.909701012012692600
0.590000000000000302,0.923419484867999296
0.591000000000000414,0.936601062645382454
0.592000000000000304,0.949252319757599494
0.593000000000000416,0.961379863946485558
0.594000000000000306,0.972990333128096352
0.595000000000000417,0.984090392300871364
0.596000000000000307,0.994686730516800344
0.597000000000000419,1.004786057915536546
0.598000000000000309,1.014395102821400663
0.599000000000000421,1.023520608903194518
0.600000000000000311,1.032169332396549954
0.601000000000000423,1.040348039388750090
0.602000000000000313,1.048063503165626020
0.603000000000000425,1.055322501620450160
0.604000000000000314,1.062131814724267986
0.605000000000000426,1.068498222057578939
0.606000000000000316,1.074428500402782038
0.607000000000000428,1.079929421397131772
0.608000000000000318,1.085007749245670450
0.609000000000000430,1.089670238493740451
0.610000000000000320,1.093923631858562784
0.611000000000000432,1.097774658119380131
0.612000000000000322,1.101230030065644794
0.613000000000000433,1.104296442502680664
0.614000000000000323,1.106980570314265666
0.615000000000000435,1.109289066581531369
0.616000000000000325,1.111228560757586692
0.617000000000000437,1.112805656897225992
0.618000000000000327,1.114026931941090925
0.619000000000000439,1.114898934053646595
0.620000000000000329,1.115428181014277875
0.621000000000000441,1.115621158660839551
0.622000000000000330,1.115484319384993483
0.623000000000000442,1.115024080678592489
0.624000000000000332,1.114246823730451919
0.625000000000000444,1.113158892072724671
0.626000000000000334,1.111766590276252131
0.627000000000000446,1.110076182694045732
0.628000000000000336,1.108093892252270951
0.629000000000000448,1.105825899287916858
0.630000000000000338,1.103278340432442217
0.631000000000000449,1.100457307540626761
0.632000000000000339,1.097368846663915098
0.633000000000000451,1.094018957067440567
0.634000000000000341,1.090413590290032264
0.635000000000000453,1.086558649246380792
0.636000000000000343,1.082459987370716803
0.637000000000000455,1.078123407801080624
0.638000000000000345,1.073554662603598775
0.639000000000000457,1.068759452035880742
0.640000000000000346,1.063743423848872549
0.641000000000000458,1.058512172626332681
0.642000000000000348,1.053071239161277761
0.643000000000000460,1.047426109868547339
0.644000000000000350,1.041582216232844527
0.645000000000000462,1.035544934291419583
0.646000000000000352,1.029319584150754530
0.647000000000000464,1.022911429536433214
0.648000000000000353,1.016325677375542691
0.649000000000000465,1.009567477410819203
0.650000000000000355,1.002641921845897954
0.651000000000000467,0.995554045020876521
0.652000000000000357,0.988308823117567625
0.653000000000000469,0.980911173893667665
0.654000000000000359,0.973365956445219616
0.655000000000000471,0.965677970996644097
0.656000000000000361,0.957851958717672702
0.657000000000000473,0.949892601566504569
0.658000000000000362,0.941804522158546042
0.659000000000000474,0.933592283660064637
0.660000000000000364,0.925260389706097142
0.661000000000000476,0.916813284341977619
0.662000000000000366,0.908255351987898196
0.663000000000000478,0.899590917425772796
0.664000000000000368,0.890824245807923965
