# graphene_BGLCNA-AC
# h[nm],U(h)[kJ/mol]
0.200000000000000011,90.356200863818628477
0.201000000000000012,89.587904318062754783
0.202000000000000013,88.020170810763019631
0.203000000000000014,86.125280754507770098
0.204000000000000015,84.161512433610894846
0.205000000000000016,82.253736656469897071
0.206000000000000016,80.447671046095564407
0.207000000000000017,78.745507767204529159
0.208000000000000018,77.128554085830472786
0.209000000000000019,75.570972901628067575
0.210000000000000020,74.047555402858478146
0.211000000000000021,72.537604107968888911
0.212000000000000022,71.026377922377065488
0.213000000000000023,69.505094897873931359
0.214000000000000024,67.970159962680128274
0.215000000000000024,66.422051154674491613
0.216000000000000025,64.864133960720138816
0.217000000000000026,63.301560478316844183
0.218000000000000027,61.740334192440457173
0.219000000000000028,60.186571696205987791
0.220000000000000029,58.645961894050174124
0.221000000000000030,57.123405385317560956
0.222000000000000031,55.622807662087005554
0.223000000000000032,54.146996459813394154
0.224000000000000032,52.697733932726123385
0.225000000000000033,51.275796789980503831
0.226000000000000034,49.881101096680637852
0.227000000000000035,48.512852431992726565
0.228000000000000036,47.169706066491045249
0.229000000000000037,45.849925508517500816
0.230000000000000038,44.551531031429789209
0.231000000000000039,43.272432568800660135
0.232000000000000040,42.010543645185961736
0.233000000000000040,40.763874821693079298
0.234000000000000041,39.530606523111615047
0.235000000000000042,38.309142131023733668
0.236000000000000043,37.098142932047906584
0.237000000000000044,35.896546957664973831
0.238000000000000045,34.703573993323942659
0.239000000000000046,33.518719115683850873
0.240000000000000047,32.341737077786390842
0.241000000000000048,31.172619736463008877
0.242000000000000048,30.011568532290606726
0.243000000000000049,28.858963812527214543
0.244000000000000050,27.715332549532597284
0.245000000000000051,26.581315764914183575
0.246000000000000052,25.457636733255373684
0.247000000000000053,24.345070816050682794
0.248000000000000054,23.244417571283094048
0.249000000000000055,22.156475599899447815
0.250000000000000056,21.082020428731787831
0.251000000000000056,20.021785590482537032
0.252000000000000057,18.976446944689595142
0.253000000000000058,17.946610187954814108
0.254000000000000059,16.932801425573927645
0.255000000000000060,15.935460618226557017
0.256000000000000061,14.954937674607373665
0.257000000000000062,13.991490931816603194
0.258000000000000063,13.045287748025561569
0.259000000000000064,12.116406924528714484
0.260000000000000064,11.204842675049956569
0.261000000000000065,10.310509867498728553
0.262000000000000066,9.433250275835916909
0.263000000000000067,8.572839596048241972
0.264000000000000068,7.728994999332678972
0.265000000000000069,6.901383016509138102
0.266000000000000070,6.089627569609514346
0.267000000000000071,5.293317988860142265
0.268000000000000071,4.512016875342323097
0.269000000000000072,3.745267691043304037
0.270000000000000073,2.992601978462261059
0.271000000000000074,2.253546131161611843
0.272000000000000075,1.527627654473006746
0.273000000000000076,0.814380871868018885
0.274000000000000077,0.113352047220521612
0.275000000000000078,-0.575896093695927869
0.276000000000000079,-1.253780447599738279
0.277000000000000079,-1.920694219115170132
0.278000000000000080,-2.577004193820836342
0.279000000000000081,-3.223048578418373555
0.280000000000000082,-3.859135381673766574
0.281000000000000083,-4.485541305147854985
0.282000000000000084,-5.102511109184260540
0.283000000000000085,-5.710257417057755802
0.284000000000000086,-6.308960918498504711
0.285000000000000087,-6.898770932890291085
0.286000000000000087,-7.479806292200100515
0.287000000000000088,-8.052156504033895601
0.288000000000000089,-8.615883156041913793
0.289000000000000090,-9.171021524136151015
0.290000000000000091,-9.717582348553422733
0.291000000000000092,-10.255553743636275144
0.292000000000000093,-10.784903209243832833
0.293000000000000094,-11.305579713893356697
0.294000000000000095,-11.817515822020173033
0.295000000000000095,-12.320629840087189422
0.296000000000000096,-12.814827958635138572
0.297000000000000097,-13.300006369712644272
0.298000000000000098,-13.776053341430682053
0.299000000000000099,-14.242851233628908147
0.300000000000000100,-14.700278440800861546
0.301000000000000101,-15.148211250489367785
0.302000000000000102,-15.586525607316890074
0.303000000000000103,-16.015098774655353253
0.304000000000000103,-16.433810887653788058
0.305000000000000104,-16.842546392932220556
0.306000000000000105,-17.241195371711484086
0.307000000000000106,-17.629654744482362361
0.308000000000000107,-18.007829356525729025
0.309000000000000108,-18.375632944679775704
0.310000000000000109,-18.732988986717025170
0.311000000000000110,-19.079831435543173512
0.312000000000000111,-19.416105341173647503
0.313000000000000111,-19.741767364079894520
0.314000000000000112,-20.056786184039118837
0.315000000000000113,-20.361142809070244653
0.316000000000000114,-20.654830789403341385
0.317000000000000115,-20.937856341716120312
0.318000000000000116,-21.210238389085290578
0.319000000000000117,-21.472008522249403484
0.320000000000000118,-21.723210887868567909
0.321000000000000119,-21.963902009502774604
0.322000000000000119,-22.194150547017777342
0.323000000000000120,-22.414037000072667638
0.324000000000000121,-22.623653361252216598
0.325000000000000122,-22.823102724281984166
0.326000000000000123,-23.012498852612445432
0.327000000000000124,-23.191965713482382228
0.328000000000000125,-23.361636982376989380
0.329000000000000126,-23.521655522584051567
0.330000000000000127,-23.672172844328038366
0.331000000000000127,-23.813348547728061533
0.332000000000000128,-23.945349753585226438
0.333000000000000129,-24.068350525760013880
0.334000000000000130,-24.182531288653240864
0.335000000000000131,-24.288078243057480421
0.336000000000000132,-24.385182783399848461
0.337000000000000133,-24.474040919155108043
0.338000000000000134,-24.554852702970972445
0.339000000000000135,-24.627821667814252748
0.340000000000000135,-24.693154275222855887
0.341000000000000136,-24.751059376529870093
0.342000000000000137,-24.801747688717135532
0.343000000000000138,-24.845431286354717315
0.344000000000000139,-24.882323110891501727
0.345000000000000140,-24.912636498380145156
0.346000000000000141,-24.936584726547017965
0.347000000000000142,-24.954380581955788898
0.348000000000000143,-24.966235947860532463
0.349000000000000143,-24.972361413201351610
0.350000000000000144,-24.972965903062920745
0.351000000000000145,-24.968256330792428344
0.352000000000000146,-24.958437271859931883
0.353000000000000147,-24.943710659438757204
0.354000000000000148,-24.924275501588105897
0.355000000000000149,-24.900327619832399506
0.356000000000000150,-24.872059408852763340
0.357000000000000151,-24.839659616935193753
0.358000000000000151,-24.803313146756146068
0.359000000000000152,-24.763200876029948461
0.360000000000000153,-24.719499497493394813
0.361000000000000154,-24.672381377659252877
0.362000000000000155,-24.622014433734257466
0.363000000000000156,-24.568562028065610292
0.364000000000000157,-24.512182879454403661
0.365000000000000158,-24.453030990654177401
0.366000000000000159,-24.391255591356117094
0.367000000000000159,-24.327001095951327869
0.368000000000000160,-24.260407075352986794
0.369000000000000161,-24.191608242156917186
0.370000000000000162,-24.120734448418957641
0.371000000000000163,-24.047910695330035225
0.372000000000000164,-23.973257154074818942
0.373000000000000165,-23.896889197168395214
0.374000000000000166,-23.818917439575081119
0.375000000000000167,-23.739447788925687632
0.376000000000000167,-23.658581504164136078
0.377000000000000168,-23.576415261969124515
0.378000000000000169,-23.493041230314116063
0.379000000000000170,-23.408547148546936967
0.380000000000000171,-23.323016413389197510
0.381000000000000172,-23.236528170276102401
0.382000000000000173,-23.149157409477634673
0.383000000000000174,-23.060975066463527128
0.384000000000000175,-22.972048125995801371
0.385000000000000175,-22.882439729454816302
0.386000000000000176,-22.792209284926762791
0.387000000000000177,-22.701412579602390451
0.388000000000000178,-22.610101894059418726
0.389000000000000179,-22.518326118022415017
0.390000000000000180,-22.426130867216279796
0.391000000000000181,-22.333558600950489392
0.392000000000000182,-22.240648740092929359
0.393000000000000183,-22.147437785112515485
0.394000000000000183,-22.053959433890479858
0.395000000000000184,-21.960244699020037729
0.396000000000000185,-21.866322024333424423
0.397000000000000186,-21.772217400414323407
0.398000000000000187,-21.677954478871924948
0.399000000000000188,-21.583554685170561527
0.400000000000000189,-21.489037329825901423
0.401000000000000190,-21.394419717795354785
0.402000000000000191,-21.299717255906028157
0.403000000000000191,-21.204943558178779739
0.404000000000000192,-21.110110548921745988
0.405000000000000193,-21.015228563480249591
0.406000000000000194,-20.920306446543794010
0.407000000000000195,-20.825351647923131537
0.408000000000000196,-20.730370315722606023
0.409000000000000197,-20.635367386844457371
0.410000000000000198,-20.540346674772557378
0.411000000000000199,-20.445310954593139741
0.412000000000000199,-20.350262045220066653
0.413000000000000200,-20.255200888800779069
0.414000000000000201,-20.160127627288211727
0.415000000000000202,-20.065041676171198048
0.416000000000000203,-19.969941795364061221
0.417000000000000204,-19.874826157262464932
0.418000000000000205,-19.779692411979421962
0.419000000000000206,-19.684537749781195970
0.420000000000000207,-19.589358960748150196
0.421000000000000207,-19.494152491691231432
0.422000000000000208,-19.398914500358664270
0.423000000000000209,-19.303640906972404423
0.424000000000000210,-19.208327443137292789
0.425000000000000211,-19.112969698169425925
0.426000000000000212,-19.017563162893704742
0.427000000000000213,-18.922103270962715271
0.428000000000000214,-18.826585437752243024
0.429000000000000214,-18.731005096890410044
0.430000000000000215,-18.635357734479477188
0.431000000000000216,-18.539638921071109223
0.432000000000000217,-18.443844341456944846
0.433000000000000218,-18.347969822337670820
0.434000000000000219,-18.252011357934648572
0.435000000000000220,-18.155965133608752637
0.436000000000000221,-18.059827547551520865
0.437000000000000222,-17.963595230614121334
0.438000000000000222,-17.867265064339676428
0.439000000000000223,-17.770834197264399279
0.440000000000000224,-17.674300059552908948
0.441000000000000225,-17.577660376032486766
0.442000000000000226,-17.480913177691082439
0.443000000000000227,-17.384056811702500056
0.444000000000000228,-17.287089950042393127
0.445000000000000229,-17.190011596757120316
0.446000000000000230,-17.092821093947062394
0.447000000000000230,-16.995518126524970626
0.448000000000000231,-16.898102725808747948
0.449000000000000232,-16.800575272006966543
0.450000000000000233,-16.702936495654494564
0.451000000000000234,-16.605187478053910155
0.452000000000000235,-16.507329650777755603
0.453000000000000236,-16.409364794284591937
0.454000000000000237,-16.311295035701309786
0.455000000000000238,-16.213122845822113050
0.456000000000000238,-16.114851035373529697
0.457000000000000239,-16.016482750593336704
0.458000000000000240,-15.918021468169925470
0.459000000000000241,-15.819470989586921661
0.460000000000000242,-15.720835434916926587
0.461000000000000243,-15.622119236106238205
0.462000000000000244,-15.523327129791647749
0.463000000000000245,-15.424464149688025927
0.464000000000000246,-15.325535618585186981
0.465000000000000246,-15.226547139990037394
0.466000000000000247,-15.127504589449230821
0.467000000000000248,-15.028414105585905958
0.468000000000000249,-14.929282080882964934
0.469000000000000250,-14.830115152243598331
0.470000000000000251,-14.730920191358915616
0.471000000000000252,-14.631704294910742092
0.472000000000000253,-14.532474774636927606
0.473000000000000254,-14.433239147284576021
0.474000000000000254,-14.334005124476101756
0.475000000000000255,-14.234780602511142078
0.476000000000000256,-14.135573652126666389
0.477000000000000257,-14.036392508236332333
0.478000000000000258,-13.937245559668738792
0.479000000000000259,-13.838141338923714230
0.480000000000000260,-13.739088511964117956
0.481000000000000261,-13.640095868059953332
0.482000000000000262,-13.541172309700545640
0.483000000000000262,-13.442326842589517710
0.484000000000000263,-13.343568565736228848
0.485000000000000264,-13.244906661656767000
0.486000000000000265,-13.146350386696397550
0.487000000000000266,-13.047909061484535442
0.488000000000000267,-12.949592061532744225
0.489000000000000268,-12.851408807985245986
0.490000000000000269,-12.753368758530603699
0.491000000000000270,-12.655481398482853805
0.492000000000000270,-12.557756232039116284
0.493000000000000271,-12.460202773720672198
0.494000000000000272,-12.362830540003303170
0.495000000000000273,-12.265649041142243192
0.496000000000000274,-12.168667773196785831
0.497000000000000275,-12.071896210258424631
0.498000000000000276,-11.975343796886463110
0.499000000000000277,-11.879019940754108831
0.500000000000000222,-11.782934005507687658
0.501000000000000334,-11.687095303841235960
0.502000000000000224,-11.591513090788154727
0.503000000000000336,-11.496196557231098012
0.504000000000000226,-11.401154823631326707
0.505000000000000338,-11.306396933977470809
0.506000000000000227,-11.211931849954520857
0.507000000000000339,-11.117768445332156801
0.508000000000000229,-11.023915500572519122
0.509000000000000341,-10.930381697655883855
0.510000000000000231,-10.837175615123985750
0.511000000000000343,-10.744305723338630543
0.512000000000000233,-10.651780379954780997
0.513000000000000345,-10.559607825605548115
0.514000000000000234,-10.467796179797696610
0.515000000000000346,-10.376353437014435244
0.516000000000000236,-10.285287463023985666
0.517000000000000348,-10.194605991390346844
0.518000000000000238,-10.104316620184158992
0.519000000000000350,-10.014426808889975717
0.520000000000000240,-9.924943875507452162
0.521000000000000352,-9.835874993842649516
0.522000000000000242,-9.747227190986539114
0.523000000000000353,-9.659007344976743070
0.524000000000000243,-9.571222182639450793
0.525000000000000355,-9.483878277607384888
0.526000000000000245,-9.396982048510553298
0.527000000000000357,-9.310539757335444477
0.528000000000000247,-9.224557507949478818
0.529000000000000359,-9.139041244786158202
0.530000000000000249,-9.053996751687581224
0.531000000000000361,-8.969429650899837014
0.532000000000000250,-8.885345402217811994
0.533000000000000362,-8.801749302274897602
0.534000000000000252,-8.718646483974058725
0.535000000000000364,-8.636041916055813061
0.536000000000000254,-8.553940402799637965
0.537000000000000366,-8.472346583854092117
0.538000000000000256,-8.391264934192497194
0.539000000000000368,-8.310699764189369176
0.540000000000000258,-8.230655219814460466
0.541000000000000369,-8.151135282939645066
0.542000000000000259,-8.072143771755618147
0.543000000000000371,-7.993684341293776363
0.544000000000000261,-7.915760484049991774
0.545000000000000373,-7.838375530706201744
0.546000000000000263,-7.761532650946331380
0.547000000000000375,-7.685234854362349211
0.548000000000000265,-7.609484991447660995
0.549000000000000377,-7.534285754673225810
0.550000000000000266,-7.459639679643788490
0.551000000000000378,-7.385549146330025572
0.552000000000000268,-7.312016380373674629
0.553000000000000380,-7.239043454461905114
0.554000000000000270,-7.166632289767994379
0.555000000000000382,-7.094784657454567878
0.556000000000000272,-7.023502180236830483
0.557000000000000384,-6.952786334001980428
0.558000000000000274,-6.882638449482445075
0.559000000000000385,-6.813059713979240151
0.560000000000000275,-6.744051173133191135
0.561000000000000387,-6.675613732740589334
0.562000000000000277,-6.607748160610848132
0.563000000000000389,-6.540455088463237310
0.564000000000000279,-6.473735013860158816
0.565000000000000391,-6.407588302174190176
0.566000000000000281,-6.342015188586573871
0.567000000000000393,-6.277015780114435728
0.568000000000000282,-6.212590057664657550
0.569000000000000394,-6.148737878111616872
0.570000000000000284,-6.085458976397045916
0.571000000000000396,-6.022752967649285694
0.572000000000000286,-5.960619349320293026
0.573000000000000398,-5.899057503337789221
0.574000000000000288,-5.838066698271063615
0.575000000000000400,-5.777646091508048976
0.576000000000000290,-5.717794731442096712
0.577000000000000401,-5.658511559666340673
0.578000000000000291,-5.599795413174161851
0.579000000000000403,-5.541645026563771559
0.580000000000000293,-5.484059034245543529
0.581000000000000405,-5.427035972650159579
0.582000000000000295,-5.370574282436460400
0.583000000000000407,-5.314672310697057256
0.584000000000000297,-5.259328313160708035
0.585000000000000409,-5.204540456389722181
0.586000000000000298,-5.150306819971426364
0.587000000000000410,-5.096625398702061993
0.588000000000000300,-5.043494104762286767
0.589000000000000412,-4.990910769882717979
0.590000000000000302,-4.938873147498777705
0.591000000000000414,-4.887378914893520943
0.592000000000000304,-4.836425675327567397
0.593000000000000416,-4.786010960155024918
0.594000000000000306,-4.736132230924722464
0.595000000000000417,-4.686786881465574872
0.596000000000000307,-4.637972239955491460
0.597000000000000419,-4.589685570972868334
0.598000000000000309,-4.541924077530046233
0.599000000000000421,-4.494684903087856398
0.600000000000000311,-4.447965133550795258
0.601000000000000423,-4.401761799241930007
0.602000000000000313,-4.356071876857268599
0.603000000000000425,-4.310892291398586984
0.604000000000000314,-4.266219918084772189
0.605000000000000426,-4.222051584240505306
0.606000000000000316,-4.178384071162511759
0.607000000000000428,-4.135214115962346781
0.608000000000000318,-4.092538413385835128
0.609000000000000430,-4.050353617608340784
0.610000000000000320,-4.008656344005970595
0.611000000000000432,-3.967443170901984395
0.612000000000000322,-3.926710641288516435
0.613000000000000433,-3.886455264523045461
0.614000000000000323,-3.846673517999609881
0.615000000000000435,-3.807361848794418080
0.616000000000000325,-3.768516675285806805
0.617000000000000437,-3.730134388748242547
0.618000000000000327,-3.692211354920431177
0.619000000000000439,-3.654743915547199684
0.620000000000000329,-3.617728389895292107
0.621000000000000441,-3.581161076242840302
0.622000000000000330,-3.545038253342573942
0.623000000000000442,-3.509356181858637402
0.624000000000000332,-3.474111105777150321
0.625000000000000444,-3.439299253790351507
0.626000000000000334,-3.404916840654514054
0.627000000000000446,-3.370960068521519304
0.628000000000000336,-3.337425128244291272
0.629000000000000448,-3.304308200656031147
0.630000000000000338,-3.271605457823482332
0.631000000000000449,-3.239313064274143894
0.632000000000000339,-3.207427178197742368
0.633000000000000451,-3.175943952621911759
0.634000000000000341,-3.144859536562372604
0.635000000000000453,-3.114170076147610100
0.636000000000000343,-3.083871715718339068
0.637000000000000455,-3.053960598901822809
0.638000000000000345,-3.024432869661348722
0.639000000000000457,-2.995284673320840252
0.640000000000000346,-2.966512157565091456
0.641000000000000458,-2.938111473415522035
0.642000000000000348,-2.910078776181940441
0.643000000000000460,-2.882410226390287988
0.644000000000000350,-2.855101990686839120
0.645000000000000462,-2.828150242718836971
0.646000000000000352,-2.801551163992054949
0.647000000000000464,-2.775300944705253681
0.648000000000000353,-2.749395784562138179
0.649000000000000465,-2.723831893560630490
0.650000000000000355,-2.698605492760183466
0.651000000000000467,-2.673712815026985545
0.652000000000000357,-2.649150105757647200
0.653000000000000469,-2.624913623581395239
0.654000000000000359,-2.600999641041263910
0.655000000000000471,-2.577404445254345866
0.656000000000000361,-2.554124338551599926
0.657000000000000473,-2.531155639097287580
0.658000000000000362,-2.508494681488522282
