# graphene_CS-6110-AC
# h[nm],U(h)[kJ/mol]
0.149999999999999994,84.337267490800371661
0.150999999999999995,82.039930948794875576
0.151999999999999996,80.370013215248917504
0.152999999999999997,78.822846787016317194
0.153999999999999998,77.234472381887570691
0.154999999999999999,75.589929694040975505
0.156000000000000000,73.924675319983379040
0.157000000000000001,72.278893715674783493
0.158000000000000002,70.680298930955743231
0.159000000000000002,69.141073977897733016
0.160000000000000003,67.660851726177611454
0.161000000000000004,66.231443076304145734
0.162000000000000005,64.841254825741287959
0.163000000000000006,63.478597493928454298
0.164000000000000007,62.133744007232131423
0.165000000000000008,60.799908182296029224
0.166000000000000009,59.473421277702506416
0.167000000000000010,58.153390013877221065
0.168000000000000010,56.841076576309674806
0.169000000000000011,55.539182119724443965
0.170000000000000012,54.251157043433920535
0.171000000000000013,52.980611641839026049
0.172000000000000014,51.730862288352781775
0.173000000000000015,50.504620935540387450
0.174000000000000016,49.303817929024503997
0.175000000000000017,48.129537980926663465
0.176000000000000018,46.982044665507217474
0.177000000000000018,45.860868244488429468
0.178000000000000019,44.764933576938588544
0.179000000000000020,43.692708220502439076
0.180000000000000021,42.642354787335662536
0.181000000000000022,41.611875630744513899
0.182000000000000023,40.599241658674337430
0.183000000000000024,39.602500300917505172
0.184000000000000025,38.619860311002035758
0.185000000000000026,37.649753149204514102
0.186000000000000026,36.690872206261943234
0.187000000000000027,35.742192152272430405
0.188000000000000028,34.802971309261344857
0.189000000000000029,33.872740229231339981
0.190000000000000030,32.951279688860701356
0.191000000000000031,32.038591156446692310
0.192000000000000032,31.134862505703530644
0.193000000000000033,30.240431393875034871
0.194000000000000034,29.355748327573842005
0.195000000000000034,28.481341038869391724
0.196000000000000035,27.617781408375201124
0.197000000000000036,26.765655816510843579
0.198000000000000037,25.925539488165014745
0.199000000000000038,25.097975124601596519
0.200000000000000039,24.283455891126436654
0.201000000000000040,23.482412648716923798
0.202000000000000041,22.695205179687071961
0.203000000000000042,21.922117057542024554
0.204000000000000042,21.163353744833766967
0.205000000000000043,20.419043465169622209
0.206000000000000044,19.689240381656702539
0.207000000000000045,18.973929619331919127
0.208000000000000046,18.273033689220433473
0.209000000000000047,17.586419902725971554
0.210000000000000048,16.913908403704734695
0.211000000000000049,16.255280488930967664
0.212000000000000050,15.610286933322077729
0.213000000000000050,14.978656082314895315
0.214000000000000051,14.360101518635286055
0.215000000000000052,13.754329153227796922
0.216000000000000053,13.161043629472231942
0.217000000000000054,12.579953965454102160
0.218000000000000055,12.010778390650463265
0.219000000000000056,11.453248360807601003
0.220000000000000057,10.907111758036165838
0.221000000000000058,10.372135302372681664
0.222000000000000058,9.848106216467680696
0.223000000000000059,9.334833196952320833
0.224000000000000060,8.832146754724531590
0.225000000000000061,8.339898992232958719
0.226000000000000062,7.857962889175320598
0.227000000000000063,7.386231169218319792
0.228000000000000064,6.924614819728970083
0.229000000000000065,6.473041334399686875
0.230000000000000066,6.031452745352734013
0.231000000000000066,5.599803507089751164
0.232000000000000067,5.178058289756746646
0.233000000000000068,4.766189733835233255
0.234000000000000069,4.364176212736033733
0.235000000000000070,3.971999644021896536
0.236000000000000071,3.589643384254515013
0.237000000000000072,3.217090236860189911
0.238000000000000073,2.854320597026944295
0.239000000000000073,2.501310752553788319
0.240000000000000074,2.158031354819920811
0.241000000000000075,1.824446069668368198
0.242000000000000076,1.500510414024761374
0.243000000000000077,1.186170780511095035
0.244000000000000078,0.881363649168492413
0.245000000000000079,0.586014982665889139
0.246000000000000080,0.300039799031777743
0.247000000000000081,0.023341913984766993
0.248000000000000081,-0.244186156663415949
0.249000000000000082,-0.502663145327515215
0.250000000000000111,-0.752218843446693874
0.251000000000000112,-0.992993787195823985
0.252000000000000113,-1.225138830972213100
0.253000000000000114,-1.448814621719371587
0.254000000000000115,-1.664190987152218026
0.255000000000000115,-1.871446250776420239
0.256000000000000116,-2.070766486276104601
0.257000000000000117,-2.262344723400990798
0.258000000000000118,-2.446380116937929117
0.259000000000000119,-2.623077089724208832
0.260000000000000120,-2.792644459968505188
0.261000000000000121,-2.955294562406659331
0.262000000000000122,-3.111242372049798810
0.263000000000000123,-3.260704638493778784
0.264000000000000123,-3.403899037964578156
0.265000000000000124,-3.541043349483467662
0.266000000000000125,-3.672354660758181844
0.267000000000000126,-3.798048608648628033
0.268000000000000127,-3.918338658325231982
0.269000000000000128,-4.033435424538512670
0.270000000000000129,-4.143546037755284850
0.271000000000000130,-4.248873557292418113
0.272000000000000131,-4.349616432995452087
0.273000000000000131,-4.445968016468489381
0.274000000000000132,-4.538116122364115768
0.275000000000000133,-4.626242639788044286
0.276000000000000134,-4.710523193462283764
0.277000000000000135,-4.791126853922119011
0.278000000000000136,-4.868215895695408690
0.279000000000000137,-4.941945602125487724
0.280000000000000138,-5.012464115250420349
0.281000000000000139,-5.079912328939131250
0.282000000000000139,-5.144423823307318067
0.283000000000000140,-5.206124838290892676
0.284000000000000141,-5.265134284139658227
0.285000000000000142,-5.321563786507272020
0.286000000000000143,-5.375517763752453604
0.287000000000000144,-5.427093534029097555
0.288000000000000145,-5.476381449727587558
0.289000000000000146,-5.523465056832819187
0.290000000000000147,-5.568421276786201801
0.291000000000000147,-5.611320608475057092
0.292000000000000148,-5.652227348023572517
0.293000000000000149,-5.691199824121168760
0.294000000000000150,-5.728290646696710731
0.295000000000000151,-5.763546966827805207
0.296000000000000152,-5.797010745862427150
0.297000000000000153,-5.828719031824045160
0.298000000000000154,-5.858704241269716562
0.299000000000000155,-5.886994444872358123
0.300000000000000155,-5.913613655102560429
0.301000000000000156,-5.938582114490622565
0.302000000000000157,-5.961916583055566932
0.303000000000000158,-5.983630623593460207
0.304000000000000159,-6.003734883622263041
0.305000000000000160,-6.022237372883370021
0.306000000000000161,-6.039143735401322211
0.307000000000000162,-6.054457515201603357
0.308000000000000163,-6.068180414881956253
0.309000000000000163,-6.080312546325137291
0.310000000000000164,-6.090852672929655931
0.311000000000000165,-6.099798442820100419
0.312000000000000166,-6.107146612579779976
0.313000000000000167,-6.112893261125312172
0.314000000000000168,-6.117033993415688542
0.315000000000000169,-6.119564133756970392
0.316000000000000170,-6.120478908528273365
0.317000000000000171,-6.119773618214750854
0.318000000000000171,-6.117443798689439660
0.319000000000000172,-6.113485371737717777
0.320000000000000173,-6.107894784865998794
0.321000000000000174,-6.100669140480158958
0.322000000000000175,-6.091806314559392810
0.323000000000000176,-6.081305064987520659
0.324000000000000177,-6.069165129736580511
0.325000000000000178,-6.055387315126845138
0.326000000000000179,-6.039973574413727064
0.327000000000000179,-6.022927076974589511
0.328000000000000180,-6.004252268388706071
0.329000000000000181,-5.983954921720791909
0.330000000000000182,-5.962042180332571384
0.331000000000000183,-5.938522592559341895
0.332000000000000184,-5.913406138597591344
0.333000000000000185,-5.886704249957345425
0.334000000000000186,-5.858429821838190499
0.335000000000000187,-5.828597218791270684
0.336000000000000187,-5.797222274031295974
0.337000000000000188,-5.764322282762464944
0.338000000000000189,-5.729915989880931093
0.339000000000000190,-5.694023572413504652
0.340000000000000191,-5.656666617048120571
0.341000000000000192,-5.617868093106734406
0.342000000000000193,-5.577652321304755745
0.343000000000000194,-5.536044938634410606
0.344000000000000195,-5.493072859701241484
0.345000000000000195,-5.448764234834748699
0.346000000000000196,-5.403148405284726508
0.347000000000000197,-5.356255855805371446
0.348000000000000198,-5.308118164919128468
0.349000000000000199,-5.258767953141694207
0.350000000000000200,-5.208238829439054030
0.351000000000000201,-5.156565336176261560
0.352000000000000202,-5.103782892806735916
0.353000000000000203,-5.049927738539580879
0.354000000000000203,-4.995036874211171707
0.355000000000000204,-4.939148003575953183
0.356000000000000205,-4.882299474220278768
0.357000000000000206,-4.824530218291966932
0.358000000000000207,-4.765879693227017100
0.359000000000000208,-4.706387822644423125
0.360000000000000209,-4.646094937569034578
0.361000000000000210,-4.585041718132024435
0.362000000000000210,-4.523269135888279280
0.363000000000000211,-4.460818396879941972
0.364000000000000212,-4.397730885565722225
0.365000000000000213,-4.334048109725847198
0.366000000000000214,-4.269811646443664621
0.367000000000000215,-4.205063089255709485
0.368000000000000216,-4.139843996553723038
0.369000000000000217,-4.074195841313619226
0.370000000000000218,-4.008159962218665662
0.371000000000000218,-3.941777516236279588
0.372000000000000219,-3.875089432700766334
0.373000000000000220,-3.808136368947168116
0.374000000000000221,-3.740958667534894033
0.375000000000000222,-3.673596315093250464
0.376000000000000223,-3.606088902815237418
0.377000000000000224,-3.538475588620043855
0.378000000000000225,-3.470795060999409820
0.379000000000000226,-3.403085504557860297
0.380000000000000226,-3.335384567252128729
0.381000000000000227,-3.267729329330373300
0.382000000000000228,-3.200156273967844633
0.383000000000000229,-3.132701259591509135
0.384000000000000230,-3.065399493882480897
0.385000000000000231,-2.998285509441878993
0.386000000000000232,-2.931393141102299094
0.387000000000000233,-2.864755504864390900
0.388000000000000234,-2.798404978435186763
0.389000000000000234,-2.732373183342549972
0.390000000000000235,-2.666690968597637657
0.391000000000000236,-2.601388395875501747
0.392000000000000237,-2.536494726181864223
0.393000000000000238,-2.472038407972713792
0.394000000000000239,-2.408047066691673788
0.395000000000000240,-2.344547495689004002
0.396000000000000241,-2.281565648484887632
0.397000000000000242,-2.219126632338651817
0.398000000000000242,-2.157254703084916958
0.399000000000000243,-2.095973261196835136
0.400000000000000244,-2.035304849036050800
0.401000000000000245,-1.975271149248843061
0.402000000000000246,-1.915892984267259180
0.403000000000000247,-1.857190316874105518
0.404000000000000248,-1.799182251790573783
0.405000000000000249,-1.741887038245208741
0.406000000000000250,-1.685322073483078942
0.407000000000000250,-1.629503907174254973
0.408000000000000251,-1.574448246680874464
0.409000000000000252,-1.520169963142554703
0.410000000000000253,-1.466683098340169522
0.411000000000000254,-1.414000872298660783
0.412000000000000255,-1.362135691589915210
0.413000000000000256,-1.311099158297487577
0.414000000000000257,-1.260902079605404458
0.415000000000000258,-1.211554477974164268
0.416000000000000258,-1.163065601867554699
0.417000000000000259,-1.115443936994820362
0.418000000000000260,-1.068697218033395790
0.419000000000000261,-1.022832440798229436
0.420000000000000262,-0.977855874824613225
0.421000000000000263,-0.933773076332207408
0.422000000000000264,-0.890588901538844402
0.423000000000000265,-0.848307520293517192
0.424000000000000266,-0.806932429999023038
0.425000000000000266,-0.766466469795325289
0.426000000000000267,-0.726911834975890736
0.427000000000000268,-0.688270091609987755
0.428000000000000269,-0.650542191344877008
0.429000000000000270,-0.613728486362783099
0.430000000000000271,-0.577828744468329880
0.431000000000000272,-0.542842164283125594
0.432000000000000273,-0.508767390525008745
0.433000000000000274,-0.475602529350382608
0.434000000000000274,-0.443345163738895542
0.435000000000000275,-0.411992368900661265
0.436000000000000276,-0.381540727687000369
0.437000000000000277,-0.351986345986540106
0.438000000000000278,-0.323324868089370110
0.439000000000000279,-0.295551492002742500
0.440000000000000280,-0.268660984702579930
0.441000000000000281,-0.242647697305869242
0.442000000000000282,-0.217505580149833927
0.443000000000000282,-0.193228197764364451
0.444000000000000283,-0.169808743725163580
0.445000000000000284,-0.147240055375565365
0.446000000000000285,-0.125514628405750173
0.447000000000000286,-0.104624631278899954
0.448000000000000287,-0.084561919494225243
0.449000000000000288,-0.065318049677730888
0.450000000000000289,-0.046884293491994369
0.451000000000000290,-0.029251651356964215
0.452000000000000290,-0.012410865974335005
0.453000000000000291,0.003647564351393862
0.454000000000000292,0.018933372601453290
0.455000000000000293,0.033456510146762021
0.456000000000000294,0.047227134072522194
0.457000000000000295,0.060255594728265763
0.458000000000000296,0.072552423507596456
0.459000000000000297,0.084128320861488776
0.460000000000000298,0.094994144548479209
0.461000000000000298,0.105160898124740471
0.462000000000000299,0.114639719676531526
0.463000000000000300,0.123441870797216580
0.464000000000000301,0.131578725810565456
0.465000000000000302,0.139061761241765169
0.466000000000000303,0.145902545537199363
0.467000000000000304,0.152112729033716698
0.468000000000000305,0.157704034177772401
0.469000000000000306,0.162688245994595471
0.470000000000000306,0.167077202807153408
0.471000000000000307,0.170882787204508724
0.472000000000000308,0.174116917258812870
0.473000000000000309,0.176791537990017178
0.474000000000000310,0.178918613077099303
0.475000000000000311,0.180510116814389360
0.476000000000000312,0.181578026311383839
0.477000000000000313,0.182134313934262160
0.478000000000000314,0.182190939987081135
0.479000000000000314,0.181759845630483863
0.480000000000000315,0.180852946035632872
0.481000000000000316,0.179482123770828700
0.482000000000000317,0.177659222418261320
0.483000000000000318,0.175396040418092175
0.484000000000000319,0.172704325137038678
0.485000000000000320,0.169595767158436661
0.486000000000000321,0.166081994790736820
0.487000000000000322,0.162174568791227186
0.488000000000000322,0.157884977301738505
0.489000000000000323,0.153224630992960381
0.490000000000000324,0.148204858413984647
0.491000000000000325,0.142836901543567596
0.492000000000000326,0.137131911539605911
0.493000000000000327,0.131100944683223281
0.494000000000000328,0.124754958513834072
0.495000000000000329,0.118104808151547627
0.496000000000000330,0.111161242803184929
0.497000000000000330,0.103934902448207023
0.498000000000000331,0.096436314700804410
0.499000000000000332,0.088675891844403387
0.500000000000000333,0.080663928034794094
0.501000000000000334,0.072410596668143992
0.502000000000000335,0.063925947910091846
0.503000000000000336,0.055219906382173875
0.504000000000000337,0.046302269001800893
0.505000000000000338,0.037182702972049730
0.506000000000000338,0.027870743917509766
0.507000000000000339,0.018375794162486768
0.508000000000000340,0.008707121147842067
0.509000000000000341,-0.001126144017195008
0.510000000000000342,-0.011115007871901662
0.511000000000000343,-0.021250615793234229
0.512000000000000344,-0.031524253060904048
0.513000000000000345,-0.041927345801884321
0.514000000000000346,-0.052451461817917489
0.515000000000000346,-0.063088311299439870
0.516000000000000347,-0.073829747429414033
0.517000000000000348,-0.084667766880465220
0.518000000000000349,-0.095594510208652658
0.519000000000000350,-0.106602262147199880
0.520000000000000351,-0.117683451803480804
0.521000000000000352,-0.128830652762430276
0.522000000000000353,-0.140036583099586082
0.523000000000000353,-0.151294105306878340
0.524000000000000354,-0.162596226134224836
0.525000000000000355,-0.173936096349983971
0.526000000000000356,-0.185307010423188701
0.527000000000000357,-0.196702406130530721
0.528000000000000358,-0.208115864090930636
0.529000000000000359,-0.219541107230504601
0.530000000000000360,-0.230972000180703130
0.531000000000000361,-0.242402548612316332
0.532000000000000361,-0.253826898508005105
0.533000000000000362,-0.265239335375945240
0.534000000000000363,-0.276634283407140857
0.535000000000000364,-0.288006304578888872
0.536000000000000365,-0.299350097706834184
0.537000000000000366,-0.310660497447996786
0.538000000000000367,-0.321932473257094620
0.539000000000000368,-0.333161128298453846
0.540000000000000369,-0.344341698315705602
0.541000000000000369,-0.355469550461454731
0.542000000000000370,-0.366540182089032218
0.543000000000000371,-0.377549219508391043
0.544000000000000372,-0.388492416708170918
0.545000000000000373,-0.399365654045874929
0.546000000000000374,-0.410164936908083866
0.547000000000000375,-0.420886394342558590
0.548000000000000376,-0.431526277664054381
0.549000000000000377,-0.442080959035584198
0.550000000000000377,-0.452546930026866190
0.551000000000000378,-0.462920800151615963
0.552000000000000379,-0.473199295385276941
0.553000000000000380,-0.483379256664802415
0.554000000000000381,-0.493457638371964324
0.555000000000000382,-0.503431506801708673
0.556000000000000383,-0.513298038616959884
0.557000000000000384,-0.523054519291285880
0.558000000000000385,-0.532698341540752018
0.559000000000000385,-0.542227003746289182
0.560000000000000386,-0.551638108367801028
0.561000000000000387,-0.560929360351277273
0.562000000000000388,-0.570098565530046786
0.563000000000000389,-0.579143629021350193
0.564000000000000390,-0.588062553619292938
0.565000000000000391,-0.596853438185279139
0.566000000000000392,-0.605514476036919769
0.567000000000000393,-0.614043953336425918
0.568000000000000393,-0.622440247479414399
0.569000000000000394,-0.630701825485074807
0.570000000000000395,-0.638827242388543382
0.571000000000000396,-0.646815139636350622
0.572000000000000397,-0.654664243485772124
0.573000000000000398,-0.662373363408820692
0.574000000000000399,-0.669941390501677558
0.575000000000000400,-0.677367295900251132
0.576000000000000401,-0.684650129202559632
0.577000000000000401,-0.691789016898604614
0.578000000000000402,-0.698783160808367887
0.579000000000000403,-0.705631836528501033
0.580000000000000404,-0.712334391888339580
0.581000000000000405,-0.718890245415734652
0.582000000000000406,-0.725298884813261768
0.583000000000000407,-0.731559865445281399
0.584000000000000408,-0.737672808836337124
0.585000000000000409,-0.743637401181320268
0.586000000000000409,-0.749453391867855201
0.587000000000000410,-0.755120592011276015
0.588000000000000411,-0.760638873002584370
0.589000000000000412,-0.766008165069762881
0.590000000000000413,-0.771228455852744355
0.591000000000000414,-0.776299788992387385
0.592000000000000415,-0.781222262733738182
0.593000000000000416,-0.785996028543849090
0.594000000000000417,-0.790621289744430578
0.595000000000000417,-0.795098300159561511
0.596000000000000418,-0.799427362778681649
0.597000000000000419,-0.803608828435082301
0.598000000000000420,-0.807643094500067216
0.599000000000000421,-0.811530603592971689
0.600000000000000422,-0.815271842307195294
0.601000000000000423,-0.818867339952367601
0.602000000000000424,-0.822317667312814971
0.603000000000000425,-0.825623435422415897
0.604000000000000425,-0.828785294355937174
0.605000000000000426,-0.831803932036961013
0.606000000000000427,-0.834680073062479488
0.607000000000000428,-0.837414477544166092
0.608000000000000429,-0.840007939966479489
0.609000000000000430,-0.842461288061501890
0.610000000000000431,-0.844775381700678119
0.611000000000000432,-0.846951111803367795
0.612000000000000433,-0.848989399262264910
0.613000000000000433,-0.850891193885700892
0.614000000000000434,-0.852657473356768336
0.615000000000000435,-0.854289242209278932
